# Wavelength	NAu-2-10_HEX-50_FV7-40_00002.asd.rts.txt
350.000000	0.190410
351.000000	0.189943
352.000000	0.170481
353.000000	0.164272
354.000000	0.183030
355.000000	0.195041
356.000000	0.191740
357.000000	0.180580
358.000000	0.178353
359.000000	0.180172
360.000000	0.186460
361.000000	0.196188
362.000000	0.194019
363.000000	0.189478
364.000000	0.189484
365.000000	0.192661
366.000000	0.191434
367.000000	0.186050
368.000000	0.183678
369.000000	0.187305
370.000000	0.192735
371.000000	0.194381
372.000000	0.195175
373.000000	0.194203
374.000000	0.192671
375.000000	0.197544
376.000000	0.199538
377.000000	0.197243
378.000000	0.196561
379.000000	0.197859
380.000000	0.199143
381.000000	0.198632
382.000000	0.198325
383.000000	0.198790
384.000000	0.200228
385.000000	0.202142
386.000000	0.202263
387.000000	0.200463
388.000000	0.198172
389.000000	0.198946
390.000000	0.201053
391.000000	0.200824
392.000000	0.200267
393.000000	0.200427
394.000000	0.201436
395.000000	0.200945
396.000000	0.201050
397.000000	0.202036
398.000000	0.201670
399.000000	0.203020
400.000000	0.205037
401.000000	0.204982
402.000000	0.205098
403.000000	0.205127
404.000000	0.205009
405.000000	0.206969
406.000000	0.207799
407.000000	0.206689
408.000000	0.206758
409.000000	0.206759
410.000000	0.206711
411.000000	0.207203
412.000000	0.207301
413.000000	0.207506
414.000000	0.208299
415.000000	0.207840
416.000000	0.207644
417.000000	0.208531
418.000000	0.209446
419.000000	0.210175
420.000000	0.210749
421.000000	0.211446
422.000000	0.211511
423.000000	0.211240
424.000000	0.211335
425.000000	0.212074
426.000000	0.212791
427.000000	0.212998
428.000000	0.213173
429.000000	0.213067
430.000000	0.212838
431.000000	0.213196
432.000000	0.213878
433.000000	0.214501
434.000000	0.214708
435.000000	0.214947
436.000000	0.215193
437.000000	0.215306
438.000000	0.215058
439.000000	0.215167
440.000000	0.215822
441.000000	0.215780
442.000000	0.216109
443.000000	0.216732
444.000000	0.216940
445.000000	0.216924
446.000000	0.216947
447.000000	0.217100
448.000000	0.217136
449.000000	0.217433
450.000000	0.218177
451.000000	0.218924
452.000000	0.219312
453.000000	0.219284
454.000000	0.219294
455.000000	0.219753
456.000000	0.220377
457.000000	0.220459
458.000000	0.220818
459.000000	0.221212
460.000000	0.221401
461.000000	0.221634
462.000000	0.222125
463.000000	0.222695
464.000000	0.222922
465.000000	0.223052
466.000000	0.223124
467.000000	0.223199
468.000000	0.223492
469.000000	0.223836
470.000000	0.224134
471.000000	0.224378
472.000000	0.224567
473.000000	0.224766
474.000000	0.225107
475.000000	0.225478
476.000000	0.225846
477.000000	0.225920
478.000000	0.225956
479.000000	0.226164
480.000000	0.226434
481.000000	0.226918
482.000000	0.227431
483.000000	0.227617
484.000000	0.227734
485.000000	0.227800
486.000000	0.228024
487.000000	0.228548
488.000000	0.228796
489.000000	0.228852
490.000000	0.229232
491.000000	0.229356
492.000000	0.229489
493.000000	0.229883
494.000000	0.229976
495.000000	0.230142
496.000000	0.230577
497.000000	0.230912
498.000000	0.231145
499.000000	0.231347
500.000000	0.231488
501.000000	0.231796
502.000000	0.232158
503.000000	0.232247
504.000000	0.232489
505.000000	0.232785
506.000000	0.233006
507.000000	0.233365
508.000000	0.233789
509.000000	0.234174
510.000000	0.234517
511.000000	0.234742
512.000000	0.234941
513.000000	0.235309
514.000000	0.235576
515.000000	0.235828
516.000000	0.236178
517.000000	0.236461
518.000000	0.236722
519.000000	0.236969
520.000000	0.237347
521.000000	0.237738
522.000000	0.238088
523.000000	0.238391
524.000000	0.238804
525.000000	0.239282
526.000000	0.239713
527.000000	0.240120
528.000000	0.240527
529.000000	0.241009
530.000000	0.241583
531.000000	0.242209
532.000000	0.242759
533.000000	0.243187
534.000000	0.243739
535.000000	0.244426
536.000000	0.245061
537.000000	0.245575
538.000000	0.246033
539.000000	0.246547
540.000000	0.247082
541.000000	0.247554
542.000000	0.247958
543.000000	0.248458
544.000000	0.248976
545.000000	0.249426
546.000000	0.249944
547.000000	0.250496
548.000000	0.251053
549.000000	0.251488
550.000000	0.251984
551.000000	0.252534
552.000000	0.253049
553.000000	0.253718
554.000000	0.254386
555.000000	0.254959
556.000000	0.255616
557.000000	0.256265
558.000000	0.256986
559.000000	0.257764
560.000000	0.258406
561.000000	0.259035
562.000000	0.259781
563.000000	0.260484
564.000000	0.261147
565.000000	0.261719
566.000000	0.262335
567.000000	0.262930
568.000000	0.263465
569.000000	0.264079
570.000000	0.264618
571.000000	0.265061
572.000000	0.265524
573.000000	0.265985
574.000000	0.266402
575.000000	0.266778
576.000000	0.267108
577.000000	0.267418
578.000000	0.267781
579.000000	0.268147
580.000000	0.268463
581.000000	0.268712
582.000000	0.268930
583.000000	0.269171
584.000000	0.269409
585.000000	0.269569
586.000000	0.269860
587.000000	0.270152
588.000000	0.270279
589.000000	0.270409
590.000000	0.270558
591.000000	0.270724
592.000000	0.270884
593.000000	0.271046
594.000000	0.271199
595.000000	0.271313
596.000000	0.271351
597.000000	0.271397
598.000000	0.271483
599.000000	0.271537
600.000000	0.271562
601.000000	0.271517
602.000000	0.271539
603.000000	0.271570
604.000000	0.271590
605.000000	0.271624
606.000000	0.271619
607.000000	0.271589
608.000000	0.271595
609.000000	0.271594
610.000000	0.271595
611.000000	0.271615
612.000000	0.271618
613.000000	0.271605
614.000000	0.271607
615.000000	0.271580
616.000000	0.271592
617.000000	0.271611
618.000000	0.271593
619.000000	0.271563
620.000000	0.271525
621.000000	0.271532
622.000000	0.271535
623.000000	0.271586
624.000000	0.271695
625.000000	0.271655
626.000000	0.271677
627.000000	0.271811
628.000000	0.271827
629.000000	0.271903
630.000000	0.271958
631.000000	0.272043
632.000000	0.272045
633.000000	0.272069
634.000000	0.272206
635.000000	0.272285
636.000000	0.272283
637.000000	0.272232
638.000000	0.272323
639.000000	0.272475
640.000000	0.272655
641.000000	0.272706
642.000000	0.272793
643.000000	0.272908
644.000000	0.273006
645.000000	0.273189
646.000000	0.273369
647.000000	0.273473
648.000000	0.273632
649.000000	0.273815
650.000000	0.273985
651.000000	0.274146
652.000000	0.274284
653.000000	0.274473
654.000000	0.274744
655.000000	0.274958
656.000000	0.275156
657.000000	0.275358
658.000000	0.275644
659.000000	0.275925
660.000000	0.276152
661.000000	0.276407
662.000000	0.276628
663.000000	0.276856
664.000000	0.277099
665.000000	0.277398
666.000000	0.277733
667.000000	0.278043
668.000000	0.278363
669.000000	0.278680
670.000000	0.278994
671.000000	0.279301
672.000000	0.279661
673.000000	0.280069
674.000000	0.280485
675.000000	0.280812
676.000000	0.281109
677.000000	0.281492
678.000000	0.281900
679.000000	0.282295
680.000000	0.282669
681.000000	0.283048
682.000000	0.283492
683.000000	0.283920
684.000000	0.284316
685.000000	0.284730
686.000000	0.285173
687.000000	0.285592
688.000000	0.286038
689.000000	0.286485
690.000000	0.286950
691.000000	0.287452
692.000000	0.287937
693.000000	0.288432
694.000000	0.288887
695.000000	0.289400
696.000000	0.289946
697.000000	0.290462
698.000000	0.291014
699.000000	0.291583
700.000000	0.292143
701.000000	0.292668
702.000000	0.293177
703.000000	0.293673
704.000000	0.294203
705.000000	0.294767
706.000000	0.295321
707.000000	0.295889
708.000000	0.296464
709.000000	0.297053
710.000000	0.297666
711.000000	0.298214
712.000000	0.298782
713.000000	0.299391
714.000000	0.299905
715.000000	0.300421
716.000000	0.300961
717.000000	0.301492
718.000000	0.302023
719.000000	0.302541
720.000000	0.303053
721.000000	0.303569
722.000000	0.304107
723.000000	0.304713
724.000000	0.305299
725.000000	0.305772
726.000000	0.306274
727.000000	0.306872
728.000000	0.307405
729.000000	0.307874
730.000000	0.308283
731.000000	0.308800
732.000000	0.309299
733.000000	0.309764
734.000000	0.310194
735.000000	0.310631
736.000000	0.311144
737.000000	0.311564
738.000000	0.312002
739.000000	0.312499
740.000000	0.312898
741.000000	0.313302
742.000000	0.313698
743.000000	0.314050
744.000000	0.314386
745.000000	0.314754
746.000000	0.315157
747.000000	0.315487
748.000000	0.315857
749.000000	0.316238
750.000000	0.316564
751.000000	0.316880
752.000000	0.317145
753.000000	0.317390
754.000000	0.317680
755.000000	0.317939
756.000000	0.318221
757.000000	0.318550
758.000000	0.318912
759.000000	0.319292
760.000000	0.319596
761.000000	0.319857
762.000000	0.320021
763.000000	0.320129
764.000000	0.320361
765.000000	0.320581
766.000000	0.320815
767.000000	0.321084
768.000000	0.321283
769.000000	0.321402
770.000000	0.321478
771.000000	0.321595
772.000000	0.321766
773.000000	0.321918
774.000000	0.322078
775.000000	0.322263
776.000000	0.322431
777.000000	0.322538
778.000000	0.322620
779.000000	0.322690
780.000000	0.322759
781.000000	0.322806
782.000000	0.322890
783.000000	0.323072
784.000000	0.323211
785.000000	0.323303
786.000000	0.323401
787.000000	0.323524
788.000000	0.323655
789.000000	0.323694
790.000000	0.323672
791.000000	0.323743
792.000000	0.323842
793.000000	0.323916
794.000000	0.323954
795.000000	0.324039
796.000000	0.324109
797.000000	0.324147
798.000000	0.324196
799.000000	0.324232
800.000000	0.324245
801.000000	0.324242
802.000000	0.324293
803.000000	0.324410
804.000000	0.324583
805.000000	0.324644
806.000000	0.324608
807.000000	0.324574
808.000000	0.324532
809.000000	0.324474
810.000000	0.324465
811.000000	0.324512
812.000000	0.324468
813.000000	0.324461
814.000000	0.324495
815.000000	0.324491
816.000000	0.324526
817.000000	0.324596
818.000000	0.324595
819.000000	0.324608
820.000000	0.324578
821.000000	0.324460
822.000000	0.324394
823.000000	0.324361
824.000000	0.324337
825.000000	0.324402
826.000000	0.324399
827.000000	0.324267
828.000000	0.324097
829.000000	0.324130
830.000000	0.324155
831.000000	0.324192
832.000000	0.324196
833.000000	0.324134
834.000000	0.324067
835.000000	0.324057
836.000000	0.323970
837.000000	0.323865
838.000000	0.323807
839.000000	0.323811
840.000000	0.323805
841.000000	0.323756
842.000000	0.323622
843.000000	0.323466
844.000000	0.323421
845.000000	0.323428
846.000000	0.323305
847.000000	0.323218
848.000000	0.323160
849.000000	0.323116
850.000000	0.323026
851.000000	0.322901
852.000000	0.322814
853.000000	0.322811
854.000000	0.322652
855.000000	0.322544
856.000000	0.322573
857.000000	0.322462
858.000000	0.322356
859.000000	0.322266
860.000000	0.322203
861.000000	0.321993
862.000000	0.321781
863.000000	0.321720
864.000000	0.321741
865.000000	0.321696
866.000000	0.321577
867.000000	0.321570
868.000000	0.321473
869.000000	0.321276
870.000000	0.321165
871.000000	0.321091
872.000000	0.320979
873.000000	0.320761
874.000000	0.320611
875.000000	0.320386
876.000000	0.320145
877.000000	0.319952
878.000000	0.319812
879.000000	0.319666
880.000000	0.319386
881.000000	0.319264
882.000000	0.319077
883.000000	0.318899
884.000000	0.318824
885.000000	0.318741
886.000000	0.318569
887.000000	0.318328
888.000000	0.318113
889.000000	0.317997
890.000000	0.317840
891.000000	0.317656
892.000000	0.317394
893.000000	0.317124
894.000000	0.317002
895.000000	0.316906
896.000000	0.316753
897.000000	0.316573
898.000000	0.316414
899.000000	0.316128
900.000000	0.315864
901.000000	0.315711
902.000000	0.315796
903.000000	0.315686
904.000000	0.315446
905.000000	0.315171
906.000000	0.314973
907.000000	0.314743
908.000000	0.314524
909.000000	0.314337
910.000000	0.314015
911.000000	0.313750
912.000000	0.313692
913.000000	0.313426
914.000000	0.313210
915.000000	0.313084
916.000000	0.312765
917.000000	0.312541
918.000000	0.312456
919.000000	0.312406
920.000000	0.312103
921.000000	0.311743
922.000000	0.311490
923.000000	0.311417
924.000000	0.311164
925.000000	0.310945
926.000000	0.310813
927.000000	0.310303
928.000000	0.309967
929.000000	0.309771
930.000000	0.309524
931.000000	0.309362
932.000000	0.309216
933.000000	0.309059
934.000000	0.308820
935.000000	0.308516
936.000000	0.308282
937.000000	0.308074
938.000000	0.307645
939.000000	0.307575
940.000000	0.307611
941.000000	0.307214
942.000000	0.306864
943.000000	0.306587
944.000000	0.306264
945.000000	0.306072
946.000000	0.305704
947.000000	0.305422
948.000000	0.305442
949.000000	0.305184
950.000000	0.304925
951.000000	0.304684
952.000000	0.304344
953.000000	0.304257
954.000000	0.304184
955.000000	0.303855
956.000000	0.303485
957.000000	0.303406
958.000000	0.303341
959.000000	0.302970
960.000000	0.302705
961.000000	0.302402
962.000000	0.302023
963.000000	0.301769
964.000000	0.301726
965.000000	0.301723
966.000000	0.301474
967.000000	0.301048
968.000000	0.300827
969.000000	0.300659
970.000000	0.300314
971.000000	0.300067
972.000000	0.299953
973.000000	0.299837
974.000000	0.299605
975.000000	0.299407
976.000000	0.299148
977.000000	0.298805
978.000000	0.298731
979.000000	0.298678
980.000000	0.298360
981.000000	0.298038
982.000000	0.298018
983.000000	0.297755
984.000000	0.297366
985.000000	0.297509
986.000000	0.297340
987.000000	0.297144
988.000000	0.297026
989.000000	0.296586
990.000000	0.296581
991.000000	0.296625
992.000000	0.296204
993.000000	0.295984
994.000000	0.295910
995.000000	0.296028
996.000000	0.296047
997.000000	0.295691
998.000000	0.295766
999.000000	0.296243
1000.000000	0.295472
1001.000000	0.296465
1002.000000	0.295916
1003.000000	0.295099
1004.000000	0.294937
1005.000000	0.295150
1006.000000	0.295075
1007.000000	0.295328
1008.000000	0.295563
1009.000000	0.295340
1010.000000	0.294636
1011.000000	0.294630
1012.000000	0.295107
1013.000000	0.294971
1014.000000	0.294648
1015.000000	0.293872
1016.000000	0.292845
1017.000000	0.292419
1018.000000	0.292521
1019.000000	0.292613
1020.000000	0.293563
1021.000000	0.293701
1022.000000	0.293669
1023.000000	0.293541
1024.000000	0.292873
1025.000000	0.292757
1026.000000	0.292850
1027.000000	0.293192
1028.000000	0.293797
1029.000000	0.293874
1030.000000	0.293478
1031.000000	0.292968
1032.000000	0.293072
1033.000000	0.293379
1034.000000	0.293482
1035.000000	0.293736
1036.000000	0.294056
1037.000000	0.294210
1038.000000	0.294219
1039.000000	0.294466
1040.000000	0.294720
1041.000000	0.294084
1042.000000	0.293903
1043.000000	0.294452
1044.000000	0.294582
1045.000000	0.294652
1046.000000	0.294836
1047.000000	0.295022
1048.000000	0.294762
1049.000000	0.294822
1050.000000	0.295418
1051.000000	0.295566
1052.000000	0.295279
1053.000000	0.295376
1054.000000	0.295749
1055.000000	0.295953
1056.000000	0.296348
1057.000000	0.296599
1058.000000	0.296392
1059.000000	0.296473
1060.000000	0.297011
1061.000000	0.297284
1062.000000	0.297454
1063.000000	0.297864
1064.000000	0.298021
1065.000000	0.297858
1066.000000	0.297826
1067.000000	0.297641
1068.000000	0.297593
1069.000000	0.297368
1070.000000	0.297529
1071.000000	0.298161
1072.000000	0.298629
1073.000000	0.299318
1074.000000	0.299929
1075.000000	0.300070
1076.000000	0.300374
1077.000000	0.301067
1078.000000	0.301104
1079.000000	0.301029
1080.000000	0.300857
1081.000000	0.300868
1082.000000	0.300559
1083.000000	0.300559
1084.000000	0.300940
1085.000000	0.301191
1086.000000	0.301389
1087.000000	0.301606
1088.000000	0.302031
1089.000000	0.302190
1090.000000	0.301916
1091.000000	0.301886
1092.000000	0.302172
1093.000000	0.302243
1094.000000	0.302483
1095.000000	0.302869
1096.000000	0.303250
1097.000000	0.303669
1098.000000	0.303987
1099.000000	0.304396
1100.000000	0.304645
1101.000000	0.304472
1102.000000	0.304686
1103.000000	0.304955
1104.000000	0.305365
1105.000000	0.306309
1106.000000	0.306729
1107.000000	0.306866
1108.000000	0.306997
1109.000000	0.306981
1110.000000	0.306759
1111.000000	0.306708
1112.000000	0.306653
1113.000000	0.306862
1114.000000	0.307240
1115.000000	0.307455
1116.000000	0.307920
1117.000000	0.308078
1118.000000	0.307844
1119.000000	0.307851
1120.000000	0.307841
1121.000000	0.307965
1122.000000	0.308402
1123.000000	0.308795
1124.000000	0.309041
1125.000000	0.309264
1126.000000	0.309305
1127.000000	0.309350
1128.000000	0.309375
1129.000000	0.309351
1130.000000	0.309548
1131.000000	0.309888
1132.000000	0.310032
1133.000000	0.310330
1134.000000	0.310473
1135.000000	0.310279
1136.000000	0.310343
1137.000000	0.310661
1138.000000	0.310625
1139.000000	0.310487
1140.000000	0.310538
1141.000000	0.310298
1142.000000	0.310341
1143.000000	0.310686
1144.000000	0.310996
1145.000000	0.311079
1146.000000	0.311420
1147.000000	0.311457
1148.000000	0.311198
1149.000000	0.311259
1150.000000	0.311377
1151.000000	0.311450
1152.000000	0.311675
1153.000000	0.311725
1154.000000	0.311505
1155.000000	0.311449
1156.000000	0.311355
1157.000000	0.311426
1158.000000	0.311691
1159.000000	0.311766
1160.000000	0.311832
1161.000000	0.311867
1162.000000	0.311876
1163.000000	0.311885
1164.000000	0.311783
1165.000000	0.311756
1166.000000	0.311737
1167.000000	0.311588
1168.000000	0.311524
1169.000000	0.311610
1170.000000	0.311587
1171.000000	0.311488
1172.000000	0.311561
1173.000000	0.311688
1174.000000	0.311777
1175.000000	0.311961
1176.000000	0.312002
1177.000000	0.311968
1178.000000	0.312000
1179.000000	0.312047
1180.000000	0.311991
1181.000000	0.311937
1182.000000	0.311957
1183.000000	0.312075
1184.000000	0.312230
1185.000000	0.312283
1186.000000	0.312407
1187.000000	0.312420
1188.000000	0.312261
1189.000000	0.312216
1190.000000	0.312329
1191.000000	0.312277
1192.000000	0.312167
1193.000000	0.312261
1194.000000	0.312285
1195.000000	0.312305
1196.000000	0.312376
1197.000000	0.312439
1198.000000	0.312474
1199.000000	0.312503
1200.000000	0.312563
1201.000000	0.312605
1202.000000	0.312615
1203.000000	0.312642
1204.000000	0.312573
1205.000000	0.312461
1206.000000	0.312352
1207.000000	0.312220
1208.000000	0.312134
1209.000000	0.312175
1210.000000	0.312199
1211.000000	0.312252
1212.000000	0.312199
1213.000000	0.312117
1214.000000	0.312123
1215.000000	0.312084
1216.000000	0.312099
1217.000000	0.312258
1218.000000	0.312281
1219.000000	0.312299
1220.000000	0.312174
1221.000000	0.312088
1222.000000	0.312055
1223.000000	0.312067
1224.000000	0.312166
1225.000000	0.312253
1226.000000	0.312307
1227.000000	0.312329
1228.000000	0.312333
1229.000000	0.312321
1230.000000	0.312201
1231.000000	0.312241
1232.000000	0.312557
1233.000000	0.312748
1234.000000	0.312965
1235.000000	0.313081
1236.000000	0.312924
1237.000000	0.312941
1238.000000	0.313037
1239.000000	0.313081
1240.000000	0.313170
1241.000000	0.313130
1242.000000	0.313036
1243.000000	0.312906
1244.000000	0.312871
1245.000000	0.312945
1246.000000	0.313010
1247.000000	0.313130
1248.000000	0.313188
1249.000000	0.313214
1250.000000	0.313242
1251.000000	0.313209
1252.000000	0.313205
1253.000000	0.313235
1254.000000	0.313216
1255.000000	0.313161
1256.000000	0.313144
1257.000000	0.313206
1258.000000	0.313195
1259.000000	0.313079
1260.000000	0.313059
1261.000000	0.312899
1262.000000	0.312799
1263.000000	0.312769
1264.000000	0.312805
1265.000000	0.312857
1266.000000	0.312965
1267.000000	0.313022
1268.000000	0.312978
1269.000000	0.312914
1270.000000	0.312898
1271.000000	0.312722
1272.000000	0.312762
1273.000000	0.312922
1274.000000	0.312889
1275.000000	0.312883
1276.000000	0.312958
1277.000000	0.313094
1278.000000	0.313084
1279.000000	0.313117
1280.000000	0.313254
1281.000000	0.313175
1282.000000	0.312996
1283.000000	0.313009
1284.000000	0.312928
1285.000000	0.312923
1286.000000	0.313039
1287.000000	0.312983
1288.000000	0.313062
1289.000000	0.313090
1290.000000	0.313006
1291.000000	0.313038
1292.000000	0.312957
1293.000000	0.312944
1294.000000	0.313110
1295.000000	0.313268
1296.000000	0.313349
1297.000000	0.313394
1298.000000	0.313455
1299.000000	0.313369
1300.000000	0.313418
1301.000000	0.313484
1302.000000	0.313312
1303.000000	0.313066
1304.000000	0.312904
1305.000000	0.312639
1306.000000	0.312557
1307.000000	0.312741
1308.000000	0.312786
1309.000000	0.312847
1310.000000	0.312872
1311.000000	0.312876
1312.000000	0.312824
1313.000000	0.312864
1314.000000	0.312868
1315.000000	0.312777
1316.000000	0.312782
1317.000000	0.312686
1318.000000	0.312548
1319.000000	0.312431
1320.000000	0.312322
1321.000000	0.312304
1322.000000	0.312231
1323.000000	0.312093
1324.000000	0.311985
1325.000000	0.311885
1326.000000	0.311748
1327.000000	0.311653
1328.000000	0.311696
1329.000000	0.311589
1330.000000	0.311388
1331.000000	0.311324
1332.000000	0.311327
1333.000000	0.311270
1334.000000	0.311335
1335.000000	0.311330
1336.000000	0.311249
1337.000000	0.311166
1338.000000	0.311026
1339.000000	0.310893
1340.000000	0.310741
1341.000000	0.310592
1342.000000	0.310554
1343.000000	0.310520
1344.000000	0.310498
1345.000000	0.310535
1346.000000	0.310526
1347.000000	0.310367
1348.000000	0.310198
1349.000000	0.309858
1350.000000	0.309671
1351.000000	0.309633
1352.000000	0.309617
1353.000000	0.309666
1354.000000	0.309595
1355.000000	0.309341
1356.000000	0.309091
1357.000000	0.308848
1358.000000	0.308671
1359.000000	0.308478
1360.000000	0.308343
1361.000000	0.308346
1362.000000	0.308200
1363.000000	0.307966
1364.000000	0.307915
1365.000000	0.307832
1366.000000	0.307753
1367.000000	0.307836
1368.000000	0.307714
1369.000000	0.307443
1370.000000	0.307226
1371.000000	0.307098
1372.000000	0.306960
1373.000000	0.306873
1374.000000	0.306772
1375.000000	0.306440
1376.000000	0.306201
1377.000000	0.306101
1378.000000	0.305964
1379.000000	0.305694
1380.000000	0.305452
1381.000000	0.305225
1382.000000	0.304961
1383.000000	0.304756
1384.000000	0.304418
1385.000000	0.304077
1386.000000	0.303877
1387.000000	0.303732
1388.000000	0.303579
1389.000000	0.303274
1390.000000	0.302925
1391.000000	0.302561
1392.000000	0.302073
1393.000000	0.301536
1394.000000	0.300992
1395.000000	0.300404
1396.000000	0.299759
1397.000000	0.299097
1398.000000	0.298330
1399.000000	0.297642
1400.000000	0.296935
1401.000000	0.296159
1402.000000	0.295447
1403.000000	0.294722
1404.000000	0.293907
1405.000000	0.293127
1406.000000	0.292383
1407.000000	0.291678
1408.000000	0.290965
1409.000000	0.290302
1410.000000	0.289648
1411.000000	0.288934
1412.000000	0.288232
1413.000000	0.287559
1414.000000	0.286914
1415.000000	0.286292
1416.000000	0.285652
1417.000000	0.284982
1418.000000	0.284249
1419.000000	0.283597
1420.000000	0.282851
1421.000000	0.282154
1422.000000	0.281576
1423.000000	0.280934
1424.000000	0.280177
1425.000000	0.279562
1426.000000	0.278866
1427.000000	0.278214
1428.000000	0.277683
1429.000000	0.277071
1430.000000	0.276486
1431.000000	0.275883
1432.000000	0.275285
1433.000000	0.274758
1434.000000	0.274179
1435.000000	0.273580
1436.000000	0.273103
1437.000000	0.272714
1438.000000	0.272176
1439.000000	0.271667
1440.000000	0.271267
1441.000000	0.270726
1442.000000	0.270386
1443.000000	0.270247
1444.000000	0.270019
1445.000000	0.269608
1446.000000	0.269356
1447.000000	0.269110
1448.000000	0.268869
1449.000000	0.268674
1450.000000	0.268557
1451.000000	0.268474
1452.000000	0.268282
1453.000000	0.268229
1454.000000	0.268099
1455.000000	0.267852
1456.000000	0.267690
1457.000000	0.267448
1458.000000	0.267321
1459.000000	0.267247
1460.000000	0.267118
1461.000000	0.267069
1462.000000	0.266971
1463.000000	0.266801
1464.000000	0.266707
1465.000000	0.266634
1466.000000	0.266548
1467.000000	0.266485
1468.000000	0.266442
1469.000000	0.266484
1470.000000	0.266362
1471.000000	0.266349
1472.000000	0.266468
1473.000000	0.266459
1474.000000	0.266554
1475.000000	0.266809
1476.000000	0.266948
1477.000000	0.267113
1478.000000	0.267374
1479.000000	0.267535
1480.000000	0.267680
1481.000000	0.267941
1482.000000	0.268411
1483.000000	0.268717
1484.000000	0.269038
1485.000000	0.269291
1486.000000	0.269356
1487.000000	0.269579
1488.000000	0.269888
1489.000000	0.270236
1490.000000	0.270575
1491.000000	0.270843
1492.000000	0.271064
1493.000000	0.271278
1494.000000	0.271402
1495.000000	0.271627
1496.000000	0.271875
1497.000000	0.272114
1498.000000	0.272409
1499.000000	0.272662
1500.000000	0.272865
1501.000000	0.273102
1502.000000	0.273357
1503.000000	0.273596
1504.000000	0.273853
1505.000000	0.274134
1506.000000	0.274402
1507.000000	0.274587
1508.000000	0.274740
1509.000000	0.274880
1510.000000	0.275012
1511.000000	0.275177
1512.000000	0.275255
1513.000000	0.275421
1514.000000	0.275647
1515.000000	0.275703
1516.000000	0.275911
1517.000000	0.276126
1518.000000	0.276265
1519.000000	0.276384
1520.000000	0.276449
1521.000000	0.276446
1522.000000	0.276506
1523.000000	0.276687
1524.000000	0.276785
1525.000000	0.276849
1526.000000	0.276880
1527.000000	0.276938
1528.000000	0.277026
1529.000000	0.277148
1530.000000	0.277178
1531.000000	0.277078
1532.000000	0.277177
1533.000000	0.277345
1534.000000	0.277470
1535.000000	0.277655
1536.000000	0.277695
1537.000000	0.277749
1538.000000	0.277857
1539.000000	0.277943
1540.000000	0.278105
1541.000000	0.278263
1542.000000	0.278378
1543.000000	0.278560
1544.000000	0.278718
1545.000000	0.278764
1546.000000	0.278734
1547.000000	0.278692
1548.000000	0.278582
1549.000000	0.278484
1550.000000	0.278543
1551.000000	0.278534
1552.000000	0.278519
1553.000000	0.278625
1554.000000	0.278608
1555.000000	0.278559
1556.000000	0.278642
1557.000000	0.278658
1558.000000	0.278697
1559.000000	0.278768
1560.000000	0.278773
1561.000000	0.278738
1562.000000	0.278694
1563.000000	0.278659
1564.000000	0.278636
1565.000000	0.278584
1566.000000	0.278515
1567.000000	0.278531
1568.000000	0.278531
1569.000000	0.278621
1570.000000	0.278633
1571.000000	0.278644
1572.000000	0.278600
1573.000000	0.278459
1574.000000	0.278360
1575.000000	0.278277
1576.000000	0.278191
1577.000000	0.278061
1578.000000	0.278019
1579.000000	0.278089
1580.000000	0.278052
1581.000000	0.278091
1582.000000	0.278078
1583.000000	0.277952
1584.000000	0.277866
1585.000000	0.277878
1586.000000	0.277931
1587.000000	0.277965
1588.000000	0.278035
1589.000000	0.278236
1590.000000	0.278318
1591.000000	0.278391
1592.000000	0.278434
1593.000000	0.278393
1594.000000	0.278380
1595.000000	0.278409
1596.000000	0.278440
1597.000000	0.278521
1598.000000	0.278590
1599.000000	0.278674
1600.000000	0.278703
1601.000000	0.278831
1602.000000	0.278877
1603.000000	0.278804
1604.000000	0.278848
1605.000000	0.278982
1606.000000	0.279010
1607.000000	0.279110
1608.000000	0.279188
1609.000000	0.279204
1610.000000	0.279223
1611.000000	0.279256
1612.000000	0.279345
1613.000000	0.279598
1614.000000	0.279692
1615.000000	0.279867
1616.000000	0.279904
1617.000000	0.279637
1618.000000	0.279563
1619.000000	0.279498
1620.000000	0.279510
1621.000000	0.279689
1622.000000	0.279809
1623.000000	0.279891
1624.000000	0.279999
1625.000000	0.279999
1626.000000	0.279986
1627.000000	0.280032
1628.000000	0.280033
1629.000000	0.279898
1630.000000	0.279951
1631.000000	0.280028
1632.000000	0.280053
1633.000000	0.280187
1634.000000	0.280255
1635.000000	0.280260
1636.000000	0.280350
1637.000000	0.280496
1638.000000	0.280628
1639.000000	0.280860
1640.000000	0.280934
1641.000000	0.280969
1642.000000	0.281101
1643.000000	0.281191
1644.000000	0.281398
1645.000000	0.281838
1646.000000	0.281967
1647.000000	0.281979
1648.000000	0.282044
1649.000000	0.282039
1650.000000	0.282162
1651.000000	0.282457
1652.000000	0.282667
1653.000000	0.282841
1654.000000	0.283011
1655.000000	0.283078
1656.000000	0.283136
1657.000000	0.283227
1658.000000	0.283331
1659.000000	0.283585
1660.000000	0.283720
1661.000000	0.283717
1662.000000	0.283841
1663.000000	0.283911
1664.000000	0.284057
1665.000000	0.284326
1666.000000	0.284556
1667.000000	0.284677
1668.000000	0.284853
1669.000000	0.285059
1670.000000	0.285160
1671.000000	0.285302
1672.000000	0.285491
1673.000000	0.285641
1674.000000	0.285813
1675.000000	0.286045
1676.000000	0.286129
1677.000000	0.286091
1678.000000	0.286055
1679.000000	0.286091
1680.000000	0.286216
1681.000000	0.286332
1682.000000	0.286451
1683.000000	0.286451
1684.000000	0.286491
1685.000000	0.286605
1686.000000	0.286649
1687.000000	0.286822
1688.000000	0.286838
1689.000000	0.286733
1690.000000	0.286632
1691.000000	0.286661
1692.000000	0.286737
1693.000000	0.286822
1694.000000	0.286958
1695.000000	0.287050
1696.000000	0.286987
1697.000000	0.286913
1698.000000	0.286775
1699.000000	0.286772
1700.000000	0.286864
1701.000000	0.286998
1702.000000	0.287083
1703.000000	0.287117
1704.000000	0.287159
1705.000000	0.287228
1706.000000	0.287377
1707.000000	0.287485
1708.000000	0.287585
1709.000000	0.287577
1710.000000	0.287550
1711.000000	0.287574
1712.000000	0.287594
1713.000000	0.287632
1714.000000	0.287765
1715.000000	0.287834
1716.000000	0.287866
1717.000000	0.287917
1718.000000	0.287895
1719.000000	0.287974
1720.000000	0.288246
1721.000000	0.288330
1722.000000	0.288358
1723.000000	0.288407
1724.000000	0.288298
1725.000000	0.288413
1726.000000	0.288684
1727.000000	0.288779
1728.000000	0.288824
1729.000000	0.288808
1730.000000	0.288741
1731.000000	0.288791
1732.000000	0.288975
1733.000000	0.289021
1734.000000	0.288837
1735.000000	0.288905
1736.000000	0.288983
1737.000000	0.289052
1738.000000	0.289309
1739.000000	0.289431
1740.000000	0.289410
1741.000000	0.289419
1742.000000	0.289476
1743.000000	0.289541
1744.000000	0.289491
1745.000000	0.289622
1746.000000	0.289901
1747.000000	0.289937
1748.000000	0.289988
1749.000000	0.289983
1750.000000	0.289919
1751.000000	0.289971
1752.000000	0.290103
1753.000000	0.289937
1754.000000	0.290036
1755.000000	0.290517
1756.000000	0.290636
1757.000000	0.290665
1758.000000	0.290704
1759.000000	0.290401
1760.000000	0.290307
1761.000000	0.290290
1762.000000	0.290389
1763.000000	0.290674
1764.000000	0.290837
1765.000000	0.291090
1766.000000	0.291228
1767.000000	0.291114
1768.000000	0.291058
1769.000000	0.291056
1770.000000	0.291145
1771.000000	0.291236
1772.000000	0.291305
1773.000000	0.291348
1774.000000	0.291471
1775.000000	0.291724
1776.000000	0.291804
1777.000000	0.291845
1778.000000	0.291885
1779.000000	0.291736
1780.000000	0.291753
1781.000000	0.291907
1782.000000	0.291918
1783.000000	0.291874
1784.000000	0.292072
1785.000000	0.292046
1786.000000	0.291949
1787.000000	0.292086
1788.000000	0.292054
1789.000000	0.291986
1790.000000	0.292139
1791.000000	0.292207
1792.000000	0.292388
1793.000000	0.292473
1794.000000	0.292564
1795.000000	0.292564
1796.000000	0.292325
1797.000000	0.292295
1798.000000	0.292260
1799.000000	0.292340
1800.000000	0.292680
1801.000000	0.292547
1802.000000	0.292534
1803.000000	0.292199
1804.000000	0.292252
1805.000000	0.292617
1806.000000	0.293133
1807.000000	0.293900
1808.000000	0.294400
1809.000000	0.295399
1810.000000	0.295546
1811.000000	0.295706
1812.000000	0.295502
1813.000000	0.295529
1814.000000	0.295407
1815.000000	0.295383
1816.000000	0.295544
1817.000000	0.295348
1818.000000	0.294494
1819.000000	0.294953
1820.000000	0.294993
1821.000000	0.294802
1822.000000	0.294995
1823.000000	0.295655
1824.000000	0.295510
1825.000000	0.294880
1826.000000	0.294862
1827.000000	0.294484
1828.000000	0.294559
1829.000000	0.294970
1830.000000	0.294952
1831.000000	0.294769
1832.000000	0.293791
1833.000000	0.293801
1834.000000	0.294405
1835.000000	0.294336
1836.000000	0.294285
1837.000000	0.294303
1838.000000	0.293658
1839.000000	0.293556
1840.000000	0.293701
1841.000000	0.293523
1842.000000	0.293450
1843.000000	0.293145
1844.000000	0.293072
1845.000000	0.293327
1846.000000	0.293000
1847.000000	0.292006
1848.000000	0.291726
1849.000000	0.290710
1850.000000	0.290235
1851.000000	0.290115
1852.000000	0.290538
1853.000000	0.290170
1854.000000	0.289593
1855.000000	0.289213
1856.000000	0.288367
1857.000000	0.287785
1858.000000	0.287635
1859.000000	0.287473
1860.000000	0.287386
1861.000000	0.287023
1862.000000	0.286409
1863.000000	0.285761
1864.000000	0.284760
1865.000000	0.283190
1866.000000	0.282217
1867.000000	0.281275
1868.000000	0.280456
1869.000000	0.280096
1870.000000	0.278851
1871.000000	0.277437
1872.000000	0.276572
1873.000000	0.275571
1874.000000	0.274498
1875.000000	0.273366
1876.000000	0.272048
1877.000000	0.270713
1878.000000	0.268953
1879.000000	0.267846
1880.000000	0.266587
1881.000000	0.264431
1882.000000	0.262905
1883.000000	0.260530
1884.000000	0.258005
1885.000000	0.254798
1886.000000	0.252348
1887.000000	0.249741
1888.000000	0.247226
1889.000000	0.245250
1890.000000	0.243624
1891.000000	0.241468
1892.000000	0.238949
1893.000000	0.236917
1894.000000	0.234390
1895.000000	0.231493
1896.000000	0.228245
1897.000000	0.225312
1898.000000	0.222331
1899.000000	0.219677
1900.000000	0.217181
1901.000000	0.214953
1902.000000	0.212850
1903.000000	0.210569
1904.000000	0.208756
1905.000000	0.206944
1906.000000	0.204762
1907.000000	0.202194
1908.000000	0.199847
1909.000000	0.197807
1910.000000	0.196512
1911.000000	0.195255
1912.000000	0.193423
1913.000000	0.191540
1914.000000	0.188927
1915.000000	0.186768
1916.000000	0.185532
1917.000000	0.184242
1918.000000	0.183327
1919.000000	0.182868
1920.000000	0.182003
1921.000000	0.180991
1922.000000	0.180455
1923.000000	0.179100
1924.000000	0.177693
1925.000000	0.177227
1926.000000	0.176603
1927.000000	0.176520
1928.000000	0.176605
1929.000000	0.177446
1930.000000	0.177519
1931.000000	0.177245
1932.000000	0.177109
1933.000000	0.176806
1934.000000	0.176765
1935.000000	0.176783
1936.000000	0.176443
1937.000000	0.176197
1938.000000	0.175713
1939.000000	0.175441
1940.000000	0.175238
1941.000000	0.175415
1942.000000	0.175811
1943.000000	0.176060
1944.000000	0.175734
1945.000000	0.175576
1946.000000	0.175207
1947.000000	0.174836
1948.000000	0.174841
1949.000000	0.174753
1950.000000	0.174697
1951.000000	0.174239
1952.000000	0.173357
1953.000000	0.172690
1954.000000	0.172455
1955.000000	0.171555
1956.000000	0.171089
1957.000000	0.170803
1958.000000	0.169931
1959.000000	0.169540
1960.000000	0.169631
1961.000000	0.169500
1962.000000	0.169361
1963.000000	0.169428
1964.000000	0.169300
1965.000000	0.168972
1966.000000	0.169026
1967.000000	0.168864
1968.000000	0.168704
1969.000000	0.168237
1970.000000	0.167581
1971.000000	0.167728
1972.000000	0.168278
1973.000000	0.168587
1974.000000	0.169467
1975.000000	0.170049
1976.000000	0.170350
1977.000000	0.170586
1978.000000	0.171083
1979.000000	0.171293
1980.000000	0.171622
1981.000000	0.171673
1982.000000	0.171945
1983.000000	0.172614
1984.000000	0.172790
1985.000000	0.172622
1986.000000	0.172970
1987.000000	0.173412
1988.000000	0.173634
1989.000000	0.174442
1990.000000	0.175070
1991.000000	0.174755
1992.000000	0.174810
1993.000000	0.175289
1994.000000	0.175098
1995.000000	0.175875
1996.000000	0.176889
1997.000000	0.177576
1998.000000	0.178306
1999.000000	0.179249
2000.000000	0.180129
2001.000000	0.180816
2002.000000	0.182291
2003.000000	0.183505
2004.000000	0.184285
2005.000000	0.184217
2006.000000	0.183798
2007.000000	0.183687
2008.000000	0.184146
2009.000000	0.185202
2010.000000	0.186339
2011.000000	0.188032
2012.000000	0.189111
2013.000000	0.189893
2014.000000	0.190811
2015.000000	0.191817
2016.000000	0.192308
2017.000000	0.192879
2018.000000	0.193080
2019.000000	0.192890
2020.000000	0.193313
2021.000000	0.193960
2022.000000	0.194936
2023.000000	0.195895
2024.000000	0.197404
2025.000000	0.198420
2026.000000	0.199282
2027.000000	0.199805
2028.000000	0.200187
2029.000000	0.200333
2030.000000	0.200427
2031.000000	0.201300
2032.000000	0.202239
2033.000000	0.202530
2034.000000	0.203099
2035.000000	0.203831
2036.000000	0.204235
2037.000000	0.204676
2038.000000	0.205234
2039.000000	0.205814
2040.000000	0.206042
2041.000000	0.206850
2042.000000	0.207484
2043.000000	0.207889
2044.000000	0.208313
2045.000000	0.208329
2046.000000	0.208759
2047.000000	0.209500
2048.000000	0.210576
2049.000000	0.211739
2050.000000	0.213283
2051.000000	0.214176
2052.000000	0.214832
2053.000000	0.215127
2054.000000	0.215113
2055.000000	0.215083
2056.000000	0.214925
2057.000000	0.215243
2058.000000	0.215539
2059.000000	0.216138
2060.000000	0.216464
2061.000000	0.216639
2062.000000	0.216847
2063.000000	0.216842
2064.000000	0.217158
2065.000000	0.218011
2066.000000	0.218682
2067.000000	0.219825
2068.000000	0.220489
2069.000000	0.221101
2070.000000	0.221528
2071.000000	0.221799
2072.000000	0.222394
2073.000000	0.223478
2074.000000	0.224520
2075.000000	0.225239
2076.000000	0.225914
2077.000000	0.226767
2078.000000	0.227559
2079.000000	0.227959
2080.000000	0.228508
2081.000000	0.228908
2082.000000	0.228714
2083.000000	0.228554
2084.000000	0.229385
2085.000000	0.229969
2086.000000	0.230860
2087.000000	0.232048
2088.000000	0.232716
2089.000000	0.233534
2090.000000	0.233965
2091.000000	0.233734
2092.000000	0.233959
2093.000000	0.234452
2094.000000	0.234724
2095.000000	0.235038
2096.000000	0.235606
2097.000000	0.236273
2098.000000	0.236276
2099.000000	0.236897
2100.000000	0.237644
2101.000000	0.238546
2102.000000	0.238829
2103.000000	0.239090
2104.000000	0.239237
2105.000000	0.239487
2106.000000	0.239729
2107.000000	0.239941
2108.000000	0.240057
2109.000000	0.240459
2110.000000	0.240804
2111.000000	0.240989
2112.000000	0.241176
2113.000000	0.241380
2114.000000	0.241584
2115.000000	0.241997
2116.000000	0.242846
2117.000000	0.242939
2118.000000	0.243060
2119.000000	0.243084
2120.000000	0.243292
2121.000000	0.243778
2122.000000	0.244042
2123.000000	0.244114
2124.000000	0.244448
2125.000000	0.244831
2126.000000	0.245162
2127.000000	0.245808
2128.000000	0.246204
2129.000000	0.246326
2130.000000	0.246486
2131.000000	0.246042
2132.000000	0.245430
2133.000000	0.245675
2134.000000	0.246131
2135.000000	0.247337
2136.000000	0.249141
2137.000000	0.249818
2138.000000	0.249992
2139.000000	0.250070
2140.000000	0.249139
2141.000000	0.249021
2142.000000	0.249197
2143.000000	0.248918
2144.000000	0.248837
2145.000000	0.248986
2146.000000	0.248928
2147.000000	0.249591
2148.000000	0.250236
2149.000000	0.250852
2150.000000	0.250709
2151.000000	0.250350
2152.000000	0.250268
2153.000000	0.249817
2154.000000	0.249500
2155.000000	0.248824
2156.000000	0.249273
2157.000000	0.250478
2158.000000	0.251240
2159.000000	0.253637
2160.000000	0.254219
2161.000000	0.252778
2162.000000	0.252448
2163.000000	0.251762
2164.000000	0.251093
2165.000000	0.250536
2166.000000	0.250637
2167.000000	0.250627
2168.000000	0.251418
2169.000000	0.252642
2170.000000	0.253426
2171.000000	0.253466
2172.000000	0.252541
2173.000000	0.252152
2174.000000	0.251329
2175.000000	0.251018
2176.000000	0.251168
2177.000000	0.251104
2178.000000	0.251293
2179.000000	0.251260
2180.000000	0.251034
2181.000000	0.251084
2182.000000	0.250825
2183.000000	0.249769
2184.000000	0.250666
2185.000000	0.250498
2186.000000	0.250313
2187.000000	0.251553
2188.000000	0.250773
2189.000000	0.250931
2190.000000	0.251087
2191.000000	0.250509
2192.000000	0.249911
2193.000000	0.248881
2194.000000	0.247955
2195.000000	0.246772
2196.000000	0.246143
2197.000000	0.245355
2198.000000	0.245574
2199.000000	0.246955
2200.000000	0.248015
2201.000000	0.250666
2202.000000	0.252057
2203.000000	0.252832
2204.000000	0.252282
2205.000000	0.251795
2206.000000	0.250225
2207.000000	0.249668
2208.000000	0.251386
2209.000000	0.253246
2210.000000	0.254795
2211.000000	0.254860
2212.000000	0.254612
2213.000000	0.254417
2214.000000	0.253205
2215.000000	0.252922
2216.000000	0.253249
2217.000000	0.253035
2218.000000	0.252425
2219.000000	0.252482
2220.000000	0.253720
2221.000000	0.253481
2222.000000	0.253050
2223.000000	0.251611
2224.000000	0.248018
2225.000000	0.246329
2226.000000	0.243859
2227.000000	0.241691
2228.000000	0.244594
2229.000000	0.244812
2230.000000	0.247364
2231.000000	0.252550
2232.000000	0.253754
2233.000000	0.255813
2234.000000	0.255846
2235.000000	0.253841
2236.000000	0.252922
2237.000000	0.250733
2238.000000	0.250764
2239.000000	0.253161
2240.000000	0.253341
2241.000000	0.253448
2242.000000	0.253104
2243.000000	0.250564
2244.000000	0.249569
2245.000000	0.249435
2246.000000	0.249830
2247.000000	0.250893
2248.000000	0.251811
2249.000000	0.254023
2250.000000	0.254818
2251.000000	0.254131
2252.000000	0.252662
2253.000000	0.249454
2254.000000	0.247500
2255.000000	0.246443
2256.000000	0.247604
2257.000000	0.249881
2258.000000	0.250191
2259.000000	0.252071
2260.000000	0.250538
2261.000000	0.249522
2262.000000	0.248159
2263.000000	0.247585
2264.000000	0.246979
2265.000000	0.246736
2266.000000	0.246361
2267.000000	0.246710
2268.000000	0.247370
2269.000000	0.247868
2270.000000	0.250703
2271.000000	0.250603
2272.000000	0.247789
2273.000000	0.246187
2274.000000	0.242813
2275.000000	0.241041
2276.000000	0.239781
2277.000000	0.241076
2278.000000	0.242694
2279.000000	0.243256
2280.000000	0.243946
2281.000000	0.244493
2282.000000	0.242466
2283.000000	0.241034
2284.000000	0.239349
2285.000000	0.236181
2286.000000	0.233709
2287.000000	0.232785
2288.000000	0.235442
2289.000000	0.238678
2290.000000	0.241280
2291.000000	0.243693
2292.000000	0.242666
2293.000000	0.240692
2294.000000	0.239958
2295.000000	0.239575
2296.000000	0.238408
2297.000000	0.237632
2298.000000	0.236608
2299.000000	0.233659
2300.000000	0.233802
2301.000000	0.236707
2302.000000	0.237295
2303.000000	0.239101
2304.000000	0.238904
2305.000000	0.234973
2306.000000	0.233289
2307.000000	0.232694
2308.000000	0.230819
2309.000000	0.228703
2310.000000	0.228203
2311.000000	0.225600
2312.000000	0.225216
2313.000000	0.225365
2314.000000	0.226036
2315.000000	0.227791
2316.000000	0.227486
2317.000000	0.229289
2318.000000	0.229827
2319.000000	0.229397
2320.000000	0.228679
2321.000000	0.226163
2322.000000	0.225591
2323.000000	0.225384
2324.000000	0.226505
2325.000000	0.225696
2326.000000	0.221968
2327.000000	0.218855
2328.000000	0.216890
2329.000000	0.218296
2330.000000	0.219413
2331.000000	0.218627
2332.000000	0.218011
2333.000000	0.215301
2334.000000	0.211080
2335.000000	0.209493
2336.000000	0.208212
2337.000000	0.207822
2338.000000	0.210035
2339.000000	0.212250
2340.000000	0.215448
2341.000000	0.218177
2342.000000	0.222067
2343.000000	0.223434
2344.000000	0.224477
2345.000000	0.222374
2346.000000	0.214712
2347.000000	0.210838
2348.000000	0.206798
2349.000000	0.204308
2350.000000	0.202535
2351.000000	0.201830
2352.000000	0.198912
2353.000000	0.196251
2354.000000	0.195714
2355.000000	0.197692
2356.000000	0.199992
2357.000000	0.199995
2358.000000	0.201197
2359.000000	0.200761
2360.000000	0.199461
2361.000000	0.200094
2362.000000	0.196886
2363.000000	0.194455
2364.000000	0.193293
2365.000000	0.192779
2366.000000	0.194878
2367.000000	0.194031
2368.000000	0.191998
2369.000000	0.189082
2370.000000	0.183576
2371.000000	0.183865
2372.000000	0.185809
2373.000000	0.182384
2374.000000	0.183379
2375.000000	0.184267
2376.000000	0.182907
2377.000000	0.183888
2378.000000	0.183573
2379.000000	0.182453
2380.000000	0.181302
2381.000000	0.181630
2382.000000	0.180797
2383.000000	0.177549
2384.000000	0.173395
2385.000000	0.171693
2386.000000	0.172114
2387.000000	0.172731
2388.000000	0.174961
2389.000000	0.172944
2390.000000	0.169317
2391.000000	0.169373
2392.000000	0.170834
2393.000000	0.176375
2394.000000	0.180376
2395.000000	0.178286
2396.000000	0.177313
2397.000000	0.177194
2398.000000	0.174617
2399.000000	0.173603
2400.000000	0.171539
2401.000000	0.162748
2402.000000	0.153363
2403.000000	0.147828
2404.000000	0.140994
2405.000000	0.137106
2406.000000	0.138866
2407.000000	0.141848
2408.000000	0.149380
2409.000000	0.152970
2410.000000	0.157103
2411.000000	0.160009
2412.000000	0.153016
2413.000000	0.152488
2414.000000	0.155324
2415.000000	0.161033
2416.000000	0.178216
2417.000000	0.194515
2418.000000	0.197685
2419.000000	0.192762
2420.000000	0.180925
2421.000000	0.164279
2422.000000	0.155882
2423.000000	0.158037
2424.000000	0.161385
2425.000000	0.156222
2426.000000	0.150456
2427.000000	0.143281
2428.000000	0.133274
2429.000000	0.134658
2430.000000	0.140425
2431.000000	0.144833
2432.000000	0.152476
2433.000000	0.159732
2434.000000	0.157533
2435.000000	0.157170
2436.000000	0.157629
2437.000000	0.142894
2438.000000	0.139837
2439.000000	0.138786
2440.000000	0.133543
2441.000000	0.151827
2442.000000	0.165661
2443.000000	0.169642
2444.000000	0.174776
2445.000000	0.173453
2446.000000	0.165913
2447.000000	0.150201
2448.000000	0.137227
2449.000000	0.124976
2450.000000	0.127971
2451.000000	0.144022
2452.000000	0.151391
2453.000000	0.150676
2454.000000	0.125297
2455.000000	0.111827
2456.000000	0.104216
2457.000000	0.079370
2458.000000	0.095416
2459.000000	0.101920
2460.000000	0.090499
2461.000000	0.114106
2462.000000	0.124979
2463.000000	0.136041
2464.000000	0.150893
2465.000000	0.148087
2466.000000	0.137043
2467.000000	0.108349
2468.000000	0.083205
2469.000000	0.062582
2470.000000	0.048042
2471.000000	0.044580
2472.000000	0.046930
2473.000000	0.061303
2474.000000	0.080679
2475.000000	0.097381
2476.000000	0.106819
2477.000000	0.127160
2478.000000	0.138878
2479.000000	0.148335
2480.000000	0.171036
2481.000000	0.172140
2482.000000	0.176776
2483.000000	0.185939
2484.000000	0.186591
2485.000000	0.173640
2486.000000	0.142736
2487.000000	0.114112
2488.000000	0.093016
2489.000000	0.090466
2490.000000	0.120051
2491.000000	0.156864
2492.000000	0.156529
2493.000000	0.120299
2494.000000	0.120386
2495.000000	0.110386
2496.000000	0.113452
2497.000000	0.178960
2498.000000	0.188343
2499.000000	0.164684
2500.000000	0.150229
