# Wavelength	NAu-2-20_HEX-50_FV7-30_00002.asd.rts.txt
350.000000	0.173145
351.000000	0.196944
352.000000	0.190419
353.000000	0.167790
354.000000	0.149868
355.000000	0.160150
356.000000	0.164512
357.000000	0.160615
358.000000	0.164079
359.000000	0.163917
360.000000	0.159297
361.000000	0.153229
362.000000	0.160330
363.000000	0.168333
364.000000	0.169219
365.000000	0.169573
366.000000	0.170095
367.000000	0.169313
368.000000	0.163700
369.000000	0.166261
370.000000	0.171708
371.000000	0.170604
372.000000	0.166997
373.000000	0.165335
374.000000	0.167499
375.000000	0.167938
376.000000	0.169020
377.000000	0.171456
378.000000	0.174882
379.000000	0.177209
380.000000	0.177497
381.000000	0.176256
382.000000	0.175417
383.000000	0.176897
384.000000	0.180237
385.000000	0.177922
386.000000	0.177281
387.000000	0.179958
388.000000	0.181774
389.000000	0.181390
390.000000	0.180050
391.000000	0.179696
392.000000	0.179064
393.000000	0.178929
394.000000	0.179908
395.000000	0.181682
396.000000	0.182310
397.000000	0.181595
398.000000	0.181681
399.000000	0.180792
400.000000	0.180191
401.000000	0.182033
402.000000	0.182146
403.000000	0.182115
404.000000	0.183625
405.000000	0.184001
406.000000	0.184128
407.000000	0.184380
408.000000	0.183791
409.000000	0.183965
410.000000	0.184798
411.000000	0.185194
412.000000	0.185359
413.000000	0.185567
414.000000	0.186047
415.000000	0.186440
416.000000	0.186731
417.000000	0.186931
418.000000	0.186963
419.000000	0.187328
420.000000	0.187887
421.000000	0.187915
422.000000	0.188138
423.000000	0.188575
424.000000	0.189075
425.000000	0.189425
426.000000	0.189724
427.000000	0.190100
428.000000	0.190732
429.000000	0.191138
430.000000	0.191301
431.000000	0.191847
432.000000	0.192129
433.000000	0.192105
434.000000	0.192094
435.000000	0.192465
436.000000	0.192698
437.000000	0.192433
438.000000	0.193005
439.000000	0.193498
440.000000	0.193576
441.000000	0.193886
442.000000	0.194487
443.000000	0.194994
444.000000	0.194774
445.000000	0.194791
446.000000	0.195139
447.000000	0.195550
448.000000	0.196338
449.000000	0.196701
450.000000	0.196421
451.000000	0.197133
452.000000	0.197815
453.000000	0.197992
454.000000	0.197872
455.000000	0.198064
456.000000	0.198592
457.000000	0.199054
458.000000	0.199420
459.000000	0.199801
460.000000	0.200298
461.000000	0.200574
462.000000	0.200908
463.000000	0.201320
464.000000	0.201766
465.000000	0.202207
466.000000	0.202565
467.000000	0.202844
468.000000	0.202818
469.000000	0.202878
470.000000	0.203538
471.000000	0.203892
472.000000	0.204086
473.000000	0.204311
474.000000	0.204491
475.000000	0.204533
476.000000	0.204663
477.000000	0.205233
478.000000	0.205577
479.000000	0.205831
480.000000	0.206147
481.000000	0.206328
482.000000	0.206715
483.000000	0.207358
484.000000	0.207845
485.000000	0.208041
486.000000	0.208127
487.000000	0.208351
488.000000	0.208551
489.000000	0.208781
490.000000	0.209210
491.000000	0.209421
492.000000	0.209525
493.000000	0.209644
494.000000	0.209751
495.000000	0.209880
496.000000	0.210055
497.000000	0.210449
498.000000	0.210696
499.000000	0.210810
500.000000	0.211122
501.000000	0.211277
502.000000	0.211391
503.000000	0.211690
504.000000	0.211918
505.000000	0.212111
506.000000	0.212344
507.000000	0.212562
508.000000	0.212858
509.000000	0.213209
510.000000	0.213427
511.000000	0.213778
512.000000	0.214253
513.000000	0.214581
514.000000	0.214959
515.000000	0.215359
516.000000	0.215656
517.000000	0.216046
518.000000	0.216457
519.000000	0.216779
520.000000	0.217248
521.000000	0.217681
522.000000	0.218061
523.000000	0.218650
524.000000	0.219114
525.000000	0.219512
526.000000	0.220144
527.000000	0.220784
528.000000	0.221410
529.000000	0.222085
530.000000	0.222778
531.000000	0.223632
532.000000	0.224592
533.000000	0.225379
534.000000	0.226118
535.000000	0.226899
536.000000	0.227833
537.000000	0.228717
538.000000	0.229524
539.000000	0.230286
540.000000	0.231035
541.000000	0.231748
542.000000	0.232438
543.000000	0.233127
544.000000	0.233840
545.000000	0.234526
546.000000	0.235193
547.000000	0.235902
548.000000	0.236678
549.000000	0.237441
550.000000	0.238199
551.000000	0.238995
552.000000	0.239834
553.000000	0.240767
554.000000	0.241741
555.000000	0.242721
556.000000	0.243728
557.000000	0.244776
558.000000	0.245932
559.000000	0.247002
560.000000	0.248093
561.000000	0.249228
562.000000	0.250254
563.000000	0.251238
564.000000	0.252254
565.000000	0.253256
566.000000	0.254205
567.000000	0.255128
568.000000	0.256000
569.000000	0.256722
570.000000	0.257472
571.000000	0.258244
572.000000	0.258891
573.000000	0.259496
574.000000	0.260039
575.000000	0.260524
576.000000	0.260997
577.000000	0.261414
578.000000	0.261798
579.000000	0.262153
580.000000	0.262493
581.000000	0.262805
582.000000	0.263038
583.000000	0.263225
584.000000	0.263379
585.000000	0.263512
586.000000	0.263627
587.000000	0.263721
588.000000	0.263791
589.000000	0.263884
590.000000	0.263928
591.000000	0.263892
592.000000	0.263863
593.000000	0.263846
594.000000	0.263821
595.000000	0.263740
596.000000	0.263630
597.000000	0.263539
598.000000	0.263427
599.000000	0.263212
600.000000	0.262989
601.000000	0.262785
602.000000	0.262641
603.000000	0.262432
604.000000	0.262161
605.000000	0.262066
606.000000	0.261836
607.000000	0.261525
608.000000	0.261409
609.000000	0.261216
610.000000	0.260975
611.000000	0.260777
612.000000	0.260583
613.000000	0.260405
614.000000	0.260261
615.000000	0.260046
616.000000	0.259815
617.000000	0.259578
618.000000	0.259392
619.000000	0.259268
620.000000	0.259132
621.000000	0.258939
622.000000	0.258777
623.000000	0.258640
624.000000	0.258504
625.000000	0.258345
626.000000	0.258235
627.000000	0.258183
628.000000	0.258085
629.000000	0.258059
630.000000	0.258004
631.000000	0.257956
632.000000	0.257886
633.000000	0.257830
634.000000	0.257809
635.000000	0.257787
636.000000	0.257802
637.000000	0.257847
638.000000	0.257868
639.000000	0.257904
640.000000	0.257983
641.000000	0.257985
642.000000	0.257969
643.000000	0.257990
644.000000	0.258092
645.000000	0.258180
646.000000	0.258346
647.000000	0.258593
648.000000	0.258701
649.000000	0.258850
650.000000	0.259073
651.000000	0.259264
652.000000	0.259477
653.000000	0.259717
654.000000	0.259904
655.000000	0.260213
656.000000	0.260563
657.000000	0.260813
658.000000	0.261051
659.000000	0.261313
660.000000	0.261610
661.000000	0.261972
662.000000	0.262262
663.000000	0.262592
664.000000	0.263130
665.000000	0.263517
666.000000	0.263867
667.000000	0.264341
668.000000	0.264843
669.000000	0.265317
670.000000	0.265762
671.000000	0.266288
672.000000	0.266827
673.000000	0.267350
674.000000	0.267875
675.000000	0.268405
676.000000	0.268952
677.000000	0.269545
678.000000	0.270178
679.000000	0.270791
680.000000	0.271376
681.000000	0.272049
682.000000	0.272742
683.000000	0.273389
684.000000	0.274122
685.000000	0.274873
686.000000	0.275629
687.000000	0.276357
688.000000	0.277131
689.000000	0.277928
690.000000	0.278746
691.000000	0.279545
692.000000	0.280372
693.000000	0.281275
694.000000	0.282126
695.000000	0.282982
696.000000	0.283853
697.000000	0.284737
698.000000	0.285643
699.000000	0.286551
700.000000	0.287466
701.000000	0.288443
702.000000	0.289441
703.000000	0.290425
704.000000	0.291424
705.000000	0.292434
706.000000	0.293415
707.000000	0.294406
708.000000	0.295426
709.000000	0.296434
710.000000	0.297418
711.000000	0.298427
712.000000	0.299465
713.000000	0.300521
714.000000	0.301503
715.000000	0.302501
716.000000	0.303532
717.000000	0.304559
718.000000	0.305561
719.000000	0.306534
720.000000	0.307511
721.000000	0.308562
722.000000	0.309572
723.000000	0.310561
724.000000	0.311562
725.000000	0.312532
726.000000	0.313532
727.000000	0.314500
728.000000	0.315532
729.000000	0.316535
730.000000	0.317398
731.000000	0.318310
732.000000	0.319267
733.000000	0.320262
734.000000	0.321173
735.000000	0.321956
736.000000	0.322790
737.000000	0.323657
738.000000	0.324433
739.000000	0.325190
740.000000	0.325847
741.000000	0.326615
742.000000	0.327383
743.000000	0.328089
744.000000	0.328822
745.000000	0.329531
746.000000	0.330257
747.000000	0.330954
748.000000	0.331623
749.000000	0.332280
750.000000	0.332899
751.000000	0.333491
752.000000	0.334074
753.000000	0.334652
754.000000	0.335189
755.000000	0.335806
756.000000	0.336426
757.000000	0.336896
758.000000	0.337314
759.000000	0.337785
760.000000	0.338275
761.000000	0.338781
762.000000	0.339199
763.000000	0.339541
764.000000	0.339978
765.000000	0.340368
766.000000	0.340726
767.000000	0.341080
768.000000	0.341435
769.000000	0.341757
770.000000	0.342056
771.000000	0.342392
772.000000	0.342710
773.000000	0.342977
774.000000	0.343311
775.000000	0.343590
776.000000	0.343829
777.000000	0.344037
778.000000	0.344212
779.000000	0.344428
780.000000	0.344666
781.000000	0.344791
782.000000	0.344872
783.000000	0.345062
784.000000	0.345292
785.000000	0.345442
786.000000	0.345572
787.000000	0.345719
788.000000	0.345865
789.000000	0.346022
790.000000	0.346160
791.000000	0.346286
792.000000	0.346443
793.000000	0.346564
794.000000	0.346625
795.000000	0.346780
796.000000	0.346888
797.000000	0.346898
798.000000	0.346859
799.000000	0.346907
800.000000	0.346969
801.000000	0.346937
802.000000	0.346892
803.000000	0.346929
804.000000	0.347081
805.000000	0.347131
806.000000	0.347062
807.000000	0.347049
808.000000	0.347174
809.000000	0.347162
810.000000	0.347140
811.000000	0.347192
812.000000	0.347135
813.000000	0.347029
814.000000	0.346945
815.000000	0.346991
816.000000	0.347013
817.000000	0.347010
818.000000	0.346933
819.000000	0.346910
820.000000	0.346954
821.000000	0.347000
822.000000	0.347061
823.000000	0.347060
824.000000	0.346995
825.000000	0.347019
826.000000	0.346950
827.000000	0.346843
828.000000	0.346803
829.000000	0.346828
830.000000	0.346806
831.000000	0.346778
832.000000	0.346685
833.000000	0.346581
834.000000	0.346504
835.000000	0.346475
836.000000	0.346320
837.000000	0.346214
838.000000	0.346163
839.000000	0.345994
840.000000	0.345933
841.000000	0.345910
842.000000	0.345778
843.000000	0.345609
844.000000	0.345531
845.000000	0.345517
846.000000	0.345448
847.000000	0.345405
848.000000	0.345293
849.000000	0.345068
850.000000	0.344886
851.000000	0.344840
852.000000	0.344894
853.000000	0.344713
854.000000	0.344546
855.000000	0.344471
856.000000	0.344295
857.000000	0.344029
858.000000	0.343869
859.000000	0.343775
860.000000	0.343584
861.000000	0.343429
862.000000	0.343285
863.000000	0.343017
864.000000	0.342933
865.000000	0.342878
866.000000	0.342761
867.000000	0.342568
868.000000	0.342415
869.000000	0.342284
870.000000	0.342207
871.000000	0.341989
872.000000	0.341826
873.000000	0.341745
874.000000	0.341618
875.000000	0.341391
876.000000	0.341146
877.000000	0.340940
878.000000	0.340680
879.000000	0.340455
880.000000	0.340202
881.000000	0.340091
882.000000	0.339971
883.000000	0.339846
884.000000	0.339692
885.000000	0.339462
886.000000	0.339189
887.000000	0.338950
888.000000	0.338797
889.000000	0.338602
890.000000	0.338292
891.000000	0.338057
892.000000	0.337754
893.000000	0.337453
894.000000	0.337305
895.000000	0.337137
896.000000	0.336845
897.000000	0.336553
898.000000	0.336411
899.000000	0.336159
900.000000	0.335867
901.000000	0.335620
902.000000	0.335646
903.000000	0.335460
904.000000	0.335198
905.000000	0.335020
906.000000	0.334992
907.000000	0.334799
908.000000	0.334497
909.000000	0.334353
910.000000	0.334125
911.000000	0.333915
912.000000	0.333829
913.000000	0.333616
914.000000	0.333362
915.000000	0.333161
916.000000	0.332923
917.000000	0.332532
918.000000	0.332138
919.000000	0.331846
920.000000	0.331626
921.000000	0.331454
922.000000	0.331220
923.000000	0.330798
924.000000	0.330573
925.000000	0.330424
926.000000	0.330221
927.000000	0.329774
928.000000	0.329597
929.000000	0.329477
930.000000	0.329083
931.000000	0.328909
932.000000	0.328756
933.000000	0.328586
934.000000	0.328455
935.000000	0.328123
936.000000	0.327702
937.000000	0.327270
938.000000	0.327030
939.000000	0.326832
940.000000	0.326540
941.000000	0.326232
942.000000	0.326080
943.000000	0.325843
944.000000	0.325437
945.000000	0.325662
946.000000	0.325390
947.000000	0.324959
948.000000	0.324924
949.000000	0.324710
950.000000	0.324435
951.000000	0.324108
952.000000	0.323752
953.000000	0.323453
954.000000	0.323304
955.000000	0.323146
956.000000	0.322454
957.000000	0.322170
958.000000	0.322189
959.000000	0.322094
960.000000	0.321703
961.000000	0.321493
962.000000	0.321481
963.000000	0.321158
964.000000	0.320987
965.000000	0.320851
966.000000	0.320461
967.000000	0.319946
968.000000	0.319686
969.000000	0.319615
970.000000	0.319552
971.000000	0.319293
972.000000	0.318968
973.000000	0.318705
974.000000	0.318776
975.000000	0.318622
976.000000	0.318365
977.000000	0.318155
978.000000	0.317774
979.000000	0.317522
980.000000	0.317228
981.000000	0.317065
982.000000	0.317132
983.000000	0.316965
984.000000	0.316584
985.000000	0.316379
986.000000	0.316259
987.000000	0.316368
988.000000	0.316446
989.000000	0.315681
990.000000	0.315376
991.000000	0.315462
992.000000	0.315500
993.000000	0.315692
994.000000	0.315512
995.000000	0.315227
996.000000	0.315222
997.000000	0.315213
998.000000	0.315061
999.000000	0.314893
1000.000000	0.314908
1001.000000	0.315498
1002.000000	0.314748
1003.000000	0.314617
1004.000000	0.314426
1005.000000	0.313372
1006.000000	0.312990
1007.000000	0.313382
1008.000000	0.313632
1009.000000	0.313182
1010.000000	0.312776
1011.000000	0.312338
1012.000000	0.312231
1013.000000	0.312479
1014.000000	0.312709
1015.000000	0.312953
1016.000000	0.313388
1017.000000	0.313295
1018.000000	0.313176
1019.000000	0.313239
1020.000000	0.313487
1021.000000	0.313038
1022.000000	0.312344
1023.000000	0.312499
1024.000000	0.312427
1025.000000	0.312955
1026.000000	0.314155
1027.000000	0.314726
1028.000000	0.314382
1029.000000	0.313835
1030.000000	0.312859
1031.000000	0.312422
1032.000000	0.313089
1033.000000	0.313199
1034.000000	0.313416
1035.000000	0.314086
1036.000000	0.314380
1037.000000	0.314420
1038.000000	0.314352
1039.000000	0.314428
1040.000000	0.314001
1041.000000	0.313598
1042.000000	0.313618
1043.000000	0.314163
1044.000000	0.314937
1045.000000	0.315178
1046.000000	0.315228
1047.000000	0.315288
1048.000000	0.314662
1049.000000	0.314845
1050.000000	0.315681
1051.000000	0.315873
1052.000000	0.316052
1053.000000	0.316232
1054.000000	0.316230
1055.000000	0.316275
1056.000000	0.316441
1057.000000	0.316732
1058.000000	0.316607
1059.000000	0.316787
1060.000000	0.317086
1061.000000	0.317106
1062.000000	0.317414
1063.000000	0.317803
1064.000000	0.318187
1065.000000	0.318889
1066.000000	0.319218
1067.000000	0.319152
1068.000000	0.319275
1069.000000	0.319331
1070.000000	0.319454
1071.000000	0.319843
1072.000000	0.320009
1073.000000	0.320136
1074.000000	0.320082
1075.000000	0.320354
1076.000000	0.320815
1077.000000	0.321330
1078.000000	0.321742
1079.000000	0.322007
1080.000000	0.322063
1081.000000	0.322129
1082.000000	0.322153
1083.000000	0.322352
1084.000000	0.322610
1085.000000	0.322744
1086.000000	0.322867
1087.000000	0.323140
1088.000000	0.323312
1089.000000	0.323493
1090.000000	0.323885
1091.000000	0.324100
1092.000000	0.324134
1093.000000	0.324060
1094.000000	0.324310
1095.000000	0.324659
1096.000000	0.324979
1097.000000	0.325575
1098.000000	0.325786
1099.000000	0.325653
1100.000000	0.325739
1101.000000	0.325682
1102.000000	0.325762
1103.000000	0.325970
1104.000000	0.326163
1105.000000	0.326325
1106.000000	0.326551
1107.000000	0.326775
1108.000000	0.326975
1109.000000	0.327009
1110.000000	0.327557
1111.000000	0.327913
1112.000000	0.328357
1113.000000	0.328628
1114.000000	0.328947
1115.000000	0.329080
1116.000000	0.328945
1117.000000	0.329030
1118.000000	0.329091
1119.000000	0.329190
1120.000000	0.329469
1121.000000	0.329588
1122.000000	0.329679
1123.000000	0.329999
1124.000000	0.329987
1125.000000	0.330252
1126.000000	0.330877
1127.000000	0.331152
1128.000000	0.331324
1129.000000	0.331523
1130.000000	0.331642
1131.000000	0.331479
1132.000000	0.331541
1133.000000	0.331809
1134.000000	0.331967
1135.000000	0.332050
1136.000000	0.332140
1137.000000	0.332285
1138.000000	0.332247
1139.000000	0.332105
1140.000000	0.332188
1141.000000	0.332160
1142.000000	0.332275
1143.000000	0.332635
1144.000000	0.332918
1145.000000	0.333042
1146.000000	0.333007
1147.000000	0.333065
1148.000000	0.332988
1149.000000	0.332983
1150.000000	0.333029
1151.000000	0.333081
1152.000000	0.333041
1153.000000	0.333083
1154.000000	0.333200
1155.000000	0.333201
1156.000000	0.333088
1157.000000	0.333122
1158.000000	0.333165
1159.000000	0.333171
1160.000000	0.333247
1161.000000	0.333262
1162.000000	0.333143
1163.000000	0.333334
1164.000000	0.333391
1165.000000	0.333526
1166.000000	0.333723
1167.000000	0.334005
1168.000000	0.334032
1169.000000	0.334064
1170.000000	0.334035
1171.000000	0.333782
1172.000000	0.333777
1173.000000	0.333938
1174.000000	0.333930
1175.000000	0.333769
1176.000000	0.333778
1177.000000	0.333962
1178.000000	0.333975
1179.000000	0.333979
1180.000000	0.334014
1181.000000	0.334082
1182.000000	0.333997
1183.000000	0.334171
1184.000000	0.334369
1185.000000	0.334437
1186.000000	0.334363
1187.000000	0.334424
1188.000000	0.334558
1189.000000	0.334549
1190.000000	0.334624
1191.000000	0.334538
1192.000000	0.334318
1193.000000	0.334326
1194.000000	0.334175
1195.000000	0.334187
1196.000000	0.334351
1197.000000	0.334433
1198.000000	0.334603
1199.000000	0.334709
1200.000000	0.334784
1201.000000	0.334764
1202.000000	0.334688
1203.000000	0.334643
1204.000000	0.334630
1205.000000	0.334564
1206.000000	0.334541
1207.000000	0.334680
1208.000000	0.334715
1209.000000	0.334803
1210.000000	0.334858
1211.000000	0.334952
1212.000000	0.334873
1213.000000	0.334614
1214.000000	0.334609
1215.000000	0.334655
1216.000000	0.334658
1217.000000	0.334760
1218.000000	0.334844
1219.000000	0.334927
1220.000000	0.334904
1221.000000	0.335045
1222.000000	0.335126
1223.000000	0.335050
1224.000000	0.335070
1225.000000	0.335105
1226.000000	0.335099
1227.000000	0.335144
1228.000000	0.335269
1229.000000	0.335307
1230.000000	0.335348
1231.000000	0.335291
1232.000000	0.335235
1233.000000	0.335307
1234.000000	0.335362
1235.000000	0.335372
1236.000000	0.335343
1237.000000	0.335415
1238.000000	0.335408
1239.000000	0.335428
1240.000000	0.335538
1241.000000	0.335623
1242.000000	0.335660
1243.000000	0.335823
1244.000000	0.336015
1245.000000	0.336255
1246.000000	0.336298
1247.000000	0.336295
1248.000000	0.336443
1249.000000	0.336495
1250.000000	0.336519
1251.000000	0.336612
1252.000000	0.336638
1253.000000	0.336570
1254.000000	0.336574
1255.000000	0.336639
1256.000000	0.336623
1257.000000	0.336578
1258.000000	0.336635
1259.000000	0.336588
1260.000000	0.336706
1261.000000	0.336962
1262.000000	0.337057
1263.000000	0.337161
1264.000000	0.337199
1265.000000	0.337203
1266.000000	0.337235
1267.000000	0.337223
1268.000000	0.337296
1269.000000	0.337386
1270.000000	0.337398
1271.000000	0.337376
1272.000000	0.337337
1273.000000	0.337380
1274.000000	0.337464
1275.000000	0.337454
1276.000000	0.337473
1277.000000	0.337633
1278.000000	0.337694
1279.000000	0.337682
1280.000000	0.337790
1281.000000	0.337651
1282.000000	0.337185
1283.000000	0.337141
1284.000000	0.337088
1285.000000	0.337151
1286.000000	0.337450
1287.000000	0.337720
1288.000000	0.337791
1289.000000	0.337822
1290.000000	0.337750
1291.000000	0.337562
1292.000000	0.337480
1293.000000	0.337542
1294.000000	0.337499
1295.000000	0.337499
1296.000000	0.337583
1297.000000	0.337558
1298.000000	0.337654
1299.000000	0.337733
1300.000000	0.337705
1301.000000	0.337757
1302.000000	0.337690
1303.000000	0.337646
1304.000000	0.337601
1305.000000	0.337580
1306.000000	0.337622
1307.000000	0.337833
1308.000000	0.337886
1309.000000	0.337926
1310.000000	0.337940
1311.000000	0.337844
1312.000000	0.337800
1313.000000	0.337862
1314.000000	0.337729
1315.000000	0.337586
1316.000000	0.337492
1317.000000	0.337434
1318.000000	0.337500
1319.000000	0.337402
1320.000000	0.337300
1321.000000	0.337236
1322.000000	0.336918
1323.000000	0.336718
1324.000000	0.336763
1325.000000	0.336546
1326.000000	0.336525
1327.000000	0.336541
1328.000000	0.336281
1329.000000	0.336182
1330.000000	0.336221
1331.000000	0.336187
1332.000000	0.336309
1333.000000	0.336272
1334.000000	0.336126
1335.000000	0.336049
1336.000000	0.335882
1337.000000	0.335771
1338.000000	0.335636
1339.000000	0.335694
1340.000000	0.335547
1341.000000	0.335455
1342.000000	0.335399
1343.000000	0.335181
1344.000000	0.335108
1345.000000	0.335030
1346.000000	0.334994
1347.000000	0.334826
1348.000000	0.334528
1349.000000	0.334305
1350.000000	0.334323
1351.000000	0.334349
1352.000000	0.334322
1353.000000	0.334280
1354.000000	0.334083
1355.000000	0.333760
1356.000000	0.333537
1357.000000	0.333328
1358.000000	0.333096
1359.000000	0.332859
1360.000000	0.332703
1361.000000	0.332687
1362.000000	0.332546
1363.000000	0.332448
1364.000000	0.332283
1365.000000	0.331907
1366.000000	0.331768
1367.000000	0.331754
1368.000000	0.331528
1369.000000	0.331526
1370.000000	0.331386
1371.000000	0.331034
1372.000000	0.330856
1373.000000	0.330760
1374.000000	0.330612
1375.000000	0.330444
1376.000000	0.330301
1377.000000	0.330012
1378.000000	0.329714
1379.000000	0.329405
1380.000000	0.329093
1381.000000	0.328813
1382.000000	0.328322
1383.000000	0.327762
1384.000000	0.327151
1385.000000	0.326405
1386.000000	0.325918
1387.000000	0.325579
1388.000000	0.324968
1389.000000	0.324297
1390.000000	0.323683
1391.000000	0.322903
1392.000000	0.322126
1393.000000	0.321313
1394.000000	0.320457
1395.000000	0.319677
1396.000000	0.318980
1397.000000	0.318136
1398.000000	0.317302
1399.000000	0.316301
1400.000000	0.315031
1401.000000	0.313906
1402.000000	0.312808
1403.000000	0.311717
1404.000000	0.310807
1405.000000	0.309841
1406.000000	0.308746
1407.000000	0.307779
1408.000000	0.306815
1409.000000	0.305822
1410.000000	0.304959
1411.000000	0.304072
1412.000000	0.303087
1413.000000	0.302183
1414.000000	0.301332
1415.000000	0.300531
1416.000000	0.299726
1417.000000	0.298947
1418.000000	0.298064
1419.000000	0.297236
1420.000000	0.296457
1421.000000	0.295667
1422.000000	0.294949
1423.000000	0.294312
1424.000000	0.293565
1425.000000	0.292839
1426.000000	0.292061
1427.000000	0.291287
1428.000000	0.290651
1429.000000	0.290038
1430.000000	0.289456
1431.000000	0.288847
1432.000000	0.288180
1433.000000	0.287400
1434.000000	0.286808
1435.000000	0.286404
1436.000000	0.285858
1437.000000	0.285318
1438.000000	0.284780
1439.000000	0.284138
1440.000000	0.283672
1441.000000	0.283358
1442.000000	0.283043
1443.000000	0.282703
1444.000000	0.282453
1445.000000	0.282252
1446.000000	0.282120
1447.000000	0.281972
1448.000000	0.281807
1449.000000	0.281628
1450.000000	0.281406
1451.000000	0.281346
1452.000000	0.281263
1453.000000	0.281133
1454.000000	0.281043
1455.000000	0.280871
1456.000000	0.280810
1457.000000	0.280760
1458.000000	0.280705
1459.000000	0.280756
1460.000000	0.280667
1461.000000	0.280606
1462.000000	0.280583
1463.000000	0.280348
1464.000000	0.280219
1465.000000	0.280221
1466.000000	0.280225
1467.000000	0.280317
1468.000000	0.280437
1469.000000	0.280548
1470.000000	0.280474
1471.000000	0.280464
1472.000000	0.280515
1473.000000	0.280627
1474.000000	0.280818
1475.000000	0.280985
1476.000000	0.281179
1477.000000	0.281445
1478.000000	0.281700
1479.000000	0.282033
1480.000000	0.282466
1481.000000	0.282782
1482.000000	0.282993
1483.000000	0.283387
1484.000000	0.283844
1485.000000	0.284264
1486.000000	0.284790
1487.000000	0.285260
1488.000000	0.285655
1489.000000	0.286107
1490.000000	0.286530
1491.000000	0.286936
1492.000000	0.287262
1493.000000	0.287618
1494.000000	0.287933
1495.000000	0.288204
1496.000000	0.288452
1497.000000	0.288783
1498.000000	0.289163
1499.000000	0.289449
1500.000000	0.289776
1501.000000	0.290049
1502.000000	0.290202
1503.000000	0.290430
1504.000000	0.290694
1505.000000	0.290973
1506.000000	0.291337
1507.000000	0.291631
1508.000000	0.291934
1509.000000	0.292229
1510.000000	0.292469
1511.000000	0.292736
1512.000000	0.292933
1513.000000	0.293112
1514.000000	0.293234
1515.000000	0.293251
1516.000000	0.293412
1517.000000	0.293612
1518.000000	0.293761
1519.000000	0.293927
1520.000000	0.294152
1521.000000	0.294188
1522.000000	0.294248
1523.000000	0.294493
1524.000000	0.294628
1525.000000	0.294777
1526.000000	0.294939
1527.000000	0.295056
1528.000000	0.295166
1529.000000	0.295297
1530.000000	0.295431
1531.000000	0.295580
1532.000000	0.295688
1533.000000	0.295711
1534.000000	0.295804
1535.000000	0.295883
1536.000000	0.295807
1537.000000	0.295961
1538.000000	0.296090
1539.000000	0.296003
1540.000000	0.296121
1541.000000	0.296297
1542.000000	0.296382
1543.000000	0.296557
1544.000000	0.296673
1545.000000	0.296671
1546.000000	0.296696
1547.000000	0.296689
1548.000000	0.296757
1549.000000	0.296922
1550.000000	0.296976
1551.000000	0.296997
1552.000000	0.297003
1553.000000	0.296923
1554.000000	0.296862
1555.000000	0.296885
1556.000000	0.296906
1557.000000	0.296885
1558.000000	0.296937
1559.000000	0.297006
1560.000000	0.297013
1561.000000	0.297088
1562.000000	0.297066
1563.000000	0.296967
1564.000000	0.296977
1565.000000	0.296995
1566.000000	0.296924
1567.000000	0.296950
1568.000000	0.296973
1569.000000	0.297036
1570.000000	0.297073
1571.000000	0.297123
1572.000000	0.297154
1573.000000	0.297108
1574.000000	0.297137
1575.000000	0.297274
1576.000000	0.297326
1577.000000	0.297333
1578.000000	0.297348
1579.000000	0.297406
1580.000000	0.297429
1581.000000	0.297536
1582.000000	0.297545
1583.000000	0.297418
1584.000000	0.297350
1585.000000	0.297364
1586.000000	0.297372
1587.000000	0.297383
1588.000000	0.297448
1589.000000	0.297538
1590.000000	0.297582
1591.000000	0.297749
1592.000000	0.297804
1593.000000	0.297773
1594.000000	0.297712
1595.000000	0.297562
1596.000000	0.297564
1597.000000	0.297689
1598.000000	0.297745
1599.000000	0.297944
1600.000000	0.297967
1601.000000	0.297834
1602.000000	0.297849
1603.000000	0.297951
1604.000000	0.297951
1605.000000	0.297955
1606.000000	0.298067
1607.000000	0.298314
1608.000000	0.298370
1609.000000	0.298473
1610.000000	0.298457
1611.000000	0.298220
1612.000000	0.298120
1613.000000	0.298141
1614.000000	0.298233
1615.000000	0.298437
1616.000000	0.298581
1617.000000	0.298840
1618.000000	0.298885
1619.000000	0.298690
1620.000000	0.298645
1621.000000	0.298555
1622.000000	0.298639
1623.000000	0.298873
1624.000000	0.298994
1625.000000	0.298990
1626.000000	0.299055
1627.000000	0.299081
1628.000000	0.299234
1629.000000	0.299532
1630.000000	0.299713
1631.000000	0.299843
1632.000000	0.299949
1633.000000	0.299953
1634.000000	0.300100
1635.000000	0.300346
1636.000000	0.300517
1637.000000	0.300783
1638.000000	0.300931
1639.000000	0.300967
1640.000000	0.301181
1641.000000	0.301557
1642.000000	0.301788
1643.000000	0.302109
1644.000000	0.302350
1645.000000	0.302441
1646.000000	0.302551
1647.000000	0.302687
1648.000000	0.302819
1649.000000	0.303025
1650.000000	0.303220
1651.000000	0.303496
1652.000000	0.303696
1653.000000	0.303738
1654.000000	0.303914
1655.000000	0.304132
1656.000000	0.304227
1657.000000	0.304345
1658.000000	0.304501
1659.000000	0.304699
1660.000000	0.304942
1661.000000	0.305258
1662.000000	0.305406
1663.000000	0.305389
1664.000000	0.305506
1665.000000	0.305632
1666.000000	0.305799
1667.000000	0.305955
1668.000000	0.306077
1669.000000	0.306095
1670.000000	0.306175
1671.000000	0.306436
1672.000000	0.306646
1673.000000	0.306843
1674.000000	0.306983
1675.000000	0.307049
1676.000000	0.307203
1677.000000	0.307372
1678.000000	0.307491
1679.000000	0.307672
1680.000000	0.307806
1681.000000	0.307846
1682.000000	0.307884
1683.000000	0.307963
1684.000000	0.308041
1685.000000	0.308139
1686.000000	0.308128
1687.000000	0.308255
1688.000000	0.308587
1689.000000	0.308715
1690.000000	0.308875
1691.000000	0.309164
1692.000000	0.309025
1693.000000	0.308980
1694.000000	0.309131
1695.000000	0.309146
1696.000000	0.309198
1697.000000	0.309192
1698.000000	0.309155
1699.000000	0.309171
1700.000000	0.309246
1701.000000	0.309315
1702.000000	0.309130
1703.000000	0.309077
1704.000000	0.309144
1705.000000	0.309208
1706.000000	0.309431
1707.000000	0.309602
1708.000000	0.309705
1709.000000	0.309775
1710.000000	0.310020
1711.000000	0.310092
1712.000000	0.309971
1713.000000	0.310002
1714.000000	0.310072
1715.000000	0.310134
1716.000000	0.310280
1717.000000	0.310451
1718.000000	0.310616
1719.000000	0.310668
1720.000000	0.310851
1721.000000	0.310869
1722.000000	0.310521
1723.000000	0.310599
1724.000000	0.310972
1725.000000	0.311126
1726.000000	0.311331
1727.000000	0.311421
1728.000000	0.311170
1729.000000	0.311119
1730.000000	0.311373
1731.000000	0.311404
1732.000000	0.311328
1733.000000	0.311443
1734.000000	0.311417
1735.000000	0.311511
1736.000000	0.311753
1737.000000	0.311875
1738.000000	0.311982
1739.000000	0.312043
1740.000000	0.312007
1741.000000	0.312148
1742.000000	0.312362
1743.000000	0.312506
1744.000000	0.312710
1745.000000	0.312884
1746.000000	0.312955
1747.000000	0.313130
1748.000000	0.313209
1749.000000	0.313130
1750.000000	0.313064
1751.000000	0.313151
1752.000000	0.313258
1753.000000	0.313210
1754.000000	0.313188
1755.000000	0.313097
1756.000000	0.313045
1757.000000	0.313017
1758.000000	0.313014
1759.000000	0.313050
1760.000000	0.313054
1761.000000	0.312922
1762.000000	0.312965
1763.000000	0.313120
1764.000000	0.313271
1765.000000	0.313559
1766.000000	0.313749
1767.000000	0.313766
1768.000000	0.313842
1769.000000	0.314073
1770.000000	0.314187
1771.000000	0.314159
1772.000000	0.314267
1773.000000	0.314319
1774.000000	0.314388
1775.000000	0.314657
1776.000000	0.314765
1777.000000	0.314659
1778.000000	0.314760
1779.000000	0.314949
1780.000000	0.315052
1781.000000	0.315201
1782.000000	0.315190
1783.000000	0.315036
1784.000000	0.315142
1785.000000	0.315220
1786.000000	0.315441
1787.000000	0.315723
1788.000000	0.316087
1789.000000	0.316275
1790.000000	0.316133
1791.000000	0.316092
1792.000000	0.315875
1793.000000	0.315840
1794.000000	0.316096
1795.000000	0.316341
1796.000000	0.316667
1797.000000	0.316828
1798.000000	0.316937
1799.000000	0.317040
1800.000000	0.317074
1801.000000	0.317118
1802.000000	0.317208
1803.000000	0.316725
1804.000000	0.316841
1805.000000	0.317321
1806.000000	0.317679
1807.000000	0.318345
1808.000000	0.318559
1809.000000	0.318759
1810.000000	0.318301
1811.000000	0.318260
1812.000000	0.318059
1813.000000	0.318045
1814.000000	0.318569
1815.000000	0.318534
1816.000000	0.318194
1817.000000	0.317744
1818.000000	0.317166
1819.000000	0.316274
1820.000000	0.315767
1821.000000	0.316265
1822.000000	0.315956
1823.000000	0.315292
1824.000000	0.315226
1825.000000	0.314920
1826.000000	0.314915
1827.000000	0.315087
1828.000000	0.316152
1829.000000	0.316693
1830.000000	0.316598
1831.000000	0.316797
1832.000000	0.317284
1833.000000	0.317208
1834.000000	0.316767
1835.000000	0.316453
1836.000000	0.315989
1837.000000	0.315306
1838.000000	0.314041
1839.000000	0.313228
1840.000000	0.312948
1841.000000	0.312715
1842.000000	0.312731
1843.000000	0.313568
1844.000000	0.314099
1845.000000	0.314512
1846.000000	0.314772
1847.000000	0.315353
1848.000000	0.314906
1849.000000	0.314214
1850.000000	0.313428
1851.000000	0.312924
1852.000000	0.312414
1853.000000	0.311787
1854.000000	0.310968
1855.000000	0.310391
1856.000000	0.309603
1857.000000	0.309088
1858.000000	0.308478
1859.000000	0.307871
1860.000000	0.306928
1861.000000	0.305406
1862.000000	0.304232
1863.000000	0.303120
1864.000000	0.302327
1865.000000	0.301959
1866.000000	0.301117
1867.000000	0.300436
1868.000000	0.299301
1869.000000	0.297459
1870.000000	0.295727
1871.000000	0.294968
1872.000000	0.294668
1873.000000	0.293737
1874.000000	0.293214
1875.000000	0.292089
1876.000000	0.290513
1877.000000	0.287492
1878.000000	0.284930
1879.000000	0.282267
1880.000000	0.278872
1881.000000	0.275579
1882.000000	0.272340
1883.000000	0.268660
1884.000000	0.265415
1885.000000	0.262239
1886.000000	0.259074
1887.000000	0.255945
1888.000000	0.252988
1889.000000	0.249832
1890.000000	0.246594
1891.000000	0.243493
1892.000000	0.240329
1893.000000	0.237086
1894.000000	0.234095
1895.000000	0.230412
1896.000000	0.226578
1897.000000	0.222055
1898.000000	0.217865
1899.000000	0.213972
1900.000000	0.210327
1901.000000	0.207544
1902.000000	0.205190
1903.000000	0.202381
1904.000000	0.200273
1905.000000	0.198467
1906.000000	0.196263
1907.000000	0.193787
1908.000000	0.191924
1909.000000	0.189660
1910.000000	0.187529
1911.000000	0.186321
1912.000000	0.184674
1913.000000	0.183298
1914.000000	0.182319
1915.000000	0.180955
1916.000000	0.179747
1917.000000	0.178674
1918.000000	0.177931
1919.000000	0.177004
1920.000000	0.175716
1921.000000	0.174773
1922.000000	0.174172
1923.000000	0.174080
1924.000000	0.174027
1925.000000	0.173738
1926.000000	0.173315
1927.000000	0.171869
1928.000000	0.171222
1929.000000	0.170868
1930.000000	0.171191
1931.000000	0.170927
1932.000000	0.171934
1933.000000	0.172659
1934.000000	0.172438
1935.000000	0.173199
1936.000000	0.173271
1937.000000	0.173137
1938.000000	0.174175
1939.000000	0.174466
1940.000000	0.174505
1941.000000	0.174362
1942.000000	0.174237
1943.000000	0.172906
1944.000000	0.172184
1945.000000	0.171840
1946.000000	0.171062
1947.000000	0.171272
1948.000000	0.171221
1949.000000	0.171425
1950.000000	0.172042
1951.000000	0.172094
1952.000000	0.171784
1953.000000	0.171722
1954.000000	0.171298
1955.000000	0.170603
1956.000000	0.170026
1957.000000	0.169414
1958.000000	0.168808
1959.000000	0.168616
1960.000000	0.168919
1961.000000	0.168736
1962.000000	0.168523
1963.000000	0.168369
1964.000000	0.168064
1965.000000	0.167337
1966.000000	0.166895
1967.000000	0.166545
1968.000000	0.166339
1969.000000	0.165986
1970.000000	0.165866
1971.000000	0.166196
1972.000000	0.166504
1973.000000	0.166600
1974.000000	0.166855
1975.000000	0.167157
1976.000000	0.167382
1977.000000	0.167380
1978.000000	0.167724
1979.000000	0.167911
1980.000000	0.167849
1981.000000	0.168506
1982.000000	0.169450
1983.000000	0.170495
1984.000000	0.171163
1985.000000	0.171759
1986.000000	0.172189
1987.000000	0.172288
1988.000000	0.172540
1989.000000	0.172897
1990.000000	0.173254
1991.000000	0.173720
1992.000000	0.174214
1993.000000	0.174643
1994.000000	0.175216
1995.000000	0.175624
1996.000000	0.175772
1997.000000	0.176418
1998.000000	0.177687
1999.000000	0.178659
2000.000000	0.179625
2001.000000	0.180799
2002.000000	0.182116
2003.000000	0.182806
2004.000000	0.183660
2005.000000	0.184182
2006.000000	0.184500
2007.000000	0.185085
2008.000000	0.185667
2009.000000	0.186417
2010.000000	0.187382
2011.000000	0.188253
2012.000000	0.189143
2013.000000	0.190412
2014.000000	0.190885
2015.000000	0.191603
2016.000000	0.192624
2017.000000	0.193251
2018.000000	0.194389
2019.000000	0.195379
2020.000000	0.195922
2021.000000	0.196626
2022.000000	0.197457
2023.000000	0.197891
2024.000000	0.197734
2025.000000	0.198397
2026.000000	0.199103
2027.000000	0.199996
2028.000000	0.201478
2029.000000	0.203312
2030.000000	0.204222
2031.000000	0.205247
2032.000000	0.206551
2033.000000	0.207267
2034.000000	0.208180
2035.000000	0.209541
2036.000000	0.210264
2037.000000	0.210717
2038.000000	0.211222
2039.000000	0.211664
2040.000000	0.211852
2041.000000	0.212034
2042.000000	0.212550
2043.000000	0.212853
2044.000000	0.213443
2045.000000	0.214064
2046.000000	0.214345
2047.000000	0.215105
2048.000000	0.216086
2049.000000	0.217151
2050.000000	0.218653
2051.000000	0.219324
2052.000000	0.219240
2053.000000	0.219605
2054.000000	0.219859
2055.000000	0.220395
2056.000000	0.221099
2057.000000	0.222032
2058.000000	0.222532
2059.000000	0.223019
2060.000000	0.223778
2061.000000	0.225028
2062.000000	0.225534
2063.000000	0.225696
2064.000000	0.226076
2065.000000	0.226369
2066.000000	0.226639
2067.000000	0.227124
2068.000000	0.228030
2069.000000	0.228782
2070.000000	0.229807
2071.000000	0.230815
2072.000000	0.231669
2073.000000	0.232397
2074.000000	0.232576
2075.000000	0.233175
2076.000000	0.234292
2077.000000	0.234771
2078.000000	0.234751
2079.000000	0.235315
2080.000000	0.235884
2081.000000	0.236475
2082.000000	0.237394
2083.000000	0.238340
2084.000000	0.239280
2085.000000	0.239950
2086.000000	0.240694
2087.000000	0.241666
2088.000000	0.242437
2089.000000	0.243065
2090.000000	0.243877
2091.000000	0.245230
2092.000000	0.245744
2093.000000	0.246021
2094.000000	0.246089
2095.000000	0.245158
2096.000000	0.245174
2097.000000	0.245476
2098.000000	0.245742
2099.000000	0.246386
2100.000000	0.247515
2101.000000	0.248136
2102.000000	0.248696
2103.000000	0.249693
2104.000000	0.250306
2105.000000	0.251005
2106.000000	0.252002
2107.000000	0.252562
2108.000000	0.252681
2109.000000	0.253116
2110.000000	0.252959
2111.000000	0.253299
2112.000000	0.253904
2113.000000	0.254799
2114.000000	0.255026
2115.000000	0.255897
2116.000000	0.256487
2117.000000	0.256352
2118.000000	0.256119
2119.000000	0.256426
2120.000000	0.256370
2121.000000	0.255669
2122.000000	0.255498
2123.000000	0.255388
2124.000000	0.255726
2125.000000	0.256787
2126.000000	0.257538
2127.000000	0.258736
2128.000000	0.259377
2129.000000	0.259382
2130.000000	0.259544
2131.000000	0.259514
2132.000000	0.259521
2133.000000	0.260633
2134.000000	0.261459
2135.000000	0.262446
2136.000000	0.263154
2137.000000	0.263398
2138.000000	0.262894
2139.000000	0.262888
2140.000000	0.262774
2141.000000	0.262799
2142.000000	0.262974
2143.000000	0.262820
2144.000000	0.262802
2145.000000	0.262675
2146.000000	0.262318
2147.000000	0.262336
2148.000000	0.262849
2149.000000	0.262949
2150.000000	0.263020
2151.000000	0.263328
2152.000000	0.263227
2153.000000	0.262955
2154.000000	0.262729
2155.000000	0.262638
2156.000000	0.262328
2157.000000	0.261616
2158.000000	0.261690
2159.000000	0.262341
2160.000000	0.262696
2161.000000	0.263418
2162.000000	0.263676
2163.000000	0.263210
2164.000000	0.263126
2165.000000	0.263009
2166.000000	0.263348
2167.000000	0.263643
2168.000000	0.263277
2169.000000	0.262470
2170.000000	0.261556
2171.000000	0.261832
2172.000000	0.262635
2173.000000	0.263626
2174.000000	0.266291
2175.000000	0.267238
2176.000000	0.267272
2177.000000	0.267555
2178.000000	0.267190
2179.000000	0.267170
2180.000000	0.267155
2181.000000	0.267491
2182.000000	0.267439
2183.000000	0.268038
2184.000000	0.267659
2185.000000	0.266869
2186.000000	0.265729
2187.000000	0.264370
2188.000000	0.264676
2189.000000	0.265018
2190.000000	0.264822
2191.000000	0.265346
2192.000000	0.265397
2193.000000	0.264786
2194.000000	0.264397
2195.000000	0.264676
2196.000000	0.263812
2197.000000	0.261515
2198.000000	0.260496
2199.000000	0.259483
2200.000000	0.258854
2201.000000	0.258789
2202.000000	0.259120
2203.000000	0.259131
2204.000000	0.260866
2205.000000	0.263179
2206.000000	0.265524
2207.000000	0.266660
2208.000000	0.265637
2209.000000	0.263959
2210.000000	0.262281
2211.000000	0.258952
2212.000000	0.258847
2213.000000	0.259661
2214.000000	0.261832
2215.000000	0.262492
2216.000000	0.265106
2217.000000	0.265254
2218.000000	0.262462
2219.000000	0.262172
2220.000000	0.261992
2221.000000	0.263077
2222.000000	0.266273
2223.000000	0.267357
2224.000000	0.269531
2225.000000	0.269190
2226.000000	0.264889
2227.000000	0.261470
2228.000000	0.258034
2229.000000	0.255574
2230.000000	0.256624
2231.000000	0.258122
2232.000000	0.259734
2233.000000	0.261502
2234.000000	0.263078
2235.000000	0.265218
2236.000000	0.265965
2237.000000	0.266915
2238.000000	0.265680
2239.000000	0.260761
2240.000000	0.260080
2241.000000	0.260125
2242.000000	0.260522
2243.000000	0.264808
2244.000000	0.265093
2245.000000	0.262203
2246.000000	0.261044
2247.000000	0.258922
2248.000000	0.258269
2249.000000	0.258383
2250.000000	0.259883
2251.000000	0.261747
2252.000000	0.262965
2253.000000	0.264707
2254.000000	0.264896
2255.000000	0.263354
2256.000000	0.262267
2257.000000	0.262574
2258.000000	0.262225
2259.000000	0.261417
2260.000000	0.261936
2261.000000	0.261595
2262.000000	0.260205
2263.000000	0.259404
2264.000000	0.258553
2265.000000	0.258270
2266.000000	0.257574
2267.000000	0.258225
2268.000000	0.261119
2269.000000	0.262111
2270.000000	0.263974
2271.000000	0.263008
2272.000000	0.258943
2273.000000	0.256803
2274.000000	0.253673
2275.000000	0.251453
2276.000000	0.250575
2277.000000	0.248907
2278.000000	0.248408
2279.000000	0.246669
2280.000000	0.245296
2281.000000	0.245649
2282.000000	0.244056
2283.000000	0.242708
2284.000000	0.241974
2285.000000	0.241793
2286.000000	0.242590
2287.000000	0.242173
2288.000000	0.242559
2289.000000	0.242163
2290.000000	0.240857
2291.000000	0.242264
2292.000000	0.243046
2293.000000	0.243073
2294.000000	0.242707
2295.000000	0.242289
2296.000000	0.240086
2297.000000	0.235853
2298.000000	0.233959
2299.000000	0.230968
2300.000000	0.230464
2301.000000	0.232441
2302.000000	0.233989
2303.000000	0.238170
2304.000000	0.239032
2305.000000	0.238352
2306.000000	0.237843
2307.000000	0.235152
2308.000000	0.233112
2309.000000	0.233454
2310.000000	0.235567
2311.000000	0.236799
2312.000000	0.237604
2313.000000	0.238354
2314.000000	0.238582
2315.000000	0.239241
2316.000000	0.237745
2317.000000	0.235332
2318.000000	0.232025
2319.000000	0.229124
2320.000000	0.228592
2321.000000	0.229557
2322.000000	0.229447
2323.000000	0.228250
2324.000000	0.229657
2325.000000	0.228731
2326.000000	0.228537
2327.000000	0.229483
2328.000000	0.228021
2329.000000	0.228111
2330.000000	0.227683
2331.000000	0.226997
2332.000000	0.223446
2333.000000	0.220860
2334.000000	0.221319
2335.000000	0.220455
2336.000000	0.220015
2337.000000	0.220163
2338.000000	0.219021
2339.000000	0.218454
2340.000000	0.219679
2341.000000	0.219661
2342.000000	0.218811
2343.000000	0.218292
2344.000000	0.218181
2345.000000	0.217001
2346.000000	0.216153
2347.000000	0.214341
2348.000000	0.211661
2349.000000	0.206187
2350.000000	0.204507
2351.000000	0.203080
2352.000000	0.204427
2353.000000	0.207251
2354.000000	0.205247
2355.000000	0.204252
2356.000000	0.201714
2357.000000	0.197672
2358.000000	0.196898
2359.000000	0.195891
2360.000000	0.195307
2361.000000	0.194578
2362.000000	0.193773
2363.000000	0.192386
2364.000000	0.187111
2365.000000	0.185811
2366.000000	0.187425
2367.000000	0.190043
2368.000000	0.196518
2369.000000	0.198805
2370.000000	0.197554
2371.000000	0.194864
2372.000000	0.189437
2373.000000	0.186004
2374.000000	0.184847
2375.000000	0.182185
2376.000000	0.177852
2377.000000	0.174169
2378.000000	0.172885
2379.000000	0.172448
2380.000000	0.174521
2381.000000	0.180719
2382.000000	0.180190
2383.000000	0.177828
2384.000000	0.178720
2385.000000	0.175192
2386.000000	0.175641
2387.000000	0.180070
2388.000000	0.178507
2389.000000	0.175003
2390.000000	0.174625
2391.000000	0.170786
2392.000000	0.166856
2393.000000	0.167245
2394.000000	0.160349
2395.000000	0.155715
2396.000000	0.154119
2397.000000	0.151334
2398.000000	0.161769
2399.000000	0.169190
2400.000000	0.164315
2401.000000	0.163647
2402.000000	0.163132
2403.000000	0.162057
2404.000000	0.173436
2405.000000	0.177870
2406.000000	0.171632
2407.000000	0.162745
2408.000000	0.146806
2409.000000	0.142991
2410.000000	0.142664
2411.000000	0.141153
2412.000000	0.152618
2413.000000	0.156118
2414.000000	0.158431
2415.000000	0.162840
2416.000000	0.156149
2417.000000	0.158667
2418.000000	0.157232
2419.000000	0.151540
2420.000000	0.153210
2421.000000	0.144953
2422.000000	0.139582
2423.000000	0.144305
2424.000000	0.142827
2425.000000	0.143260
2426.000000	0.147122
2427.000000	0.147492
2428.000000	0.150578
2429.000000	0.156240
2430.000000	0.160593
2431.000000	0.156361
2432.000000	0.151672
2433.000000	0.145468
2434.000000	0.139435
2435.000000	0.135723
2436.000000	0.136051
2437.000000	0.140687
2438.000000	0.129409
2439.000000	0.120634
2440.000000	0.123455
2441.000000	0.125615
2442.000000	0.140482
2443.000000	0.155904
2444.000000	0.151107
2445.000000	0.141633
2446.000000	0.129138
2447.000000	0.123336
2448.000000	0.125922
2449.000000	0.123327
2450.000000	0.130801
2451.000000	0.137360
2452.000000	0.138324
2453.000000	0.138083
2454.000000	0.134655
2455.000000	0.125467
2456.000000	0.116366
2457.000000	0.115083
2458.000000	0.119075
2459.000000	0.132793
2460.000000	0.146158
2461.000000	0.158244
2462.000000	0.164151
2463.000000	0.158196
2464.000000	0.145415
2465.000000	0.139888
2466.000000	0.137795
2467.000000	0.130632
2468.000000	0.134215
2469.000000	0.138104
2470.000000	0.134438
2471.000000	0.129911
2472.000000	0.128031
2473.000000	0.136650
2474.000000	0.155211
2475.000000	0.169779
2476.000000	0.171530
2477.000000	0.150112
2478.000000	0.125993
2479.000000	0.117390
2480.000000	0.099337
2481.000000	0.097876
2482.000000	0.096201
2483.000000	0.063657
2484.000000	0.048660
2485.000000	0.047136
2486.000000	0.033557
2487.000000	0.049431
2488.000000	0.097574
2489.000000	0.106503
2490.000000	0.100144
2491.000000	0.095043
2492.000000	0.091627
2493.000000	0.128269
2494.000000	0.135734
2495.000000	0.088486
2496.000000	0.083638
2497.000000	0.088825
2498.000000	0.082473
2499.000000	0.124596
2500.000000	0.130563
