# Wavelength	Nau-2_50_FV7_50_00000.asd.rts.txt
350.000000	0.118046
351.000000	0.127017
352.000000	0.119493
353.000000	0.111072
354.000000	0.111732
355.000000	0.119864
356.000000	0.120737
357.000000	0.117102
358.000000	0.121885
359.000000	0.117966
360.000000	0.117753
361.000000	0.133450
362.000000	0.125941
363.000000	0.120566
364.000000	0.130318
365.000000	0.125585
366.000000	0.121420
367.000000	0.121413
368.000000	0.120480
369.000000	0.119173
370.000000	0.118164
371.000000	0.118144
372.000000	0.118672
373.000000	0.121243
374.000000	0.125462
375.000000	0.124515
376.000000	0.121354
377.000000	0.118702
378.000000	0.119486
379.000000	0.121474
380.000000	0.123062
381.000000	0.123507
382.000000	0.124081
383.000000	0.123591
384.000000	0.122088
385.000000	0.123257
386.000000	0.125152
387.000000	0.126616
388.000000	0.127005
389.000000	0.127243
390.000000	0.126956
391.000000	0.125585
392.000000	0.127970
393.000000	0.129551
394.000000	0.127343
395.000000	0.127048
396.000000	0.127546
397.000000	0.128360
398.000000	0.130468
399.000000	0.129941
400.000000	0.128468
401.000000	0.129817
402.000000	0.129563
403.000000	0.128391
404.000000	0.127835
405.000000	0.128810
406.000000	0.129673
407.000000	0.129783
408.000000	0.130095
409.000000	0.130194
410.000000	0.130439
411.000000	0.131570
412.000000	0.131593
413.000000	0.131163
414.000000	0.131387
415.000000	0.132152
416.000000	0.132537
417.000000	0.132408
418.000000	0.133615
419.000000	0.133924
420.000000	0.133392
421.000000	0.133999
422.000000	0.134218
423.000000	0.134488
424.000000	0.135592
425.000000	0.135236
426.000000	0.135026
427.000000	0.136043
428.000000	0.136410
429.000000	0.136418
430.000000	0.136454
431.000000	0.137108
432.000000	0.137472
433.000000	0.137595
434.000000	0.137982
435.000000	0.138122
436.000000	0.138242
437.000000	0.138608
438.000000	0.139128
439.000000	0.139415
440.000000	0.139457
441.000000	0.139766
442.000000	0.140301
443.000000	0.140751
444.000000	0.140649
445.000000	0.140744
446.000000	0.141215
447.000000	0.141866
448.000000	0.141994
449.000000	0.142043
450.000000	0.142407
451.000000	0.143026
452.000000	0.143581
453.000000	0.143921
454.000000	0.144194
455.000000	0.144377
456.000000	0.144600
457.000000	0.144947
458.000000	0.145476
459.000000	0.145847
460.000000	0.145900
461.000000	0.146323
462.000000	0.146811
463.000000	0.147139
464.000000	0.147614
465.000000	0.147866
466.000000	0.147949
467.000000	0.148270
468.000000	0.148566
469.000000	0.148851
470.000000	0.149272
471.000000	0.149636
472.000000	0.149988
473.000000	0.150345
474.000000	0.150486
475.000000	0.150713
476.000000	0.151168
477.000000	0.151646
478.000000	0.151749
479.000000	0.151759
480.000000	0.152030
481.000000	0.152441
482.000000	0.152966
483.000000	0.153418
484.000000	0.153647
485.000000	0.153742
486.000000	0.153936
487.000000	0.154429
488.000000	0.154748
489.000000	0.154877
490.000000	0.155085
491.000000	0.155416
492.000000	0.155675
493.000000	0.155593
494.000000	0.155651
495.000000	0.155785
496.000000	0.155886
497.000000	0.156010
498.000000	0.156209
499.000000	0.156459
500.000000	0.156509
501.000000	0.156578
502.000000	0.156752
503.000000	0.157006
504.000000	0.157298
505.000000	0.157528
506.000000	0.157645
507.000000	0.157800
508.000000	0.158134
509.000000	0.158605
510.000000	0.158900
511.000000	0.159121
512.000000	0.159384
513.000000	0.159806
514.000000	0.160147
515.000000	0.160475
516.000000	0.160888
517.000000	0.161237
518.000000	0.161626
519.000000	0.162076
520.000000	0.162462
521.000000	0.162794
522.000000	0.163160
523.000000	0.163789
524.000000	0.164341
525.000000	0.164859
526.000000	0.165610
527.000000	0.166472
528.000000	0.167313
529.000000	0.168075
530.000000	0.168966
531.000000	0.169930
532.000000	0.170903
533.000000	0.172099
534.000000	0.173212
535.000000	0.174200
536.000000	0.175320
537.000000	0.176432
538.000000	0.177537
539.000000	0.178662
540.000000	0.179671
541.000000	0.180591
542.000000	0.181501
543.000000	0.182416
544.000000	0.183256
545.000000	0.184003
546.000000	0.184918
547.000000	0.185852
548.000000	0.186769
549.000000	0.187634
550.000000	0.188664
551.000000	0.189819
552.000000	0.190954
553.000000	0.192127
554.000000	0.193412
555.000000	0.194839
556.000000	0.196337
557.000000	0.197738
558.000000	0.199104
559.000000	0.200530
560.000000	0.201993
561.000000	0.203490
562.000000	0.204909
563.000000	0.206244
564.000000	0.207561
565.000000	0.208840
566.000000	0.210053
567.000000	0.211242
568.000000	0.212391
569.000000	0.213399
570.000000	0.214355
571.000000	0.215262
572.000000	0.216073
573.000000	0.216738
574.000000	0.217308
575.000000	0.217904
576.000000	0.218482
577.000000	0.218883
578.000000	0.219095
579.000000	0.219407
580.000000	0.219733
581.000000	0.220007
582.000000	0.220194
583.000000	0.220328
584.000000	0.220435
585.000000	0.220541
586.000000	0.220502
587.000000	0.220396
588.000000	0.220334
589.000000	0.220214
590.000000	0.220048
591.000000	0.219856
592.000000	0.219671
593.000000	0.219426
594.000000	0.219120
595.000000	0.218827
596.000000	0.218495
597.000000	0.218163
598.000000	0.217819
599.000000	0.217403
600.000000	0.216985
601.000000	0.216569
602.000000	0.216142
603.000000	0.215726
604.000000	0.215314
605.000000	0.214808
606.000000	0.214396
607.000000	0.214022
608.000000	0.213470
609.000000	0.213029
610.000000	0.212675
611.000000	0.212307
612.000000	0.211910
613.000000	0.211457
614.000000	0.210991
615.000000	0.210627
616.000000	0.210291
617.000000	0.209938
618.000000	0.209621
619.000000	0.209192
620.000000	0.208774
621.000000	0.208607
622.000000	0.208316
623.000000	0.207943
624.000000	0.207603
625.000000	0.207445
626.000000	0.207274
627.000000	0.207012
628.000000	0.206744
629.000000	0.206589
630.000000	0.206442
631.000000	0.206269
632.000000	0.206151
633.000000	0.206028
634.000000	0.205834
635.000000	0.205722
636.000000	0.205630
637.000000	0.205521
638.000000	0.205515
639.000000	0.205427
640.000000	0.205320
641.000000	0.205359
642.000000	0.205373
643.000000	0.205359
644.000000	0.205362
645.000000	0.205367
646.000000	0.205435
647.000000	0.205577
648.000000	0.205698
649.000000	0.205839
650.000000	0.206017
651.000000	0.206282
652.000000	0.206482
653.000000	0.206675
654.000000	0.206942
655.000000	0.207185
656.000000	0.207457
657.000000	0.207780
658.000000	0.208170
659.000000	0.208530
660.000000	0.208828
661.000000	0.209190
662.000000	0.209593
663.000000	0.210047
664.000000	0.210503
665.000000	0.210988
666.000000	0.211548
667.000000	0.212175
668.000000	0.212711
669.000000	0.213262
670.000000	0.213897
671.000000	0.214587
672.000000	0.215263
673.000000	0.215907
674.000000	0.216556
675.000000	0.217220
676.000000	0.217922
677.000000	0.218688
678.000000	0.219422
679.000000	0.220195
680.000000	0.221061
681.000000	0.221961
682.000000	0.222934
683.000000	0.223913
684.000000	0.224885
685.000000	0.225911
686.000000	0.226986
687.000000	0.228039
688.000000	0.229042
689.000000	0.230069
690.000000	0.231197
691.000000	0.232356
692.000000	0.233509
693.000000	0.234690
694.000000	0.235875
695.000000	0.237063
696.000000	0.238277
697.000000	0.239550
698.000000	0.240828
699.000000	0.242149
700.000000	0.243529
701.000000	0.244812
702.000000	0.246185
703.000000	0.247654
704.000000	0.249013
705.000000	0.250425
706.000000	0.251882
707.000000	0.253384
708.000000	0.254852
709.000000	0.256317
710.000000	0.257819
711.000000	0.259258
712.000000	0.260756
713.000000	0.262343
714.000000	0.263864
715.000000	0.265389
716.000000	0.266936
717.000000	0.268483
718.000000	0.270020
719.000000	0.271554
720.000000	0.273109
721.000000	0.274691
722.000000	0.276197
723.000000	0.277659
724.000000	0.279135
725.000000	0.280588
726.000000	0.282086
727.000000	0.283581
728.000000	0.285127
729.000000	0.286677
730.000000	0.288150
731.000000	0.289640
732.000000	0.291071
733.000000	0.292457
734.000000	0.293816
735.000000	0.295163
736.000000	0.296569
737.000000	0.297884
738.000000	0.299134
739.000000	0.300409
740.000000	0.301614
741.000000	0.302875
742.000000	0.304086
743.000000	0.305212
744.000000	0.306389
745.000000	0.307508
746.000000	0.308624
747.000000	0.309737
748.000000	0.310814
749.000000	0.311844
750.000000	0.312803
751.000000	0.313776
752.000000	0.314725
753.000000	0.315641
754.000000	0.316509
755.000000	0.317360
756.000000	0.318209
757.000000	0.319010
758.000000	0.319741
759.000000	0.320435
760.000000	0.321072
761.000000	0.321815
762.000000	0.322483
763.000000	0.323076
764.000000	0.323780
765.000000	0.324398
766.000000	0.324968
767.000000	0.325545
768.000000	0.326087
769.000000	0.326594
770.000000	0.327071
771.000000	0.327514
772.000000	0.327934
773.000000	0.328309
774.000000	0.328744
775.000000	0.329152
776.000000	0.329509
777.000000	0.329791
778.000000	0.330015
779.000000	0.330276
780.000000	0.330587
781.000000	0.330861
782.000000	0.331108
783.000000	0.331402
784.000000	0.331638
785.000000	0.331890
786.000000	0.332146
787.000000	0.332367
788.000000	0.332491
789.000000	0.332617
790.000000	0.332769
791.000000	0.332976
792.000000	0.333099
793.000000	0.333180
794.000000	0.333278
795.000000	0.333378
796.000000	0.333432
797.000000	0.333443
798.000000	0.333484
799.000000	0.333613
800.000000	0.333740
801.000000	0.333758
802.000000	0.333774
803.000000	0.333811
804.000000	0.333890
805.000000	0.333898
806.000000	0.333857
807.000000	0.333862
808.000000	0.333881
809.000000	0.333931
810.000000	0.333988
811.000000	0.334003
812.000000	0.333935
813.000000	0.333865
814.000000	0.333790
815.000000	0.333654
816.000000	0.333511
817.000000	0.333399
818.000000	0.333276
819.000000	0.333344
820.000000	0.333333
821.000000	0.333109
822.000000	0.332910
823.000000	0.332790
824.000000	0.332705
825.000000	0.332694
826.000000	0.332705
827.000000	0.332672
828.000000	0.332618
829.000000	0.332599
830.000000	0.332474
831.000000	0.332324
832.000000	0.332159
833.000000	0.331891
834.000000	0.331663
835.000000	0.331610
836.000000	0.331608
837.000000	0.331586
838.000000	0.331546
839.000000	0.331492
840.000000	0.331336
841.000000	0.331147
842.000000	0.330972
843.000000	0.330857
844.000000	0.330761
845.000000	0.330615
846.000000	0.330400
847.000000	0.330181
848.000000	0.329983
849.000000	0.329833
850.000000	0.329615
851.000000	0.329395
852.000000	0.329252
853.000000	0.329157
854.000000	0.328929
855.000000	0.328665
856.000000	0.328361
857.000000	0.328162
858.000000	0.328042
859.000000	0.327895
860.000000	0.327774
861.000000	0.327651
862.000000	0.327543
863.000000	0.327392
864.000000	0.327190
865.000000	0.326959
866.000000	0.326746
867.000000	0.326560
868.000000	0.326296
869.000000	0.325923
870.000000	0.325581
871.000000	0.325354
872.000000	0.325197
873.000000	0.324989
874.000000	0.324695
875.000000	0.324443
876.000000	0.324221
877.000000	0.323897
878.000000	0.323541
879.000000	0.323361
880.000000	0.323267
881.000000	0.323109
882.000000	0.322962
883.000000	0.322775
884.000000	0.322417
885.000000	0.322184
886.000000	0.321953
887.000000	0.321652
888.000000	0.321282
889.000000	0.320999
890.000000	0.320756
891.000000	0.320625
892.000000	0.320350
893.000000	0.319928
894.000000	0.319554
895.000000	0.319286
896.000000	0.318919
897.000000	0.318583
898.000000	0.318457
899.000000	0.318226
900.000000	0.317948
901.000000	0.317652
902.000000	0.317428
903.000000	0.317258
904.000000	0.317088
905.000000	0.316777
906.000000	0.316510
907.000000	0.316183
908.000000	0.315856
909.000000	0.315580
910.000000	0.315409
911.000000	0.315159
912.000000	0.314744
913.000000	0.314533
914.000000	0.314343
915.000000	0.314120
916.000000	0.313754
917.000000	0.313508
918.000000	0.313282
919.000000	0.312977
920.000000	0.312763
921.000000	0.312445
922.000000	0.312090
923.000000	0.311839
924.000000	0.311498
925.000000	0.311155
926.000000	0.310908
927.000000	0.310708
928.000000	0.310395
929.000000	0.310083
930.000000	0.309910
931.000000	0.309546
932.000000	0.309136
933.000000	0.308842
934.000000	0.308705
935.000000	0.308506
936.000000	0.308266
937.000000	0.307965
938.000000	0.307741
939.000000	0.307470
940.000000	0.307182
941.000000	0.307123
942.000000	0.306799
943.000000	0.306469
944.000000	0.306215
945.000000	0.306064
946.000000	0.305908
947.000000	0.305665
948.000000	0.305236
949.000000	0.304802
950.000000	0.304492
951.000000	0.304238
952.000000	0.303931
953.000000	0.303839
954.000000	0.303660
955.000000	0.303174
956.000000	0.302938
957.000000	0.302744
958.000000	0.302505
959.000000	0.302302
960.000000	0.302057
961.000000	0.301870
962.000000	0.301723
963.000000	0.301504
964.000000	0.301319
965.000000	0.301150
966.000000	0.300852
967.000000	0.300491
968.000000	0.300169
969.000000	0.299998
970.000000	0.300134
971.000000	0.300073
972.000000	0.299970
973.000000	0.299799
974.000000	0.299440
975.000000	0.299132
976.000000	0.298915
977.000000	0.298793
978.000000	0.298883
979.000000	0.298621
980.000000	0.298100
981.000000	0.298104
982.000000	0.298061
983.000000	0.297723
984.000000	0.297286
985.000000	0.297184
986.000000	0.296771
987.000000	0.296443
988.000000	0.296351
989.000000	0.296057
990.000000	0.296227
991.000000	0.296443
992.000000	0.296215
993.000000	0.296458
994.000000	0.296168
995.000000	0.295599
996.000000	0.295510
997.000000	0.295521
998.000000	0.295619
999.000000	0.295721
1000.000000	0.295348
1001.000000	0.296211
1002.000000	0.295558
1003.000000	0.294920
1004.000000	0.294680
1005.000000	0.294993
1006.000000	0.295222
1007.000000	0.296109
1008.000000	0.295504
1009.000000	0.295170
1010.000000	0.295281
1011.000000	0.294898
1012.000000	0.295179
1013.000000	0.294897
1014.000000	0.294237
1015.000000	0.294193
1016.000000	0.294174
1017.000000	0.294219
1018.000000	0.294390
1019.000000	0.294735
1020.000000	0.295568
1021.000000	0.295432
1022.000000	0.295259
1023.000000	0.295194
1024.000000	0.294477
1025.000000	0.293657
1026.000000	0.293765
1027.000000	0.293839
1028.000000	0.294168
1029.000000	0.295006
1030.000000	0.295320
1031.000000	0.295730
1032.000000	0.296211
1033.000000	0.296049
1034.000000	0.295749
1035.000000	0.294895
1036.000000	0.294805
1037.000000	0.294920
1038.000000	0.294930
1039.000000	0.295303
1040.000000	0.296074
1041.000000	0.296093
1042.000000	0.295415
1043.000000	0.295636
1044.000000	0.295614
1045.000000	0.295347
1046.000000	0.295849
1047.000000	0.296274
1048.000000	0.296759
1049.000000	0.296897
1050.000000	0.297204
1051.000000	0.297150
1052.000000	0.296368
1053.000000	0.296245
1054.000000	0.296715
1055.000000	0.296815
1056.000000	0.296919
1057.000000	0.296973
1058.000000	0.297150
1059.000000	0.297337
1060.000000	0.297703
1061.000000	0.298348
1062.000000	0.298800
1063.000000	0.299296
1064.000000	0.299744
1065.000000	0.300454
1066.000000	0.300651
1067.000000	0.300265
1068.000000	0.300264
1069.000000	0.300023
1070.000000	0.300125
1071.000000	0.300684
1072.000000	0.301168
1073.000000	0.301978
1074.000000	0.302544
1075.000000	0.302508
1076.000000	0.302680
1077.000000	0.302441
1078.000000	0.301924
1079.000000	0.301880
1080.000000	0.302094
1081.000000	0.302256
1082.000000	0.302798
1083.000000	0.303030
1084.000000	0.303033
1085.000000	0.303369
1086.000000	0.303817
1087.000000	0.304133
1088.000000	0.304559
1089.000000	0.304906
1090.000000	0.305024
1091.000000	0.305114
1092.000000	0.305635
1093.000000	0.305764
1094.000000	0.306061
1095.000000	0.306337
1096.000000	0.306624
1097.000000	0.307028
1098.000000	0.307193
1099.000000	0.306989
1100.000000	0.307245
1101.000000	0.307715
1102.000000	0.307826
1103.000000	0.307931
1104.000000	0.308135
1105.000000	0.308034
1106.000000	0.308065
1107.000000	0.308202
1108.000000	0.308480
1109.000000	0.308835
1110.000000	0.309220
1111.000000	0.309565
1112.000000	0.310193
1113.000000	0.310462
1114.000000	0.310439
1115.000000	0.310601
1116.000000	0.310765
1117.000000	0.310929
1118.000000	0.311005
1119.000000	0.311227
1120.000000	0.311670
1121.000000	0.311846
1122.000000	0.312213
1123.000000	0.312455
1124.000000	0.311838
1125.000000	0.311898
1126.000000	0.312318
1127.000000	0.312504
1128.000000	0.312734
1129.000000	0.313383
1130.000000	0.313530
1131.000000	0.313243
1132.000000	0.313300
1133.000000	0.313436
1134.000000	0.313631
1135.000000	0.313991
1136.000000	0.314104
1137.000000	0.314115
1138.000000	0.314108
1139.000000	0.313980
1140.000000	0.314081
1141.000000	0.314210
1142.000000	0.314404
1143.000000	0.314712
1144.000000	0.315025
1145.000000	0.315142
1146.000000	0.315388
1147.000000	0.315429
1148.000000	0.315206
1149.000000	0.315237
1150.000000	0.315250
1151.000000	0.315419
1152.000000	0.315731
1153.000000	0.315966
1154.000000	0.316234
1155.000000	0.316373
1156.000000	0.316508
1157.000000	0.316555
1158.000000	0.316384
1159.000000	0.316339
1160.000000	0.316227
1161.000000	0.316203
1162.000000	0.316369
1163.000000	0.316558
1164.000000	0.316665
1165.000000	0.316854
1166.000000	0.316983
1167.000000	0.317036
1168.000000	0.317070
1169.000000	0.317095
1170.000000	0.317193
1171.000000	0.317334
1172.000000	0.317505
1173.000000	0.317759
1174.000000	0.317850
1175.000000	0.317795
1176.000000	0.317811
1177.000000	0.317863
1178.000000	0.317925
1179.000000	0.318009
1180.000000	0.318076
1181.000000	0.318210
1182.000000	0.318332
1183.000000	0.318553
1184.000000	0.318742
1185.000000	0.318870
1186.000000	0.318976
1187.000000	0.318979
1188.000000	0.318896
1189.000000	0.318830
1190.000000	0.318744
1191.000000	0.318674
1192.000000	0.318642
1193.000000	0.318809
1194.000000	0.318958
1195.000000	0.319087
1196.000000	0.319270
1197.000000	0.319426
1198.000000	0.319565
1199.000000	0.319696
1200.000000	0.319873
1201.000000	0.319985
1202.000000	0.319983
1203.000000	0.320064
1204.000000	0.320256
1205.000000	0.320468
1206.000000	0.320438
1207.000000	0.320423
1208.000000	0.320346
1209.000000	0.319996
1210.000000	0.320026
1211.000000	0.320337
1212.000000	0.320453
1213.000000	0.320662
1214.000000	0.320859
1215.000000	0.320946
1216.000000	0.321068
1217.000000	0.321318
1218.000000	0.321387
1219.000000	0.321317
1220.000000	0.321318
1221.000000	0.321420
1222.000000	0.321404
1223.000000	0.321550
1224.000000	0.321741
1225.000000	0.321611
1226.000000	0.321540
1227.000000	0.321540
1228.000000	0.321537
1229.000000	0.321578
1230.000000	0.321761
1231.000000	0.321797
1232.000000	0.321901
1233.000000	0.322043
1234.000000	0.322143
1235.000000	0.322220
1236.000000	0.322215
1237.000000	0.322242
1238.000000	0.322215
1239.000000	0.322227
1240.000000	0.322259
1241.000000	0.322246
1242.000000	0.322285
1243.000000	0.322260
1244.000000	0.322348
1245.000000	0.322537
1246.000000	0.322418
1247.000000	0.322588
1248.000000	0.322889
1249.000000	0.322883
1250.000000	0.323090
1251.000000	0.323271
1252.000000	0.323355
1253.000000	0.323340
1254.000000	0.323334
1255.000000	0.323299
1256.000000	0.323289
1257.000000	0.323246
1258.000000	0.323257
1259.000000	0.323210
1260.000000	0.323289
1261.000000	0.323377
1262.000000	0.323422
1263.000000	0.323483
1264.000000	0.323661
1265.000000	0.323867
1266.000000	0.324038
1267.000000	0.324307
1268.000000	0.324443
1269.000000	0.324315
1270.000000	0.324313
1271.000000	0.324307
1272.000000	0.324295
1273.000000	0.324384
1274.000000	0.324367
1275.000000	0.324311
1276.000000	0.324191
1277.000000	0.324242
1278.000000	0.324243
1279.000000	0.324240
1280.000000	0.324281
1281.000000	0.324223
1282.000000	0.324082
1283.000000	0.324155
1284.000000	0.324224
1285.000000	0.324303
1286.000000	0.324507
1287.000000	0.324556
1288.000000	0.324562
1289.000000	0.324737
1290.000000	0.324683
1291.000000	0.324634
1292.000000	0.324684
1293.000000	0.324634
1294.000000	0.324647
1295.000000	0.324753
1296.000000	0.324819
1297.000000	0.324760
1298.000000	0.324835
1299.000000	0.325069
1300.000000	0.325182
1301.000000	0.325190
1302.000000	0.325147
1303.000000	0.325096
1304.000000	0.325019
1305.000000	0.324978
1306.000000	0.324986
1307.000000	0.325083
1308.000000	0.325099
1309.000000	0.325120
1310.000000	0.325124
1311.000000	0.325089
1312.000000	0.325053
1313.000000	0.325066
1314.000000	0.325137
1315.000000	0.325191
1316.000000	0.325194
1317.000000	0.325240
1318.000000	0.325327
1319.000000	0.325322
1320.000000	0.325362
1321.000000	0.325322
1322.000000	0.325255
1323.000000	0.325261
1324.000000	0.325200
1325.000000	0.325189
1326.000000	0.325243
1327.000000	0.325299
1328.000000	0.325398
1329.000000	0.325404
1330.000000	0.325388
1331.000000	0.325367
1332.000000	0.325343
1333.000000	0.325334
1334.000000	0.325423
1335.000000	0.325468
1336.000000	0.325461
1337.000000	0.325464
1338.000000	0.325443
1339.000000	0.325333
1340.000000	0.325265
1341.000000	0.325182
1342.000000	0.325077
1343.000000	0.325046
1344.000000	0.325018
1345.000000	0.325122
1346.000000	0.325360
1347.000000	0.325477
1348.000000	0.325675
1349.000000	0.325697
1350.000000	0.325734
1351.000000	0.325733
1352.000000	0.325574
1353.000000	0.325643
1354.000000	0.325588
1355.000000	0.325320
1356.000000	0.325408
1357.000000	0.325412
1358.000000	0.325346
1359.000000	0.325485
1360.000000	0.325507
1361.000000	0.325417
1362.000000	0.325333
1363.000000	0.325224
1364.000000	0.325160
1365.000000	0.325032
1366.000000	0.325025
1367.000000	0.325091
1368.000000	0.325155
1369.000000	0.325323
1370.000000	0.325221
1371.000000	0.325057
1372.000000	0.324909
1373.000000	0.324721
1374.000000	0.324711
1375.000000	0.324592
1376.000000	0.324475
1377.000000	0.324368
1378.000000	0.324046
1379.000000	0.323770
1380.000000	0.323639
1381.000000	0.323477
1382.000000	0.323225
1383.000000	0.322932
1384.000000	0.322492
1385.000000	0.321943
1386.000000	0.321481
1387.000000	0.320876
1388.000000	0.320172
1389.000000	0.319587
1390.000000	0.318925
1391.000000	0.318158
1392.000000	0.317402
1393.000000	0.316659
1394.000000	0.315891
1395.000000	0.315105
1396.000000	0.314463
1397.000000	0.313542
1398.000000	0.312239
1399.000000	0.311262
1400.000000	0.310378
1401.000000	0.309389
1402.000000	0.308523
1403.000000	0.307619
1404.000000	0.306611
1405.000000	0.305631
1406.000000	0.304947
1407.000000	0.304453
1408.000000	0.303888
1409.000000	0.303549
1410.000000	0.303378
1411.000000	0.303104
1412.000000	0.302882
1413.000000	0.302788
1414.000000	0.302647
1415.000000	0.302466
1416.000000	0.302451
1417.000000	0.302478
1418.000000	0.302354
1419.000000	0.302505
1420.000000	0.302622
1421.000000	0.302649
1422.000000	0.302852
1423.000000	0.303000
1424.000000	0.302965
1425.000000	0.303021
1426.000000	0.303000
1427.000000	0.302943
1428.000000	0.302974
1429.000000	0.303048
1430.000000	0.303108
1431.000000	0.303109
1432.000000	0.303078
1433.000000	0.303010
1434.000000	0.302987
1435.000000	0.303031
1436.000000	0.303082
1437.000000	0.303079
1438.000000	0.303200
1439.000000	0.303393
1440.000000	0.303719
1441.000000	0.304296
1442.000000	0.304747
1443.000000	0.305125
1444.000000	0.305561
1445.000000	0.305998
1446.000000	0.306499
1447.000000	0.307197
1448.000000	0.307867
1449.000000	0.308485
1450.000000	0.309185
1451.000000	0.309801
1452.000000	0.310239
1453.000000	0.310696
1454.000000	0.311039
1455.000000	0.311324
1456.000000	0.311766
1457.000000	0.312144
1458.000000	0.312412
1459.000000	0.312755
1460.000000	0.313085
1461.000000	0.313269
1462.000000	0.313483
1463.000000	0.313655
1464.000000	0.313787
1465.000000	0.314104
1466.000000	0.314411
1467.000000	0.314648
1468.000000	0.314985
1469.000000	0.315392
1470.000000	0.315641
1471.000000	0.315877
1472.000000	0.316136
1473.000000	0.316447
1474.000000	0.316804
1475.000000	0.317189
1476.000000	0.317480
1477.000000	0.317783
1478.000000	0.318054
1479.000000	0.318288
1480.000000	0.318648
1481.000000	0.318819
1482.000000	0.318806
1483.000000	0.318929
1484.000000	0.319037
1485.000000	0.319194
1486.000000	0.319404
1487.000000	0.319593
1488.000000	0.319877
1489.000000	0.320054
1490.000000	0.320021
1491.000000	0.320103
1492.000000	0.320045
1493.000000	0.320134
1494.000000	0.320360
1495.000000	0.320521
1496.000000	0.320728
1497.000000	0.320885
1498.000000	0.321018
1499.000000	0.321036
1500.000000	0.321219
1501.000000	0.321425
1502.000000	0.321407
1503.000000	0.321574
1504.000000	0.321728
1505.000000	0.321769
1506.000000	0.322080
1507.000000	0.322294
1508.000000	0.322375
1509.000000	0.322500
1510.000000	0.322536
1511.000000	0.322572
1512.000000	0.322623
1513.000000	0.322635
1514.000000	0.322787
1515.000000	0.323026
1516.000000	0.323244
1517.000000	0.323446
1518.000000	0.323405
1519.000000	0.323173
1520.000000	0.323140
1521.000000	0.323140
1522.000000	0.323307
1523.000000	0.323604
1524.000000	0.323688
1525.000000	0.323709
1526.000000	0.323685
1527.000000	0.323611
1528.000000	0.323642
1529.000000	0.323729
1530.000000	0.323716
1531.000000	0.323896
1532.000000	0.324067
1533.000000	0.324045
1534.000000	0.324183
1535.000000	0.324196
1536.000000	0.324063
1537.000000	0.324122
1538.000000	0.324074
1539.000000	0.324002
1540.000000	0.324150
1541.000000	0.324341
1542.000000	0.324442
1543.000000	0.324617
1544.000000	0.324705
1545.000000	0.324742
1546.000000	0.324889
1547.000000	0.324942
1548.000000	0.324964
1549.000000	0.324972
1550.000000	0.324918
1551.000000	0.324919
1552.000000	0.324958
1553.000000	0.324945
1554.000000	0.324984
1555.000000	0.325007
1556.000000	0.324980
1557.000000	0.324997
1558.000000	0.325021
1559.000000	0.324988
1560.000000	0.324996
1561.000000	0.325062
1562.000000	0.325055
1563.000000	0.325039
1564.000000	0.325138
1565.000000	0.325303
1566.000000	0.325338
1567.000000	0.325516
1568.000000	0.325500
1569.000000	0.325376
1570.000000	0.325347
1571.000000	0.325308
1572.000000	0.325269
1573.000000	0.325222
1574.000000	0.325155
1575.000000	0.325091
1576.000000	0.325097
1577.000000	0.325110
1578.000000	0.325150
1579.000000	0.325318
1580.000000	0.325377
1581.000000	0.325491
1582.000000	0.325574
1583.000000	0.325590
1584.000000	0.325561
1585.000000	0.325551
1586.000000	0.325645
1587.000000	0.325773
1588.000000	0.325828
1589.000000	0.325973
1590.000000	0.326060
1591.000000	0.326072
1592.000000	0.326106
1593.000000	0.326200
1594.000000	0.326197
1595.000000	0.326163
1596.000000	0.326133
1597.000000	0.326089
1598.000000	0.326019
1599.000000	0.325978
1600.000000	0.325892
1601.000000	0.325898
1602.000000	0.325845
1603.000000	0.325726
1604.000000	0.325625
1605.000000	0.325496
1606.000000	0.325462
1607.000000	0.325521
1608.000000	0.325582
1609.000000	0.325799
1610.000000	0.325882
1611.000000	0.325981
1612.000000	0.326013
1613.000000	0.326042
1614.000000	0.326034
1615.000000	0.325991
1616.000000	0.326054
1617.000000	0.326127
1618.000000	0.326198
1619.000000	0.326351
1620.000000	0.326371
1621.000000	0.326296
1622.000000	0.326352
1623.000000	0.326378
1624.000000	0.326391
1625.000000	0.326308
1626.000000	0.326278
1627.000000	0.326268
1628.000000	0.326246
1629.000000	0.326252
1630.000000	0.326265
1631.000000	0.326146
1632.000000	0.326115
1633.000000	0.326239
1634.000000	0.326218
1635.000000	0.326157
1636.000000	0.326097
1637.000000	0.325963
1638.000000	0.325904
1639.000000	0.325977
1640.000000	0.325979
1641.000000	0.326036
1642.000000	0.326075
1643.000000	0.326119
1644.000000	0.326136
1645.000000	0.326142
1646.000000	0.326140
1647.000000	0.326215
1648.000000	0.326144
1649.000000	0.326042
1650.000000	0.326048
1651.000000	0.326072
1652.000000	0.326057
1653.000000	0.326075
1654.000000	0.326112
1655.000000	0.325999
1656.000000	0.325890
1657.000000	0.325971
1658.000000	0.325887
1659.000000	0.325738
1660.000000	0.325716
1661.000000	0.325600
1662.000000	0.325633
1663.000000	0.325795
1664.000000	0.325833
1665.000000	0.325851
1666.000000	0.325926
1667.000000	0.325892
1668.000000	0.325862
1669.000000	0.325919
1670.000000	0.325781
1671.000000	0.325543
1672.000000	0.325526
1673.000000	0.325523
1674.000000	0.325489
1675.000000	0.325521
1676.000000	0.325357
1677.000000	0.325194
1678.000000	0.325208
1679.000000	0.325212
1680.000000	0.325198
1681.000000	0.325229
1682.000000	0.325158
1683.000000	0.325209
1684.000000	0.325374
1685.000000	0.325430
1686.000000	0.325326
1687.000000	0.325134
1688.000000	0.324886
1689.000000	0.324769
1690.000000	0.324807
1691.000000	0.324962
1692.000000	0.324965
1693.000000	0.324917
1694.000000	0.324913
1695.000000	0.324922
1696.000000	0.325056
1697.000000	0.325028
1698.000000	0.324920
1699.000000	0.324913
1700.000000	0.324857
1701.000000	0.324906
1702.000000	0.324895
1703.000000	0.324875
1704.000000	0.324966
1705.000000	0.325003
1706.000000	0.325074
1707.000000	0.325124
1708.000000	0.325117
1709.000000	0.325057
1710.000000	0.325036
1711.000000	0.325085
1712.000000	0.325232
1713.000000	0.325218
1714.000000	0.325144
1715.000000	0.325218
1716.000000	0.325313
1717.000000	0.325327
1718.000000	0.325381
1719.000000	0.325444
1720.000000	0.325518
1721.000000	0.325454
1722.000000	0.325461
1723.000000	0.325333
1724.000000	0.324919
1725.000000	0.324737
1726.000000	0.324510
1727.000000	0.324445
1728.000000	0.324489
1729.000000	0.324380
1730.000000	0.324443
1731.000000	0.324438
1732.000000	0.324349
1733.000000	0.324345
1734.000000	0.324255
1735.000000	0.324239
1736.000000	0.324225
1737.000000	0.324125
1738.000000	0.324077
1739.000000	0.323968
1740.000000	0.323688
1741.000000	0.323584
1742.000000	0.323596
1743.000000	0.323567
1744.000000	0.323550
1745.000000	0.323482
1746.000000	0.323348
1747.000000	0.323491
1748.000000	0.323413
1749.000000	0.323276
1750.000000	0.323119
1751.000000	0.322783
1752.000000	0.322772
1753.000000	0.322969
1754.000000	0.322992
1755.000000	0.323077
1756.000000	0.323005
1757.000000	0.322564
1758.000000	0.322436
1759.000000	0.322377
1760.000000	0.322399
1761.000000	0.322668
1762.000000	0.322770
1763.000000	0.322916
1764.000000	0.322895
1765.000000	0.322597
1766.000000	0.322527
1767.000000	0.322378
1768.000000	0.322258
1769.000000	0.322397
1770.000000	0.322463
1771.000000	0.322402
1772.000000	0.322392
1773.000000	0.322417
1774.000000	0.322370
1775.000000	0.322302
1776.000000	0.322300
1777.000000	0.322267
1778.000000	0.322239
1779.000000	0.322245
1780.000000	0.322253
1781.000000	0.322198
1782.000000	0.322184
1783.000000	0.322239
1784.000000	0.322296
1785.000000	0.322429
1786.000000	0.322483
1787.000000	0.322509
1788.000000	0.322440
1789.000000	0.322213
1790.000000	0.322143
1791.000000	0.322074
1792.000000	0.322297
1793.000000	0.322308
1794.000000	0.322232
1795.000000	0.322158
1796.000000	0.321848
1797.000000	0.321664
1798.000000	0.321527
1799.000000	0.321422
1800.000000	0.321405
1801.000000	0.320698
1802.000000	0.321221
1803.000000	0.322434
1804.000000	0.323475
1805.000000	0.325240
1806.000000	0.326031
1807.000000	0.326590
1808.000000	0.326885
1809.000000	0.326620
1810.000000	0.326247
1811.000000	0.325796
1812.000000	0.325011
1813.000000	0.324725
1814.000000	0.324696
1815.000000	0.324369
1816.000000	0.324101
1817.000000	0.323830
1818.000000	0.323708
1819.000000	0.322933
1820.000000	0.322616
1821.000000	0.322629
1822.000000	0.322459
1823.000000	0.322097
1824.000000	0.321896
1825.000000	0.321796
1826.000000	0.321675
1827.000000	0.321551
1828.000000	0.321136
1829.000000	0.320623
1830.000000	0.320205
1831.000000	0.320266
1832.000000	0.320476
1833.000000	0.320732
1834.000000	0.321642
1835.000000	0.322091
1836.000000	0.322028
1837.000000	0.322339
1838.000000	0.322958
1839.000000	0.323138
1840.000000	0.322826
1841.000000	0.322993
1842.000000	0.322458
1843.000000	0.320729
1844.000000	0.320223
1845.000000	0.319641
1846.000000	0.319581
1847.000000	0.320428
1848.000000	0.320782
1849.000000	0.320612
1850.000000	0.320737
1851.000000	0.320333
1852.000000	0.318871
1853.000000	0.318714
1854.000000	0.319049
1855.000000	0.318822
1856.000000	0.318742
1857.000000	0.318442
1858.000000	0.318118
1859.000000	0.317264
1860.000000	0.316722
1861.000000	0.317310
1862.000000	0.317439
1863.000000	0.317905
1864.000000	0.317719
1865.000000	0.317328
1866.000000	0.316786
1867.000000	0.315637
1868.000000	0.314569
1869.000000	0.314224
1870.000000	0.313281
1871.000000	0.312288
1872.000000	0.311974
1873.000000	0.311454
1874.000000	0.310778
1875.000000	0.310266
1876.000000	0.309810
1877.000000	0.308993
1878.000000	0.307653
1879.000000	0.306837
1880.000000	0.305773
1881.000000	0.304045
1882.000000	0.302405
1883.000000	0.300558
1884.000000	0.298280
1885.000000	0.295088
1886.000000	0.292375
1887.000000	0.289748
1888.000000	0.286259
1889.000000	0.283152
1890.000000	0.280681
1891.000000	0.278169
1892.000000	0.275702
1893.000000	0.272968
1894.000000	0.270474
1895.000000	0.267492
1896.000000	0.264026
1897.000000	0.260827
1898.000000	0.257671
1899.000000	0.253990
1900.000000	0.251048
1901.000000	0.248340
1902.000000	0.246111
1903.000000	0.244987
1904.000000	0.244250
1905.000000	0.244105
1906.000000	0.244176
1907.000000	0.244971
1908.000000	0.245656
1909.000000	0.246311
1910.000000	0.247159
1911.000000	0.248132
1912.000000	0.249123
1913.000000	0.250126
1914.000000	0.251059
1915.000000	0.252442
1916.000000	0.254192
1917.000000	0.255520
1918.000000	0.257105
1919.000000	0.258508
1920.000000	0.259490
1921.000000	0.260771
1922.000000	0.262086
1923.000000	0.263072
1924.000000	0.264274
1925.000000	0.265243
1926.000000	0.266073
1927.000000	0.267637
1928.000000	0.268579
1929.000000	0.269374
1930.000000	0.269406
1931.000000	0.269624
1932.000000	0.270003
1933.000000	0.270868
1934.000000	0.271959
1935.000000	0.272883
1936.000000	0.273603
1937.000000	0.273574
1938.000000	0.273245
1939.000000	0.273151
1940.000000	0.273023
1941.000000	0.272726
1942.000000	0.273188
1943.000000	0.274011
1944.000000	0.274705
1945.000000	0.275284
1946.000000	0.275253
1947.000000	0.275186
1948.000000	0.274849
1949.000000	0.274517
1950.000000	0.274686
1951.000000	0.274894
1952.000000	0.275277
1953.000000	0.275747
1954.000000	0.276019
1955.000000	0.276285
1956.000000	0.276297
1957.000000	0.276266
1958.000000	0.277000
1959.000000	0.277717
1960.000000	0.277543
1961.000000	0.277128
1962.000000	0.277192
1963.000000	0.277193
1964.000000	0.277313
1965.000000	0.278105
1966.000000	0.279161
1967.000000	0.279781
1968.000000	0.280035
1969.000000	0.279887
1970.000000	0.280129
1971.000000	0.280326
1972.000000	0.280147
1973.000000	0.280280
1974.000000	0.281006
1975.000000	0.281345
1976.000000	0.281406
1977.000000	0.282101
1978.000000	0.282773
1979.000000	0.283050
1980.000000	0.283606
1981.000000	0.284067
1982.000000	0.284505
1983.000000	0.285136
1984.000000	0.285693
1985.000000	0.286833
1986.000000	0.286970
1987.000000	0.286614
1988.000000	0.286351
1989.000000	0.285836
1990.000000	0.285165
1991.000000	0.285574
1992.000000	0.286147
1993.000000	0.286511
1994.000000	0.287266
1995.000000	0.288019
1996.000000	0.288531
1997.000000	0.288908
1998.000000	0.289107
1999.000000	0.289683
2000.000000	0.290244
2001.000000	0.290907
2002.000000	0.291732
2003.000000	0.292801
2004.000000	0.293292
2005.000000	0.293115
2006.000000	0.293296
2007.000000	0.293046
2008.000000	0.292790
2009.000000	0.292334
2010.000000	0.292311
2011.000000	0.292080
2012.000000	0.292121
2013.000000	0.292714
2014.000000	0.292436
2015.000000	0.292340
2016.000000	0.292409
2017.000000	0.292579
2018.000000	0.293619
2019.000000	0.294437
2020.000000	0.295320
2021.000000	0.295816
2022.000000	0.295742
2023.000000	0.295811
2024.000000	0.295559
2025.000000	0.295815
2026.000000	0.296005
2027.000000	0.296755
2028.000000	0.297740
2029.000000	0.298465
2030.000000	0.298559
2031.000000	0.298280
2032.000000	0.297998
2033.000000	0.298111
2034.000000	0.298368
2035.000000	0.299434
2036.000000	0.299768
2037.000000	0.299826
2038.000000	0.300124
2039.000000	0.300606
2040.000000	0.300708
2041.000000	0.300845
2042.000000	0.300867
2043.000000	0.300270
2044.000000	0.300080
2045.000000	0.299773
2046.000000	0.300015
2047.000000	0.300157
2048.000000	0.300177
2049.000000	0.300613
2050.000000	0.301073
2051.000000	0.301297
2052.000000	0.301703
2053.000000	0.301757
2054.000000	0.301678
2055.000000	0.301625
2056.000000	0.301700
2057.000000	0.301919
2058.000000	0.302323
2059.000000	0.303347
2060.000000	0.303940
2061.000000	0.304699
2062.000000	0.304971
2063.000000	0.304965
2064.000000	0.304671
2065.000000	0.304266
2066.000000	0.303879
2067.000000	0.303385
2068.000000	0.303208
2069.000000	0.303468
2070.000000	0.303597
2071.000000	0.303990
2072.000000	0.304490
2073.000000	0.304664
2074.000000	0.304562
2075.000000	0.304579
2076.000000	0.304429
2077.000000	0.304505
2078.000000	0.304782
2079.000000	0.304822
2080.000000	0.304980
2081.000000	0.304969
2082.000000	0.304500
2083.000000	0.304637
2084.000000	0.304754
2085.000000	0.304584
2086.000000	0.304925
2087.000000	0.305052
2088.000000	0.305029
2089.000000	0.305559
2090.000000	0.305514
2091.000000	0.304779
2092.000000	0.305003
2093.000000	0.305513
2094.000000	0.305868
2095.000000	0.307358
2096.000000	0.307762
2097.000000	0.307328
2098.000000	0.306791
2099.000000	0.306354
2100.000000	0.305704
2101.000000	0.305595
2102.000000	0.306235
2103.000000	0.306569
2104.000000	0.306539
2105.000000	0.306587
2106.000000	0.306311
2107.000000	0.306454
2108.000000	0.306978
2109.000000	0.307088
2110.000000	0.307077
2111.000000	0.306809
2112.000000	0.305928
2113.000000	0.305114
2114.000000	0.304796
2115.000000	0.304715
2116.000000	0.304703
2117.000000	0.305043
2118.000000	0.305468
2119.000000	0.305678
2120.000000	0.305904
2121.000000	0.306330
2122.000000	0.306406
2123.000000	0.305843
2124.000000	0.306077
2125.000000	0.306826
2126.000000	0.306979
2127.000000	0.307393
2128.000000	0.307624
2129.000000	0.307235
2130.000000	0.307083
2131.000000	0.306485
2132.000000	0.305801
2133.000000	0.305170
2134.000000	0.304173
2135.000000	0.304624
2136.000000	0.305541
2137.000000	0.305747
2138.000000	0.306399
2139.000000	0.306219
2140.000000	0.304592
2141.000000	0.304329
2142.000000	0.304126
2143.000000	0.304270
2144.000000	0.306042
2145.000000	0.306615
2146.000000	0.307022
2147.000000	0.307439
2148.000000	0.306298
2149.000000	0.305836
2150.000000	0.305442
2151.000000	0.304934
2152.000000	0.306324
2153.000000	0.307034
2154.000000	0.307331
2155.000000	0.308047
2156.000000	0.307904
2157.000000	0.306544
2158.000000	0.305789
2159.000000	0.304726
2160.000000	0.304315
2161.000000	0.304176
2162.000000	0.304460
2163.000000	0.305902
2164.000000	0.306345
2165.000000	0.306688
2166.000000	0.306272
2167.000000	0.305629
2168.000000	0.303929
2169.000000	0.303987
2170.000000	0.304181
2171.000000	0.304157
2172.000000	0.304934
2173.000000	0.304712
2174.000000	0.303167
2175.000000	0.303192
2176.000000	0.303692
2177.000000	0.304399
2178.000000	0.306099
2179.000000	0.307526
2180.000000	0.309078
2181.000000	0.310443
2182.000000	0.311599
2183.000000	0.312285
2184.000000	0.312691
2185.000000	0.311826
2186.000000	0.309425
2187.000000	0.307760
2188.000000	0.306097
2189.000000	0.304453
2190.000000	0.303565
2191.000000	0.302782
2192.000000	0.302489
2193.000000	0.302320
2194.000000	0.302102
2195.000000	0.303197
2196.000000	0.303365
2197.000000	0.302113
2198.000000	0.301924
2199.000000	0.301870
2200.000000	0.302522
2201.000000	0.304898
2202.000000	0.306271
2203.000000	0.308111
2204.000000	0.308440
2205.000000	0.306963
2206.000000	0.305349
2207.000000	0.302868
2208.000000	0.302095
2209.000000	0.302743
2210.000000	0.300654
2211.000000	0.301344
2212.000000	0.302673
2213.000000	0.302776
2214.000000	0.304363
2215.000000	0.303289
2216.000000	0.299020
2217.000000	0.297107
2218.000000	0.293982
2219.000000	0.292933
2220.000000	0.294735
2221.000000	0.294742
2222.000000	0.293315
2223.000000	0.294699
2224.000000	0.297124
2225.000000	0.299937
2226.000000	0.303080
2227.000000	0.303973
2228.000000	0.302020
2229.000000	0.298457
2230.000000	0.296784
2231.000000	0.295608
2232.000000	0.295712
2233.000000	0.297497
2234.000000	0.295867
2235.000000	0.297690
2236.000000	0.298650
2237.000000	0.298986
2238.000000	0.299106
2239.000000	0.300353
2240.000000	0.299145
2241.000000	0.295699
2242.000000	0.293998
2243.000000	0.291308
2244.000000	0.290528
2245.000000	0.292123
2246.000000	0.292666
2247.000000	0.293956
2248.000000	0.294671
2249.000000	0.296091
2250.000000	0.293848
2251.000000	0.292060
2252.000000	0.290071
2253.000000	0.289734
2254.000000	0.290669
2255.000000	0.292459
2256.000000	0.295377
2257.000000	0.295504
2258.000000	0.294936
2259.000000	0.295707
2260.000000	0.296369
2261.000000	0.295389
2262.000000	0.293562
2263.000000	0.293445
2264.000000	0.292494
2265.000000	0.291412
2266.000000	0.292373
2267.000000	0.292164
2268.000000	0.289689
2269.000000	0.288851
2270.000000	0.289118
2271.000000	0.288425
2272.000000	0.287938
2273.000000	0.287114
2274.000000	0.285704
2275.000000	0.285537
2276.000000	0.285571
2277.000000	0.285203
2278.000000	0.287343
2279.000000	0.286803
2280.000000	0.283685
2281.000000	0.281562
2282.000000	0.278947
2283.000000	0.276609
2284.000000	0.274978
2285.000000	0.273865
2286.000000	0.273592
2287.000000	0.271563
2288.000000	0.270604
2289.000000	0.270922
2290.000000	0.268206
2291.000000	0.264860
2292.000000	0.264068
2293.000000	0.262602
2294.000000	0.262192
2295.000000	0.264757
2296.000000	0.264451
2297.000000	0.262655
2298.000000	0.261743
2299.000000	0.259262
2300.000000	0.259003
2301.000000	0.259913
2302.000000	0.260928
2303.000000	0.262731
2304.000000	0.264063
2305.000000	0.266512
2306.000000	0.268213
2307.000000	0.268791
2308.000000	0.271170
2309.000000	0.273599
2310.000000	0.274183
2311.000000	0.275608
2312.000000	0.277275
2313.000000	0.276659
2314.000000	0.276134
2315.000000	0.276799
2316.000000	0.275897
2317.000000	0.276349
2318.000000	0.280559
2319.000000	0.283491
2320.000000	0.285450
2321.000000	0.287867
2322.000000	0.288051
2323.000000	0.288121
2324.000000	0.288483
2325.000000	0.287223
2326.000000	0.286787
2327.000000	0.286432
2328.000000	0.287149
2329.000000	0.288688
2330.000000	0.286084
2331.000000	0.283849
2332.000000	0.283347
2333.000000	0.281997
2334.000000	0.283394
2335.000000	0.284459
2336.000000	0.284591
2337.000000	0.284218
2338.000000	0.284613
2339.000000	0.284741
2340.000000	0.283983
2341.000000	0.284362
2342.000000	0.284522
2343.000000	0.285452
2344.000000	0.288917
2345.000000	0.290502
2346.000000	0.292810
2347.000000	0.292485
2348.000000	0.290098
2349.000000	0.285201
2350.000000	0.282458
2351.000000	0.280631
2352.000000	0.280932
2353.000000	0.281014
2354.000000	0.278905
2355.000000	0.277166
2356.000000	0.275476
2357.000000	0.274381
2358.000000	0.272922
2359.000000	0.272436
2360.000000	0.273441
2361.000000	0.272286
2362.000000	0.274253
2363.000000	0.277787
2364.000000	0.274552
2365.000000	0.275451
2366.000000	0.276120
2367.000000	0.270109
2368.000000	0.272261
2369.000000	0.274189
2370.000000	0.270167
2371.000000	0.271009
2372.000000	0.269876
2373.000000	0.268929
2374.000000	0.268523
2375.000000	0.267127
2376.000000	0.272213
2377.000000	0.273099
2378.000000	0.273040
2379.000000	0.273503
2380.000000	0.266630
2381.000000	0.261908
2382.000000	0.257624
2383.000000	0.256960
2384.000000	0.259133
2385.000000	0.258925
2386.000000	0.262257
2387.000000	0.264250
2388.000000	0.263482
2389.000000	0.261181
2390.000000	0.257087
2391.000000	0.254188
2392.000000	0.255853
2393.000000	0.258907
2394.000000	0.259031
2395.000000	0.262081
2396.000000	0.261554
2397.000000	0.256869
2398.000000	0.260133
2399.000000	0.260336
2400.000000	0.260998
2401.000000	0.263861
2402.000000	0.260535
2403.000000	0.260804
2404.000000	0.260469
2405.000000	0.259590
2406.000000	0.258375
2407.000000	0.255395
2408.000000	0.250512
2409.000000	0.242687
2410.000000	0.239697
2411.000000	0.237862
2412.000000	0.232354
2413.000000	0.234089
2414.000000	0.245755
2415.000000	0.246852
2416.000000	0.250737
2417.000000	0.255209
2418.000000	0.245271
2419.000000	0.247937
2420.000000	0.256438
2421.000000	0.258730
2422.000000	0.261654
2423.000000	0.264838
2424.000000	0.259349
2425.000000	0.252399
2426.000000	0.256598
2427.000000	0.256314
2428.000000	0.255369
2429.000000	0.264170
2430.000000	0.264278
2431.000000	0.255625
2432.000000	0.255786
2433.000000	0.256156
2434.000000	0.244791
2435.000000	0.240219
2436.000000	0.235665
2437.000000	0.221548
2438.000000	0.226705
2439.000000	0.244331
2440.000000	0.258755
2441.000000	0.271460
2442.000000	0.279865
2443.000000	0.278579
2444.000000	0.269249
2445.000000	0.270884
2446.000000	0.272051
2447.000000	0.266096
2448.000000	0.262280
2449.000000	0.248400
2450.000000	0.243314
2451.000000	0.245294
2452.000000	0.241635
2453.000000	0.244888
2454.000000	0.230664
2455.000000	0.213924
2456.000000	0.212981
2457.000000	0.203798
2458.000000	0.205249
2459.000000	0.221981
2460.000000	0.234179
2461.000000	0.247228
2462.000000	0.257504
2463.000000	0.249261
2464.000000	0.224340
2465.000000	0.212281
2466.000000	0.217740
2467.000000	0.220748
2468.000000	0.229345
2469.000000	0.250566
2470.000000	0.247186
2471.000000	0.226919
2472.000000	0.234594
2473.000000	0.232757
2474.000000	0.217815
2475.000000	0.212149
2476.000000	0.198325
2477.000000	0.180297
2478.000000	0.177808
2479.000000	0.197432
2480.000000	0.205380
2481.000000	0.206431
2482.000000	0.197317
2483.000000	0.188316
2484.000000	0.178542
2485.000000	0.165894
2486.000000	0.177273
2487.000000	0.190876
2488.000000	0.210061
2489.000000	0.188848
2490.000000	0.169887
2491.000000	0.127968
2492.000000	0.139725
2493.000000	0.248920
2494.000000	0.310214
2495.000000	0.396321
2496.000000	0.391605
2497.000000	0.272138
2498.000000	0.237652
2499.000000	0.179350
2500.000000	0.163842
