# Wavelength	NAu-2-50_HEX-10_FV7-40_00002.asd.rts.txt
350.000000	0.122037
351.000000	0.151615
352.000000	0.132013
353.000000	0.113928
354.000000	0.119291
355.000000	0.105928
356.000000	0.103580
357.000000	0.112605
358.000000	0.111062
359.000000	0.102226
360.000000	0.099810
361.000000	0.114508
362.000000	0.121541
363.000000	0.118737
364.000000	0.110662
365.000000	0.114017
366.000000	0.116904
367.000000	0.115670
368.000000	0.113339
369.000000	0.113430
370.000000	0.114849
371.000000	0.115262
372.000000	0.116486
373.000000	0.116699
374.000000	0.115373
375.000000	0.115380
376.000000	0.113374
377.000000	0.110237
378.000000	0.111183
379.000000	0.110760
380.000000	0.110930
381.000000	0.115155
382.000000	0.114764
383.000000	0.114753
384.000000	0.118005
385.000000	0.116747
386.000000	0.116421
387.000000	0.117569
388.000000	0.115048
389.000000	0.114863
390.000000	0.116906
391.000000	0.118699
392.000000	0.117760
393.000000	0.117398
394.000000	0.119400
395.000000	0.118127
396.000000	0.116446
397.000000	0.115906
398.000000	0.116535
399.000000	0.117290
400.000000	0.117822
401.000000	0.118012
402.000000	0.117848
403.000000	0.117345
404.000000	0.116912
405.000000	0.118428
406.000000	0.119125
407.000000	0.118384
408.000000	0.119240
409.000000	0.119906
410.000000	0.120063
411.000000	0.120097
412.000000	0.119987
413.000000	0.119944
414.000000	0.120181
415.000000	0.120658
416.000000	0.121263
417.000000	0.121802
418.000000	0.121818
419.000000	0.121967
420.000000	0.122224
421.000000	0.121947
422.000000	0.122420
423.000000	0.122986
424.000000	0.122657
425.000000	0.123148
426.000000	0.123682
427.000000	0.123678
428.000000	0.124187
429.000000	0.124396
430.000000	0.124328
431.000000	0.125219
432.000000	0.125335
433.000000	0.125060
434.000000	0.125725
435.000000	0.126120
436.000000	0.126421
437.000000	0.126866
438.000000	0.126787
439.000000	0.126607
440.000000	0.126700
441.000000	0.127179
442.000000	0.127518
443.000000	0.127674
444.000000	0.128025
445.000000	0.128669
446.000000	0.129090
447.000000	0.128762
448.000000	0.129354
449.000000	0.130023
450.000000	0.130174
451.000000	0.130597
452.000000	0.130991
453.000000	0.131303
454.000000	0.131882
455.000000	0.132296
456.000000	0.132617
457.000000	0.133016
458.000000	0.133387
459.000000	0.133717
460.000000	0.134039
461.000000	0.134410
462.000000	0.134657
463.000000	0.134698
464.000000	0.134896
465.000000	0.135100
466.000000	0.135322
467.000000	0.135738
468.000000	0.136043
469.000000	0.136346
470.000000	0.136878
471.000000	0.137199
472.000000	0.137282
473.000000	0.137280
474.000000	0.137622
475.000000	0.138036
476.000000	0.138416
477.000000	0.138603
478.000000	0.138876
479.000000	0.139280
480.000000	0.139577
481.000000	0.139844
482.000000	0.140143
483.000000	0.140388
484.000000	0.140557
485.000000	0.140636
486.000000	0.140784
487.000000	0.141206
488.000000	0.141490
489.000000	0.141611
490.000000	0.141790
491.000000	0.141947
492.000000	0.142102
493.000000	0.142222
494.000000	0.142369
495.000000	0.142609
496.000000	0.142890
497.000000	0.142939
498.000000	0.142929
499.000000	0.143013
500.000000	0.143267
501.000000	0.143320
502.000000	0.143347
503.000000	0.143690
504.000000	0.143841
505.000000	0.143926
506.000000	0.144151
507.000000	0.144489
508.000000	0.144815
509.000000	0.145064
510.000000	0.145377
511.000000	0.145698
512.000000	0.145994
513.000000	0.146197
514.000000	0.146506
515.000000	0.146936
516.000000	0.147385
517.000000	0.147657
518.000000	0.147967
519.000000	0.148418
520.000000	0.148782
521.000000	0.149156
522.000000	0.149596
523.000000	0.150085
524.000000	0.150631
525.000000	0.151234
526.000000	0.151916
527.000000	0.152667
528.000000	0.153486
529.000000	0.154385
530.000000	0.155223
531.000000	0.156171
532.000000	0.157256
533.000000	0.158328
534.000000	0.159413
535.000000	0.160505
536.000000	0.161583
537.000000	0.162732
538.000000	0.163849
539.000000	0.164768
540.000000	0.165743
541.000000	0.166723
542.000000	0.167656
543.000000	0.168607
544.000000	0.169497
545.000000	0.170275
546.000000	0.171099
547.000000	0.171974
548.000000	0.172919
549.000000	0.173893
550.000000	0.174863
551.000000	0.175923
552.000000	0.177137
553.000000	0.178339
554.000000	0.179581
555.000000	0.180916
556.000000	0.182303
557.000000	0.183724
558.000000	0.185239
559.000000	0.186762
560.000000	0.188240
561.000000	0.189727
562.000000	0.191229
563.000000	0.192618
564.000000	0.193997
565.000000	0.195385
566.000000	0.196594
567.000000	0.197713
568.000000	0.198797
569.000000	0.199845
570.000000	0.200793
571.000000	0.201653
572.000000	0.202528
573.000000	0.203267
574.000000	0.203877
575.000000	0.204463
576.000000	0.205033
577.000000	0.205445
578.000000	0.205684
579.000000	0.206042
580.000000	0.206339
581.000000	0.206513
582.000000	0.206705
583.000000	0.206830
584.000000	0.206906
585.000000	0.207005
586.000000	0.206958
587.000000	0.206828
588.000000	0.206716
589.000000	0.206556
590.000000	0.206374
591.000000	0.206174
592.000000	0.205861
593.000000	0.205585
594.000000	0.205361
595.000000	0.205076
596.000000	0.204768
597.000000	0.204458
598.000000	0.204085
599.000000	0.203596
600.000000	0.203132
601.000000	0.202731
602.000000	0.202193
603.000000	0.201679
604.000000	0.201239
605.000000	0.200690
606.000000	0.200195
607.000000	0.199737
608.000000	0.199188
609.000000	0.198685
610.000000	0.198226
611.000000	0.197780
612.000000	0.197379
613.000000	0.196992
614.000000	0.196617
615.000000	0.196232
616.000000	0.195845
617.000000	0.195461
618.000000	0.195153
619.000000	0.194824
620.000000	0.194441
621.000000	0.194049
622.000000	0.193762
623.000000	0.193501
624.000000	0.193191
625.000000	0.192873
626.000000	0.192620
627.000000	0.192466
628.000000	0.192407
629.000000	0.192239
630.000000	0.191960
631.000000	0.191868
632.000000	0.191757
633.000000	0.191626
634.000000	0.191486
635.000000	0.191227
636.000000	0.190982
637.000000	0.190822
638.000000	0.190705
639.000000	0.190670
640.000000	0.190703
641.000000	0.190632
642.000000	0.190578
643.000000	0.190569
644.000000	0.190608
645.000000	0.190713
646.000000	0.190799
647.000000	0.190818
648.000000	0.190936
649.000000	0.191091
650.000000	0.191255
651.000000	0.191484
652.000000	0.191703
653.000000	0.191941
654.000000	0.192218
655.000000	0.192531
656.000000	0.192878
657.000000	0.193201
658.000000	0.193431
659.000000	0.193732
660.000000	0.194150
661.000000	0.194552
662.000000	0.194969
663.000000	0.195449
664.000000	0.195983
665.000000	0.196490
666.000000	0.196976
667.000000	0.197459
668.000000	0.198018
669.000000	0.198613
670.000000	0.199232
671.000000	0.199949
672.000000	0.200676
673.000000	0.201365
674.000000	0.202015
675.000000	0.202769
676.000000	0.203621
677.000000	0.204518
678.000000	0.205360
679.000000	0.206173
680.000000	0.207015
681.000000	0.207969
682.000000	0.208970
683.000000	0.209940
684.000000	0.210929
685.000000	0.211947
686.000000	0.213008
687.000000	0.214090
688.000000	0.215157
689.000000	0.216217
690.000000	0.217327
691.000000	0.218566
692.000000	0.219839
693.000000	0.221127
694.000000	0.222365
695.000000	0.223706
696.000000	0.225108
697.000000	0.226451
698.000000	0.227723
699.000000	0.229081
700.000000	0.230608
701.000000	0.232030
702.000000	0.233440
703.000000	0.234891
704.000000	0.236425
705.000000	0.237982
706.000000	0.239483
707.000000	0.240927
708.000000	0.242460
709.000000	0.244051
710.000000	0.245656
711.000000	0.247253
712.000000	0.248876
713.000000	0.250536
714.000000	0.252149
715.000000	0.253811
716.000000	0.255518
717.000000	0.257197
718.000000	0.258896
719.000000	0.260593
720.000000	0.262275
721.000000	0.263943
722.000000	0.265550
723.000000	0.267152
724.000000	0.268811
725.000000	0.270372
726.000000	0.271943
727.000000	0.273594
728.000000	0.275237
729.000000	0.276894
730.000000	0.278530
731.000000	0.280121
732.000000	0.281671
733.000000	0.283202
734.000000	0.284653
735.000000	0.286085
736.000000	0.287591
737.000000	0.289032
738.000000	0.290421
739.000000	0.291832
740.000000	0.293162
741.000000	0.294510
742.000000	0.295888
743.000000	0.297238
744.000000	0.298497
745.000000	0.299747
746.000000	0.301009
747.000000	0.302196
748.000000	0.303387
749.000000	0.304543
750.000000	0.305632
751.000000	0.306808
752.000000	0.308000
753.000000	0.309130
754.000000	0.310083
755.000000	0.311116
756.000000	0.312156
757.000000	0.313021
758.000000	0.313873
759.000000	0.314726
760.000000	0.315512
761.000000	0.316286
762.000000	0.317085
763.000000	0.317826
764.000000	0.318437
765.000000	0.319062
766.000000	0.319720
767.000000	0.320375
768.000000	0.320941
769.000000	0.321426
770.000000	0.321889
771.000000	0.322451
772.000000	0.323061
773.000000	0.323593
774.000000	0.324038
775.000000	0.324486
776.000000	0.324936
777.000000	0.325345
778.000000	0.325670
779.000000	0.325991
780.000000	0.326330
781.000000	0.326623
782.000000	0.326919
783.000000	0.327262
784.000000	0.327510
785.000000	0.327746
786.000000	0.328025
787.000000	0.328333
788.000000	0.328524
789.000000	0.328796
790.000000	0.329096
791.000000	0.329302
792.000000	0.329469
793.000000	0.329599
794.000000	0.329683
795.000000	0.329632
796.000000	0.329611
797.000000	0.329685
798.000000	0.329825
799.000000	0.329929
800.000000	0.330015
801.000000	0.330130
802.000000	0.330208
803.000000	0.330273
804.000000	0.330331
805.000000	0.330162
806.000000	0.330062
807.000000	0.330109
808.000000	0.330108
809.000000	0.330136
810.000000	0.330188
811.000000	0.330226
812.000000	0.330209
813.000000	0.330140
814.000000	0.330056
815.000000	0.330045
816.000000	0.330083
817.000000	0.330150
818.000000	0.330117
819.000000	0.329928
820.000000	0.329817
821.000000	0.329800
822.000000	0.329737
823.000000	0.329581
824.000000	0.329359
825.000000	0.329257
826.000000	0.329234
827.000000	0.329157
828.000000	0.328984
829.000000	0.328694
830.000000	0.328508
831.000000	0.328463
832.000000	0.328316
833.000000	0.328247
834.000000	0.328108
835.000000	0.327856
836.000000	0.327754
837.000000	0.327628
838.000000	0.327521
839.000000	0.327577
840.000000	0.327350
841.000000	0.327139
842.000000	0.327191
843.000000	0.327086
844.000000	0.326937
845.000000	0.326766
846.000000	0.326564
847.000000	0.326364
848.000000	0.326216
849.000000	0.326163
850.000000	0.325978
851.000000	0.325774
852.000000	0.325639
853.000000	0.325495
854.000000	0.325122
855.000000	0.324809
856.000000	0.324718
857.000000	0.324489
858.000000	0.324262
859.000000	0.324055
860.000000	0.323889
861.000000	0.323713
862.000000	0.323534
863.000000	0.323305
864.000000	0.323144
865.000000	0.322931
866.000000	0.322640
867.000000	0.322353
868.000000	0.322164
869.000000	0.321935
870.000000	0.321585
871.000000	0.321287
872.000000	0.321038
873.000000	0.320766
874.000000	0.320543
875.000000	0.320292
876.000000	0.320038
877.000000	0.319769
878.000000	0.319493
879.000000	0.319257
880.000000	0.318961
881.000000	0.318759
882.000000	0.318462
883.000000	0.318137
884.000000	0.317870
885.000000	0.317591
886.000000	0.317259
887.000000	0.316931
888.000000	0.316753
889.000000	0.316573
890.000000	0.316252
891.000000	0.315918
892.000000	0.315638
893.000000	0.315467
894.000000	0.315417
895.000000	0.315009
896.000000	0.314587
897.000000	0.314265
898.000000	0.314040
899.000000	0.313705
900.000000	0.313401
901.000000	0.313165
902.000000	0.312991
903.000000	0.312876
904.000000	0.312765
905.000000	0.312499
906.000000	0.312179
907.000000	0.311887
908.000000	0.311688
909.000000	0.311437
910.000000	0.311139
911.000000	0.310799
912.000000	0.310466
913.000000	0.310246
914.000000	0.309990
915.000000	0.309724
916.000000	0.309430
917.000000	0.309054
918.000000	0.308733
919.000000	0.308525
920.000000	0.308298
921.000000	0.307998
922.000000	0.307645
923.000000	0.307284
924.000000	0.307049
925.000000	0.306800
926.000000	0.306504
927.000000	0.306229
928.000000	0.306216
929.000000	0.306090
930.000000	0.305506
931.000000	0.305486
932.000000	0.305411
933.000000	0.305023
934.000000	0.304453
935.000000	0.304132
936.000000	0.303960
937.000000	0.303688
938.000000	0.303538
939.000000	0.303377
940.000000	0.303105
941.000000	0.302822
942.000000	0.302538
943.000000	0.302274
944.000000	0.301935
945.000000	0.301661
946.000000	0.301404
947.000000	0.301218
948.000000	0.301059
949.000000	0.300638
950.000000	0.300416
951.000000	0.300352
952.000000	0.300040
953.000000	0.299742
954.000000	0.299484
955.000000	0.299192
956.000000	0.298936
957.000000	0.298751
958.000000	0.298547
959.000000	0.298329
960.000000	0.298187
961.000000	0.297899
962.000000	0.297482
963.000000	0.297305
964.000000	0.297170
965.000000	0.297003
966.000000	0.296728
967.000000	0.296742
968.000000	0.296472
969.000000	0.295938
970.000000	0.295601
971.000000	0.295585
972.000000	0.295474
973.000000	0.295137
974.000000	0.295031
975.000000	0.294759
976.000000	0.294553
977.000000	0.294558
978.000000	0.294312
979.000000	0.294244
980.000000	0.293987
981.000000	0.293477
982.000000	0.293535
983.000000	0.293324
984.000000	0.292855
985.000000	0.292942
986.000000	0.293005
987.000000	0.292829
988.000000	0.292338
989.000000	0.291990
990.000000	0.291936
991.000000	0.291947
992.000000	0.291804
993.000000	0.291880
994.000000	0.291777
995.000000	0.291596
996.000000	0.291445
997.000000	0.291586
998.000000	0.291721
999.000000	0.291734
1000.000000	0.291637
1001.000000	0.292189
1002.000000	0.291612
1003.000000	0.291291
1004.000000	0.291169
1005.000000	0.291119
1006.000000	0.291093
1007.000000	0.291322
1008.000000	0.291516
1009.000000	0.291499
1010.000000	0.291468
1011.000000	0.291641
1012.000000	0.291610
1013.000000	0.290826
1014.000000	0.290366
1015.000000	0.290131
1016.000000	0.290170
1017.000000	0.290397
1018.000000	0.290814
1019.000000	0.291035
1020.000000	0.290761
1021.000000	0.290562
1022.000000	0.291040
1023.000000	0.291223
1024.000000	0.290838
1025.000000	0.291273
1026.000000	0.291543
1027.000000	0.291316
1028.000000	0.291576
1029.000000	0.291957
1030.000000	0.292287
1031.000000	0.291993
1032.000000	0.291653
1033.000000	0.291761
1034.000000	0.291768
1035.000000	0.291864
1036.000000	0.291921
1037.000000	0.292090
1038.000000	0.292007
1039.000000	0.291584
1040.000000	0.291976
1041.000000	0.292395
1042.000000	0.292001
1043.000000	0.292247
1044.000000	0.292395
1045.000000	0.292363
1046.000000	0.292720
1047.000000	0.293077
1048.000000	0.293670
1049.000000	0.293726
1050.000000	0.293767
1051.000000	0.293636
1052.000000	0.292744
1053.000000	0.292552
1054.000000	0.292758
1055.000000	0.292967
1056.000000	0.293465
1057.000000	0.294131
1058.000000	0.294528
1059.000000	0.294696
1060.000000	0.294734
1061.000000	0.295040
1062.000000	0.295446
1063.000000	0.295803
1064.000000	0.296030
1065.000000	0.296058
1066.000000	0.296342
1067.000000	0.296708
1068.000000	0.296934
1069.000000	0.297207
1070.000000	0.297512
1071.000000	0.297702
1072.000000	0.297795
1073.000000	0.297865
1074.000000	0.298282
1075.000000	0.298431
1076.000000	0.298806
1077.000000	0.299274
1078.000000	0.299516
1079.000000	0.299729
1080.000000	0.299870
1081.000000	0.299867
1082.000000	0.299745
1083.000000	0.299899
1084.000000	0.299931
1085.000000	0.300255
1086.000000	0.301091
1087.000000	0.301537
1088.000000	0.301796
1089.000000	0.302088
1090.000000	0.302322
1091.000000	0.302335
1092.000000	0.302272
1093.000000	0.302637
1094.000000	0.302936
1095.000000	0.303136
1096.000000	0.303510
1097.000000	0.304317
1098.000000	0.304484
1099.000000	0.304179
1100.000000	0.304326
1101.000000	0.304195
1102.000000	0.304385
1103.000000	0.305142
1104.000000	0.305536
1105.000000	0.305810
1106.000000	0.306046
1107.000000	0.306099
1108.000000	0.306168
1109.000000	0.306298
1110.000000	0.306396
1111.000000	0.306356
1112.000000	0.306172
1113.000000	0.306261
1114.000000	0.306290
1115.000000	0.306516
1116.000000	0.307004
1117.000000	0.307419
1118.000000	0.307982
1119.000000	0.308234
1120.000000	0.308357
1121.000000	0.308552
1122.000000	0.308694
1123.000000	0.308968
1124.000000	0.309036
1125.000000	0.309320
1126.000000	0.309700
1127.000000	0.309879
1128.000000	0.310030
1129.000000	0.310310
1130.000000	0.310536
1131.000000	0.310639
1132.000000	0.310689
1133.000000	0.310836
1134.000000	0.310980
1135.000000	0.310901
1136.000000	0.310964
1137.000000	0.311221
1138.000000	0.311297
1139.000000	0.311314
1140.000000	0.311470
1141.000000	0.311559
1142.000000	0.311750
1143.000000	0.312076
1144.000000	0.312347
1145.000000	0.312543
1146.000000	0.312522
1147.000000	0.312484
1148.000000	0.312116
1149.000000	0.312189
1150.000000	0.312434
1151.000000	0.312579
1152.000000	0.312878
1153.000000	0.313010
1154.000000	0.312832
1155.000000	0.312934
1156.000000	0.313267
1157.000000	0.313395
1158.000000	0.313405
1159.000000	0.313515
1160.000000	0.313531
1161.000000	0.313593
1162.000000	0.313760
1163.000000	0.314256
1164.000000	0.314316
1165.000000	0.314129
1166.000000	0.314110
1167.000000	0.313876
1168.000000	0.313876
1169.000000	0.314094
1170.000000	0.314248
1171.000000	0.314514
1172.000000	0.314682
1173.000000	0.314774
1174.000000	0.314871
1175.000000	0.314879
1176.000000	0.314918
1177.000000	0.315070
1178.000000	0.315179
1179.000000	0.315259
1180.000000	0.315283
1181.000000	0.315322
1182.000000	0.315421
1183.000000	0.315555
1184.000000	0.315732
1185.000000	0.315821
1186.000000	0.315879
1187.000000	0.315986
1188.000000	0.316097
1189.000000	0.316119
1190.000000	0.316147
1191.000000	0.316259
1192.000000	0.316438
1193.000000	0.316668
1194.000000	0.316963
1195.000000	0.317151
1196.000000	0.317158
1197.000000	0.317198
1198.000000	0.317196
1199.000000	0.317301
1200.000000	0.317427
1201.000000	0.317612
1202.000000	0.317765
1203.000000	0.317925
1204.000000	0.317939
1205.000000	0.317910
1206.000000	0.317950
1207.000000	0.318155
1208.000000	0.318150
1209.000000	0.318134
1210.000000	0.318187
1211.000000	0.318136
1212.000000	0.318165
1213.000000	0.318389
1214.000000	0.318496
1215.000000	0.318495
1216.000000	0.318582
1217.000000	0.318693
1218.000000	0.318742
1219.000000	0.318803
1220.000000	0.318919
1221.000000	0.318982
1222.000000	0.318971
1223.000000	0.318989
1224.000000	0.319085
1225.000000	0.319212
1226.000000	0.319401
1227.000000	0.319621
1228.000000	0.319758
1229.000000	0.319745
1230.000000	0.319518
1231.000000	0.319436
1232.000000	0.319407
1233.000000	0.319499
1234.000000	0.319723
1235.000000	0.319857
1236.000000	0.319884
1237.000000	0.319970
1238.000000	0.319999
1239.000000	0.320069
1240.000000	0.320117
1241.000000	0.320303
1242.000000	0.320467
1243.000000	0.320559
1244.000000	0.320601
1245.000000	0.320648
1246.000000	0.320736
1247.000000	0.320877
1248.000000	0.320891
1249.000000	0.320938
1250.000000	0.320921
1251.000000	0.320895
1252.000000	0.321015
1253.000000	0.321399
1254.000000	0.321493
1255.000000	0.321498
1256.000000	0.321559
1257.000000	0.321535
1258.000000	0.321613
1259.000000	0.321765
1260.000000	0.321890
1261.000000	0.321872
1262.000000	0.321936
1263.000000	0.322097
1264.000000	0.322165
1265.000000	0.322260
1266.000000	0.322312
1267.000000	0.322314
1268.000000	0.322312
1269.000000	0.322298
1270.000000	0.322415
1271.000000	0.322581
1272.000000	0.322728
1273.000000	0.322744
1274.000000	0.322706
1275.000000	0.322785
1276.000000	0.322868
1277.000000	0.323035
1278.000000	0.323325
1279.000000	0.323431
1280.000000	0.323293
1281.000000	0.323247
1282.000000	0.323249
1283.000000	0.323388
1284.000000	0.323590
1285.000000	0.323721
1286.000000	0.323893
1287.000000	0.323902
1288.000000	0.323919
1289.000000	0.323960
1290.000000	0.323956
1291.000000	0.323942
1292.000000	0.323971
1293.000000	0.323975
1294.000000	0.324038
1295.000000	0.324152
1296.000000	0.324176
1297.000000	0.324266
1298.000000	0.324392
1299.000000	0.324482
1300.000000	0.324602
1301.000000	0.324682
1302.000000	0.324749
1303.000000	0.324965
1304.000000	0.325009
1305.000000	0.325081
1306.000000	0.325092
1307.000000	0.324938
1308.000000	0.324988
1309.000000	0.325263
1310.000000	0.325297
1311.000000	0.325286
1312.000000	0.325267
1313.000000	0.325231
1314.000000	0.325101
1315.000000	0.325072
1316.000000	0.325201
1317.000000	0.325208
1318.000000	0.325218
1319.000000	0.325242
1320.000000	0.325172
1321.000000	0.325092
1322.000000	0.325058
1323.000000	0.325108
1324.000000	0.325277
1325.000000	0.325347
1326.000000	0.325240
1327.000000	0.325159
1328.000000	0.325149
1329.000000	0.325043
1330.000000	0.324890
1331.000000	0.324865
1332.000000	0.324969
1333.000000	0.324939
1334.000000	0.324959
1335.000000	0.324979
1336.000000	0.324840
1337.000000	0.324812
1338.000000	0.324794
1339.000000	0.324919
1340.000000	0.324918
1341.000000	0.324911
1342.000000	0.324943
1343.000000	0.324945
1344.000000	0.324940
1345.000000	0.325026
1346.000000	0.325198
1347.000000	0.325152
1348.000000	0.325163
1349.000000	0.324999
1350.000000	0.324772
1351.000000	0.324712
1352.000000	0.324662
1353.000000	0.324672
1354.000000	0.324759
1355.000000	0.324750
1356.000000	0.324690
1357.000000	0.324644
1358.000000	0.324601
1359.000000	0.324345
1360.000000	0.324265
1361.000000	0.324451
1362.000000	0.324397
1363.000000	0.324202
1364.000000	0.324181
1365.000000	0.324073
1366.000000	0.323947
1367.000000	0.323893
1368.000000	0.323841
1369.000000	0.323811
1370.000000	0.323705
1371.000000	0.323508
1372.000000	0.323504
1373.000000	0.323419
1374.000000	0.323233
1375.000000	0.323116
1376.000000	0.322927
1377.000000	0.322705
1378.000000	0.322483
1379.000000	0.322168
1380.000000	0.321863
1381.000000	0.321444
1382.000000	0.320872
1383.000000	0.320434
1384.000000	0.320000
1385.000000	0.319536
1386.000000	0.319156
1387.000000	0.318644
1388.000000	0.317958
1389.000000	0.317206
1390.000000	0.316429
1391.000000	0.315491
1392.000000	0.314610
1393.000000	0.313698
1394.000000	0.312796
1395.000000	0.311780
1396.000000	0.310772
1397.000000	0.309608
1398.000000	0.308197
1399.000000	0.306973
1400.000000	0.305711
1401.000000	0.304526
1402.000000	0.303469
1403.000000	0.302365
1404.000000	0.301433
1405.000000	0.300584
1406.000000	0.299704
1407.000000	0.298927
1408.000000	0.298130
1409.000000	0.297331
1410.000000	0.296752
1411.000000	0.296335
1412.000000	0.295806
1413.000000	0.295344
1414.000000	0.295073
1415.000000	0.294882
1416.000000	0.294745
1417.000000	0.294747
1418.000000	0.294680
1419.000000	0.294444
1420.000000	0.294256
1421.000000	0.294230
1422.000000	0.294092
1423.000000	0.294041
1424.000000	0.293903
1425.000000	0.293773
1426.000000	0.293698
1427.000000	0.293665
1428.000000	0.293785
1429.000000	0.293800
1430.000000	0.293751
1431.000000	0.293694
1432.000000	0.293618
1433.000000	0.293474
1434.000000	0.293480
1435.000000	0.293675
1436.000000	0.293776
1437.000000	0.293858
1438.000000	0.293981
1439.000000	0.294090
1440.000000	0.294255
1441.000000	0.294511
1442.000000	0.294854
1443.000000	0.295151
1444.000000	0.295605
1445.000000	0.296170
1446.000000	0.296763
1447.000000	0.297271
1448.000000	0.297797
1449.000000	0.298373
1450.000000	0.298824
1451.000000	0.299365
1452.000000	0.299864
1453.000000	0.300257
1454.000000	0.300748
1455.000000	0.301194
1456.000000	0.301658
1457.000000	0.302069
1458.000000	0.302324
1459.000000	0.302609
1460.000000	0.302857
1461.000000	0.303189
1462.000000	0.303566
1463.000000	0.303752
1464.000000	0.303961
1465.000000	0.304172
1466.000000	0.304352
1467.000000	0.304661
1468.000000	0.304997
1469.000000	0.305330
1470.000000	0.305552
1471.000000	0.305761
1472.000000	0.305965
1473.000000	0.306212
1474.000000	0.306487
1475.000000	0.306861
1476.000000	0.307237
1477.000000	0.307554
1478.000000	0.307824
1479.000000	0.308013
1480.000000	0.308245
1481.000000	0.308487
1482.000000	0.308863
1483.000000	0.309126
1484.000000	0.309324
1485.000000	0.309525
1486.000000	0.309643
1487.000000	0.309845
1488.000000	0.310095
1489.000000	0.310397
1490.000000	0.310635
1491.000000	0.310893
1492.000000	0.311179
1493.000000	0.311470
1494.000000	0.311704
1495.000000	0.311939
1496.000000	0.312169
1497.000000	0.312368
1498.000000	0.312559
1499.000000	0.312749
1500.000000	0.312911
1501.000000	0.313161
1502.000000	0.313397
1503.000000	0.313596
1504.000000	0.313786
1505.000000	0.313949
1506.000000	0.314088
1507.000000	0.314202
1508.000000	0.314408
1509.000000	0.314584
1510.000000	0.314623
1511.000000	0.314765
1512.000000	0.314891
1513.000000	0.314931
1514.000000	0.315107
1515.000000	0.315229
1516.000000	0.315373
1517.000000	0.315514
1518.000000	0.315617
1519.000000	0.315778
1520.000000	0.315901
1521.000000	0.315990
1522.000000	0.316140
1523.000000	0.316251
1524.000000	0.316353
1525.000000	0.316517
1526.000000	0.316691
1527.000000	0.316877
1528.000000	0.316999
1529.000000	0.317139
1530.000000	0.317216
1531.000000	0.317202
1532.000000	0.317384
1533.000000	0.317606
1534.000000	0.317653
1535.000000	0.317816
1536.000000	0.317855
1537.000000	0.317783
1538.000000	0.317853
1539.000000	0.317875
1540.000000	0.317910
1541.000000	0.318026
1542.000000	0.318149
1543.000000	0.318280
1544.000000	0.318353
1545.000000	0.318518
1546.000000	0.318670
1547.000000	0.318706
1548.000000	0.318834
1549.000000	0.318973
1550.000000	0.319058
1551.000000	0.319129
1552.000000	0.319132
1553.000000	0.319056
1554.000000	0.319017
1555.000000	0.319117
1556.000000	0.319211
1557.000000	0.319216
1558.000000	0.319275
1559.000000	0.319203
1560.000000	0.319255
1561.000000	0.319462
1562.000000	0.319560
1563.000000	0.319693
1564.000000	0.319808
1565.000000	0.319895
1566.000000	0.319929
1567.000000	0.320046
1568.000000	0.320090
1569.000000	0.320152
1570.000000	0.320138
1571.000000	0.319989
1572.000000	0.320024
1573.000000	0.320160
1574.000000	0.320186
1575.000000	0.320333
1576.000000	0.320328
1577.000000	0.320040
1578.000000	0.319992
1579.000000	0.320117
1580.000000	0.320231
1581.000000	0.320553
1582.000000	0.320634
1583.000000	0.320565
1584.000000	0.320534
1585.000000	0.320529
1586.000000	0.320533
1587.000000	0.320562
1588.000000	0.320536
1589.000000	0.320422
1590.000000	0.320401
1591.000000	0.320452
1592.000000	0.320554
1593.000000	0.320826
1594.000000	0.320818
1595.000000	0.320704
1596.000000	0.320728
1597.000000	0.320695
1598.000000	0.320661
1599.000000	0.320807
1600.000000	0.320769
1601.000000	0.320602
1602.000000	0.320568
1603.000000	0.320674
1604.000000	0.320653
1605.000000	0.320543
1606.000000	0.320545
1607.000000	0.320631
1608.000000	0.320638
1609.000000	0.320738
1610.000000	0.320840
1611.000000	0.320908
1612.000000	0.320943
1613.000000	0.321171
1614.000000	0.321228
1615.000000	0.321201
1616.000000	0.321238
1617.000000	0.321168
1618.000000	0.321122
1619.000000	0.321029
1620.000000	0.321039
1621.000000	0.321204
1622.000000	0.321336
1623.000000	0.321451
1624.000000	0.321544
1625.000000	0.321434
1626.000000	0.321415
1627.000000	0.321503
1628.000000	0.321550
1629.000000	0.321577
1630.000000	0.321656
1631.000000	0.321640
1632.000000	0.321646
1633.000000	0.321728
1634.000000	0.321810
1635.000000	0.321958
1636.000000	0.322020
1637.000000	0.322078
1638.000000	0.322064
1639.000000	0.322006
1640.000000	0.321971
1641.000000	0.322024
1642.000000	0.322017
1643.000000	0.322015
1644.000000	0.321973
1645.000000	0.321827
1646.000000	0.321847
1647.000000	0.321962
1648.000000	0.321973
1649.000000	0.322209
1650.000000	0.322228
1651.000000	0.322089
1652.000000	0.322123
1653.000000	0.322096
1654.000000	0.322116
1655.000000	0.322213
1656.000000	0.322082
1657.000000	0.321877
1658.000000	0.321814
1659.000000	0.321812
1660.000000	0.321852
1661.000000	0.321960
1662.000000	0.321942
1663.000000	0.321768
1664.000000	0.321751
1665.000000	0.321799
1666.000000	0.321864
1667.000000	0.321897
1668.000000	0.321971
1669.000000	0.322017
1670.000000	0.321987
1671.000000	0.322110
1672.000000	0.322191
1673.000000	0.322096
1674.000000	0.322211
1675.000000	0.322469
1676.000000	0.322564
1677.000000	0.322659
1678.000000	0.322672
1679.000000	0.322550
1680.000000	0.322557
1681.000000	0.322646
1682.000000	0.322788
1683.000000	0.322979
1684.000000	0.322950
1685.000000	0.322886
1686.000000	0.322877
1687.000000	0.322836
1688.000000	0.322751
1689.000000	0.322719
1690.000000	0.322685
1691.000000	0.322661
1692.000000	0.322681
1693.000000	0.322675
1694.000000	0.322421
1695.000000	0.322268
1696.000000	0.322401
1697.000000	0.322410
1698.000000	0.322600
1699.000000	0.322757
1700.000000	0.322813
1701.000000	0.322928
1702.000000	0.323017
1703.000000	0.322935
1704.000000	0.322692
1705.000000	0.322570
1706.000000	0.322486
1707.000000	0.322398
1708.000000	0.322387
1709.000000	0.322275
1710.000000	0.322120
1711.000000	0.322083
1712.000000	0.322174
1713.000000	0.322128
1714.000000	0.322157
1715.000000	0.322099
1716.000000	0.321857
1717.000000	0.321752
1718.000000	0.321625
1719.000000	0.321564
1720.000000	0.321666
1721.000000	0.321700
1722.000000	0.321843
1723.000000	0.321790
1724.000000	0.321562
1725.000000	0.321521
1726.000000	0.321322
1727.000000	0.321311
1728.000000	0.321490
1729.000000	0.321478
1730.000000	0.321528
1731.000000	0.321630
1732.000000	0.321796
1733.000000	0.321854
1734.000000	0.321691
1735.000000	0.321805
1736.000000	0.321936
1737.000000	0.321971
1738.000000	0.322227
1739.000000	0.322240
1740.000000	0.321955
1741.000000	0.321813
1742.000000	0.321707
1743.000000	0.321721
1744.000000	0.321699
1745.000000	0.321772
1746.000000	0.322022
1747.000000	0.322074
1748.000000	0.322058
1749.000000	0.322022
1750.000000	0.321881
1751.000000	0.321678
1752.000000	0.321688
1753.000000	0.321657
1754.000000	0.321576
1755.000000	0.321537
1756.000000	0.321470
1757.000000	0.321247
1758.000000	0.321170
1759.000000	0.321224
1760.000000	0.321215
1761.000000	0.321204
1762.000000	0.321141
1763.000000	0.321031
1764.000000	0.320956
1765.000000	0.320785
1766.000000	0.320762
1767.000000	0.320797
1768.000000	0.320719
1769.000000	0.320768
1770.000000	0.320776
1771.000000	0.320586
1772.000000	0.320585
1773.000000	0.320689
1774.000000	0.320678
1775.000000	0.320740
1776.000000	0.320774
1777.000000	0.320662
1778.000000	0.320652
1779.000000	0.320667
1780.000000	0.320802
1781.000000	0.321027
1782.000000	0.321053
1783.000000	0.321189
1784.000000	0.321023
1785.000000	0.320712
1786.000000	0.320671
1787.000000	0.320581
1788.000000	0.320461
1789.000000	0.320475
1790.000000	0.320334
1791.000000	0.320137
1792.000000	0.319842
1793.000000	0.319786
1794.000000	0.319952
1795.000000	0.320025
1796.000000	0.320170
1797.000000	0.320329
1798.000000	0.320338
1799.000000	0.320487
1800.000000	0.321016
1801.000000	0.320895
1802.000000	0.320953
1803.000000	0.319993
1804.000000	0.320022
1805.000000	0.321177
1806.000000	0.321208
1807.000000	0.320691
1808.000000	0.320528
1809.000000	0.320091
1810.000000	0.319589
1811.000000	0.319463
1812.000000	0.319781
1813.000000	0.320001
1814.000000	0.320452
1815.000000	0.320473
1816.000000	0.320426
1817.000000	0.320154
1818.000000	0.319386
1819.000000	0.319270
1820.000000	0.318287
1821.000000	0.318071
1822.000000	0.318122
1823.000000	0.318479
1824.000000	0.318347
1825.000000	0.318333
1826.000000	0.318490
1827.000000	0.318186
1828.000000	0.318018
1829.000000	0.318708
1830.000000	0.318960
1831.000000	0.318653
1832.000000	0.317303
1833.000000	0.317182
1834.000000	0.317035
1835.000000	0.317355
1836.000000	0.319005
1837.000000	0.319600
1838.000000	0.319834
1839.000000	0.319979
1840.000000	0.318806
1841.000000	0.317402
1842.000000	0.317104
1843.000000	0.316992
1844.000000	0.316882
1845.000000	0.318165
1846.000000	0.318167
1847.000000	0.317006
1848.000000	0.315913
1849.000000	0.315828
1850.000000	0.315390
1851.000000	0.315123
1852.000000	0.315470
1853.000000	0.315515
1854.000000	0.314985
1855.000000	0.314654
1856.000000	0.314461
1857.000000	0.314167
1858.000000	0.313856
1859.000000	0.313586
1860.000000	0.313594
1861.000000	0.313432
1862.000000	0.312960
1863.000000	0.312153
1864.000000	0.311699
1865.000000	0.311377
1866.000000	0.310718
1867.000000	0.310239
1868.000000	0.309089
1869.000000	0.307470
1870.000000	0.306530
1871.000000	0.305123
1872.000000	0.303661
1873.000000	0.302495
1874.000000	0.301230
1875.000000	0.300156
1876.000000	0.299222
1877.000000	0.298163
1878.000000	0.296721
1879.000000	0.294523
1880.000000	0.292407
1881.000000	0.290414
1882.000000	0.287508
1883.000000	0.284462
1884.000000	0.281657
1885.000000	0.278190
1886.000000	0.275013
1887.000000	0.272416
1888.000000	0.269250
1889.000000	0.265422
1890.000000	0.261005
1891.000000	0.256490
1892.000000	0.253303
1893.000000	0.249792
1894.000000	0.246297
1895.000000	0.242880
1896.000000	0.239994
1897.000000	0.235670
1898.000000	0.231744
1899.000000	0.228984
1900.000000	0.225655
1901.000000	0.223077
1902.000000	0.221538
1903.000000	0.219777
1904.000000	0.218525
1905.000000	0.217660
1906.000000	0.216956
1907.000000	0.216501
1908.000000	0.216092
1909.000000	0.216217
1910.000000	0.217371
1911.000000	0.218075
1912.000000	0.218898
1913.000000	0.219915
1914.000000	0.220293
1915.000000	0.220816
1916.000000	0.221820
1917.000000	0.222755
1918.000000	0.223924
1919.000000	0.225022
1920.000000	0.225964
1921.000000	0.226680
1922.000000	0.226938
1923.000000	0.227472
1924.000000	0.228691
1925.000000	0.229803
1926.000000	0.231292
1927.000000	0.232722
1928.000000	0.233519
1929.000000	0.233649
1930.000000	0.234076
1931.000000	0.234397
1932.000000	0.234664
1933.000000	0.235171
1934.000000	0.235624
1935.000000	0.236290
1936.000000	0.236858
1937.000000	0.237595
1938.000000	0.237743
1939.000000	0.237833
1940.000000	0.237668
1941.000000	0.237514
1942.000000	0.237274
1943.000000	0.237979
1944.000000	0.238507
1945.000000	0.238835
1946.000000	0.239184
1947.000000	0.239243
1948.000000	0.239453
1949.000000	0.239703
1950.000000	0.240218
1951.000000	0.240551
1952.000000	0.240983
1953.000000	0.241047
1954.000000	0.240828
1955.000000	0.240348
1956.000000	0.239749
1957.000000	0.239184
1958.000000	0.239298
1959.000000	0.239980
1960.000000	0.240506
1961.000000	0.241172
1962.000000	0.241720
1963.000000	0.242443
1964.000000	0.242491
1965.000000	0.242360
1966.000000	0.242501
1967.000000	0.242381
1968.000000	0.242237
1969.000000	0.242953
1970.000000	0.243802
1971.000000	0.243809
1972.000000	0.244045
1973.000000	0.244144
1974.000000	0.243615
1975.000000	0.243760
1976.000000	0.244313
1977.000000	0.245050
1978.000000	0.245894
1979.000000	0.246554
1980.000000	0.246793
1981.000000	0.247010
1982.000000	0.247535
1983.000000	0.247912
1984.000000	0.248199
1985.000000	0.248760
1986.000000	0.249140
1987.000000	0.249304
1988.000000	0.249410
1989.000000	0.250083
1990.000000	0.250720
1991.000000	0.250962
1992.000000	0.251528
1993.000000	0.252178
1994.000000	0.252486
1995.000000	0.253170
1996.000000	0.254241
1997.000000	0.255016
1998.000000	0.255957
1999.000000	0.256572
2000.000000	0.257057
2001.000000	0.257048
2002.000000	0.257298
2003.000000	0.257497
2004.000000	0.258216
2005.000000	0.259057
2006.000000	0.259424
2007.000000	0.260362
2008.000000	0.260985
2009.000000	0.261117
2010.000000	0.261787
2011.000000	0.262744
2012.000000	0.263171
2013.000000	0.263430
2014.000000	0.263861
2015.000000	0.263809
2016.000000	0.264055
2017.000000	0.264739
2018.000000	0.265062
2019.000000	0.265404
2020.000000	0.265829
2021.000000	0.266492
2022.000000	0.267431
2023.000000	0.268115
2024.000000	0.269180
2025.000000	0.269661
2026.000000	0.269601
2027.000000	0.269132
2028.000000	0.268922
2029.000000	0.269434
2030.000000	0.270216
2031.000000	0.271299
2032.000000	0.272162
2033.000000	0.272288
2034.000000	0.272468
2035.000000	0.272111
2036.000000	0.272127
2037.000000	0.272319
2038.000000	0.272932
2039.000000	0.273873
2040.000000	0.275055
2041.000000	0.276050
2042.000000	0.276436
2043.000000	0.276214
2044.000000	0.275560
2045.000000	0.275825
2046.000000	0.276391
2047.000000	0.276935
2048.000000	0.278185
2049.000000	0.278894
2050.000000	0.278855
2051.000000	0.278999
2052.000000	0.278899
2053.000000	0.278957
2054.000000	0.279174
2055.000000	0.279686
2056.000000	0.280337
2057.000000	0.280608
2058.000000	0.280736
2059.000000	0.280974
2060.000000	0.281180
2061.000000	0.281274
2062.000000	0.281514
2063.000000	0.281781
2064.000000	0.282081
2065.000000	0.283146
2066.000000	0.283153
2067.000000	0.282868
2068.000000	0.282864
2069.000000	0.282126
2070.000000	0.281819
2071.000000	0.282243
2072.000000	0.282318
2073.000000	0.282357
2074.000000	0.282572
2075.000000	0.282888
2076.000000	0.283299
2077.000000	0.283605
2078.000000	0.284128
2079.000000	0.284375
2080.000000	0.284414
2081.000000	0.284748
2082.000000	0.285502
2083.000000	0.285349
2084.000000	0.285497
2085.000000	0.285231
2086.000000	0.285187
2087.000000	0.285672
2088.000000	0.286184
2089.000000	0.286987
2090.000000	0.287437
2091.000000	0.287980
2092.000000	0.287915
2093.000000	0.287243
2094.000000	0.286933
2095.000000	0.285993
2096.000000	0.285886
2097.000000	0.286345
2098.000000	0.286933
2099.000000	0.287700
2100.000000	0.288136
2101.000000	0.287879
2102.000000	0.288022
2103.000000	0.288208
2104.000000	0.288395
2105.000000	0.288693
2106.000000	0.289412
2107.000000	0.289738
2108.000000	0.289656
2109.000000	0.289875
2110.000000	0.290336
2111.000000	0.290347
2112.000000	0.289693
2113.000000	0.289832
2114.000000	0.289890
2115.000000	0.289410
2116.000000	0.290370
2117.000000	0.291170
2118.000000	0.291775
2119.000000	0.292571
2120.000000	0.292700
2121.000000	0.292002
2122.000000	0.292032
2123.000000	0.291859
2124.000000	0.291955
2125.000000	0.292923
2126.000000	0.292948
2127.000000	0.292384
2128.000000	0.292428
2129.000000	0.292193
2130.000000	0.292106
2131.000000	0.292856
2132.000000	0.292761
2133.000000	0.292476
2134.000000	0.292385
2135.000000	0.292553
2136.000000	0.293128
2137.000000	0.293428
2138.000000	0.294135
2139.000000	0.294502
2140.000000	0.294479
2141.000000	0.294435
2142.000000	0.294281
2143.000000	0.294033
2144.000000	0.293848
2145.000000	0.293675
2146.000000	0.293628
2147.000000	0.293685
2148.000000	0.293526
2149.000000	0.294073
2150.000000	0.294497
2151.000000	0.294904
2152.000000	0.295971
2153.000000	0.295728
2154.000000	0.296253
2155.000000	0.297930
2156.000000	0.297880
2157.000000	0.296975
2158.000000	0.296570
2159.000000	0.294898
2160.000000	0.294185
2161.000000	0.294673
2162.000000	0.294458
2163.000000	0.293810
2164.000000	0.293530
2165.000000	0.293412
2166.000000	0.292754
2167.000000	0.293011
2168.000000	0.293010
2169.000000	0.292736
2170.000000	0.292990
2171.000000	0.292812
2172.000000	0.292257
2173.000000	0.292463
2174.000000	0.292799
2175.000000	0.293203
2176.000000	0.294155
2177.000000	0.294663
2178.000000	0.295160
2179.000000	0.295451
2180.000000	0.295866
2181.000000	0.296025
2182.000000	0.294722
2183.000000	0.294520
2184.000000	0.294757
2185.000000	0.293365
2186.000000	0.292169
2187.000000	0.290944
2188.000000	0.289993
2189.000000	0.290159
2190.000000	0.290834
2191.000000	0.292171
2192.000000	0.292653
2193.000000	0.292610
2194.000000	0.292322
2195.000000	0.291392
2196.000000	0.291114
2197.000000	0.290267
2198.000000	0.289955
2199.000000	0.291015
2200.000000	0.291329
2201.000000	0.291059
2202.000000	0.291761
2203.000000	0.293145
2204.000000	0.293364
2205.000000	0.293923
2206.000000	0.294460
2207.000000	0.293189
2208.000000	0.293277
2209.000000	0.293082
2210.000000	0.292631
2211.000000	0.291961
2212.000000	0.291668
2213.000000	0.291783
2214.000000	0.292495
2215.000000	0.292775
2216.000000	0.293072
2217.000000	0.292887
2218.000000	0.292459
2219.000000	0.291816
2220.000000	0.291005
2221.000000	0.290629
2222.000000	0.290161
2223.000000	0.289437
2224.000000	0.287703
2225.000000	0.288455
2226.000000	0.289192
2227.000000	0.289516
2228.000000	0.293182
2229.000000	0.294551
2230.000000	0.291488
2231.000000	0.290324
2232.000000	0.287202
2233.000000	0.283145
2234.000000	0.282689
2235.000000	0.282093
2236.000000	0.281918
2237.000000	0.282604
2238.000000	0.282219
2239.000000	0.281450
2240.000000	0.281448
2241.000000	0.280388
2242.000000	0.281775
2243.000000	0.287418
2244.000000	0.288199
2245.000000	0.287050
2246.000000	0.286414
2247.000000	0.281534
2248.000000	0.280110
2249.000000	0.281442
2250.000000	0.282462
2251.000000	0.285302
2252.000000	0.286086
2253.000000	0.283492
2254.000000	0.282741
2255.000000	0.281408
2256.000000	0.279491
2257.000000	0.278688
2258.000000	0.279929
2259.000000	0.281025
2260.000000	0.280611
2261.000000	0.280496
2262.000000	0.281159
2263.000000	0.281556
2264.000000	0.280890
2265.000000	0.281175
2266.000000	0.283562
2267.000000	0.282205
2268.000000	0.278982
2269.000000	0.277166
2270.000000	0.273372
2271.000000	0.270774
2272.000000	0.269526
2273.000000	0.267886
2274.000000	0.264938
2275.000000	0.264792
2276.000000	0.267526
2277.000000	0.268111
2278.000000	0.267264
2279.000000	0.267115
2280.000000	0.265098
2281.000000	0.261612
2282.000000	0.259793
2283.000000	0.257968
2284.000000	0.256122
2285.000000	0.255535
2286.000000	0.254597
2287.000000	0.254826
2288.000000	0.253661
2289.000000	0.250642
2290.000000	0.249245
2291.000000	0.247844
2292.000000	0.248458
2293.000000	0.248560
2294.000000	0.248143
2295.000000	0.247883
2296.000000	0.247255
2297.000000	0.245567
2298.000000	0.245192
2299.000000	0.245041
2300.000000	0.244867
2301.000000	0.244475
2302.000000	0.245177
2303.000000	0.247155
2304.000000	0.248433
2305.000000	0.250319
2306.000000	0.252303
2307.000000	0.253602
2308.000000	0.255527
2309.000000	0.257824
2310.000000	0.257861
2311.000000	0.258974
2312.000000	0.259101
2313.000000	0.259451
2314.000000	0.261050
2315.000000	0.262504
2316.000000	0.263425
2317.000000	0.263757
2318.000000	0.265264
2319.000000	0.265931
2320.000000	0.265786
2321.000000	0.267551
2322.000000	0.268964
2323.000000	0.268695
2324.000000	0.269500
2325.000000	0.269804
2326.000000	0.268812
2327.000000	0.269863
2328.000000	0.268815
2329.000000	0.267029
2330.000000	0.267437
2331.000000	0.264857
2332.000000	0.264572
2333.000000	0.267306
2334.000000	0.265820
2335.000000	0.264884
2336.000000	0.263798
2337.000000	0.262937
2338.000000	0.260576
2339.000000	0.259949
2340.000000	0.261717
2341.000000	0.261505
2342.000000	0.259903
2343.000000	0.259783
2344.000000	0.259578
2345.000000	0.259059
2346.000000	0.260017
2347.000000	0.259447
2348.000000	0.257832
2349.000000	0.255957
2350.000000	0.253886
2351.000000	0.252532
2352.000000	0.252202
2353.000000	0.253583
2354.000000	0.253151
2355.000000	0.251974
2356.000000	0.251762
2357.000000	0.247844
2358.000000	0.245406
2359.000000	0.245950
2360.000000	0.243326
2361.000000	0.243148
2362.000000	0.244241
2363.000000	0.240850
2364.000000	0.238337
2365.000000	0.236403
2366.000000	0.235615
2367.000000	0.240369
2368.000000	0.244129
2369.000000	0.247318
2370.000000	0.250503
2371.000000	0.248744
2372.000000	0.247308
2373.000000	0.247477
2374.000000	0.246915
2375.000000	0.247220
2376.000000	0.246445
2377.000000	0.244895
2378.000000	0.243092
2379.000000	0.240456
2380.000000	0.239366
2381.000000	0.237175
2382.000000	0.231387
2383.000000	0.226240
2384.000000	0.223397
2385.000000	0.222752
2386.000000	0.225141
2387.000000	0.228894
2388.000000	0.229569
2389.000000	0.227912
2390.000000	0.229627
2391.000000	0.230915
2392.000000	0.235203
2393.000000	0.244903
2394.000000	0.250503
2395.000000	0.248305
2396.000000	0.243749
2397.000000	0.237042
2398.000000	0.223414
2399.000000	0.217869
2400.000000	0.212884
2401.000000	0.202610
2402.000000	0.203162
2403.000000	0.206654
2404.000000	0.212837
2405.000000	0.220518
2406.000000	0.222239
2407.000000	0.222072
2408.000000	0.217560
2409.000000	0.214274
2410.000000	0.213950
2411.000000	0.213062
2412.000000	0.209658
2413.000000	0.208089
2414.000000	0.216590
2415.000000	0.221389
2416.000000	0.223060
2417.000000	0.224564
2418.000000	0.218087
2419.000000	0.211205
2420.000000	0.215844
2421.000000	0.227767
2422.000000	0.232025
2423.000000	0.234605
2424.000000	0.228054
2425.000000	0.218383
2426.000000	0.220744
2427.000000	0.218750
2428.000000	0.220521
2429.000000	0.223411
2430.000000	0.213549
2431.000000	0.213588
2432.000000	0.215913
2433.000000	0.206098
2434.000000	0.210950
2435.000000	0.215809
2436.000000	0.213870
2437.000000	0.223700
2438.000000	0.226189
2439.000000	0.225534
2440.000000	0.223195
2441.000000	0.217701
2442.000000	0.223743
2443.000000	0.226825
2444.000000	0.222630
2445.000000	0.227344
2446.000000	0.223493
2447.000000	0.207926
2448.000000	0.205094
2449.000000	0.213835
2450.000000	0.224783
2451.000000	0.234500
2452.000000	0.242785
2453.000000	0.234411
2454.000000	0.213538
2455.000000	0.197105
2456.000000	0.181775
2457.000000	0.175425
2458.000000	0.169764
2459.000000	0.165188
2460.000000	0.166823
2461.000000	0.156305
2462.000000	0.159591
2463.000000	0.176221
2464.000000	0.186482
2465.000000	0.197520
2466.000000	0.188856
2467.000000	0.157300
2468.000000	0.129835
2469.000000	0.126693
2470.000000	0.131623
2471.000000	0.144230
2472.000000	0.164824
2473.000000	0.174221
2474.000000	0.170790
2475.000000	0.175612
2476.000000	0.194470
2477.000000	0.207684
2478.000000	0.219424
2479.000000	0.218677
2480.000000	0.198860
2481.000000	0.177076
2482.000000	0.170709
2483.000000	0.163170
2484.000000	0.163960
2485.000000	0.185973
2486.000000	0.183151
2487.000000	0.195241
2488.000000	0.232839
2489.000000	0.242320
2490.000000	0.218341
2491.000000	0.154227
2492.000000	0.130217
2493.000000	0.122131
2494.000000	0.128458
2495.000000	0.186603
2496.000000	0.213201
2497.000000	0.223031
2498.000000	0.213360
2499.000000	0.169537
2500.000000	0.144992
