# Wavelength	SM1200H-70_HEX-20_FV7-10_00002.asd.rts.txt
350.000000	0.413122
351.000000	0.423784
352.000000	0.417958
353.000000	0.413195
354.000000	0.418241
355.000000	0.408977
356.000000	0.397271
357.000000	0.393135
358.000000	0.400383
359.000000	0.405145
360.000000	0.410992
361.000000	0.422399
362.000000	0.424907
363.000000	0.425855
364.000000	0.427430
365.000000	0.417284
366.000000	0.415206
367.000000	0.421575
368.000000	0.421466
369.000000	0.416935
370.000000	0.413886
371.000000	0.417717
372.000000	0.414373
373.000000	0.415813
374.000000	0.427588
375.000000	0.429099
376.000000	0.427587
377.000000	0.427620
378.000000	0.432593
379.000000	0.432729
380.000000	0.429553
381.000000	0.429683
382.000000	0.434372
383.000000	0.436103
384.000000	0.431929
385.000000	0.430609
386.000000	0.432425
387.000000	0.435502
388.000000	0.434833
389.000000	0.433555
390.000000	0.433071
391.000000	0.433640
392.000000	0.434363
393.000000	0.435280
394.000000	0.436565
395.000000	0.438662
396.000000	0.440101
397.000000	0.440493
398.000000	0.441057
399.000000	0.440756
400.000000	0.440342
401.000000	0.441010
402.000000	0.442701
403.000000	0.443934
404.000000	0.443953
405.000000	0.444469
406.000000	0.445203
407.000000	0.445951
408.000000	0.446556
409.000000	0.446673
410.000000	0.446813
411.000000	0.447908
412.000000	0.447968
413.000000	0.447503
414.000000	0.447519
415.000000	0.447956
416.000000	0.448665
417.000000	0.449534
418.000000	0.450764
419.000000	0.450460
420.000000	0.449391
421.000000	0.450704
422.000000	0.451046
423.000000	0.451007
424.000000	0.452246
425.000000	0.452894
426.000000	0.453268
427.000000	0.453727
428.000000	0.453941
429.000000	0.454578
430.000000	0.455603
431.000000	0.455977
432.000000	0.456409
433.000000	0.456841
434.000000	0.457128
435.000000	0.457562
436.000000	0.458068
437.000000	0.458444
438.000000	0.458457
439.000000	0.458421
440.000000	0.458751
441.000000	0.459539
442.000000	0.459806
443.000000	0.459529
444.000000	0.459693
445.000000	0.460111
446.000000	0.460764
447.000000	0.461261
448.000000	0.461211
449.000000	0.461339
450.000000	0.462014
451.000000	0.462249
452.000000	0.462576
453.000000	0.462927
454.000000	0.462930
455.000000	0.463233
456.000000	0.464007
457.000000	0.464830
458.000000	0.465103
459.000000	0.465150
460.000000	0.465424
461.000000	0.465524
462.000000	0.466167
463.000000	0.467141
464.000000	0.467487
465.000000	0.467753
466.000000	0.467987
467.000000	0.468224
468.000000	0.468629
469.000000	0.468948
470.000000	0.469163
471.000000	0.469151
472.000000	0.469157
473.000000	0.469410
474.000000	0.469881
475.000000	0.469970
476.000000	0.469954
477.000000	0.470479
478.000000	0.470634
479.000000	0.470665
480.000000	0.470628
481.000000	0.470750
482.000000	0.471056
483.000000	0.471161
484.000000	0.471503
485.000000	0.471747
486.000000	0.472025
487.000000	0.472236
488.000000	0.472553
489.000000	0.472977
490.000000	0.473343
491.000000	0.473853
492.000000	0.474395
493.000000	0.474576
494.000000	0.474776
495.000000	0.475107
496.000000	0.475525
497.000000	0.476010
498.000000	0.476448
499.000000	0.476897
500.000000	0.477262
501.000000	0.477473
502.000000	0.477717
503.000000	0.478127
504.000000	0.478629
505.000000	0.479071
506.000000	0.479350
507.000000	0.479596
508.000000	0.479919
509.000000	0.480287
510.000000	0.480654
511.000000	0.481036
512.000000	0.481438
513.000000	0.481749
514.000000	0.482163
515.000000	0.482614
516.000000	0.482863
517.000000	0.483147
518.000000	0.483446
519.000000	0.483624
520.000000	0.484062
521.000000	0.484438
522.000000	0.484665
523.000000	0.484961
524.000000	0.485275
525.000000	0.485558
526.000000	0.485832
527.000000	0.486096
528.000000	0.486318
529.000000	0.486554
530.000000	0.486676
531.000000	0.486906
532.000000	0.487222
533.000000	0.487613
534.000000	0.487926
535.000000	0.488135
536.000000	0.488419
537.000000	0.488684
538.000000	0.488972
539.000000	0.489336
540.000000	0.489633
541.000000	0.489916
542.000000	0.490296
543.000000	0.490636
544.000000	0.491006
545.000000	0.491335
546.000000	0.491718
547.000000	0.492101
548.000000	0.492506
549.000000	0.492833
550.000000	0.493243
551.000000	0.493706
552.000000	0.494051
553.000000	0.494368
554.000000	0.494679
555.000000	0.495018
556.000000	0.495464
557.000000	0.495772
558.000000	0.496103
559.000000	0.496499
560.000000	0.496796
561.000000	0.497123
562.000000	0.497474
563.000000	0.497762
564.000000	0.498070
565.000000	0.498305
566.000000	0.498555
567.000000	0.498821
568.000000	0.499077
569.000000	0.499403
570.000000	0.499731
571.000000	0.500023
572.000000	0.500296
573.000000	0.500677
574.000000	0.500995
575.000000	0.501118
576.000000	0.501363
577.000000	0.501628
578.000000	0.501911
579.000000	0.502246
580.000000	0.502543
581.000000	0.502773
582.000000	0.503021
583.000000	0.503289
584.000000	0.503589
585.000000	0.503932
586.000000	0.504153
587.000000	0.504345
588.000000	0.504641
589.000000	0.504977
590.000000	0.505288
591.000000	0.505540
592.000000	0.505748
593.000000	0.505990
594.000000	0.506254
595.000000	0.506447
596.000000	0.506723
597.000000	0.507070
598.000000	0.507244
599.000000	0.507359
600.000000	0.507590
601.000000	0.507896
602.000000	0.508111
603.000000	0.508247
604.000000	0.508387
605.000000	0.508725
606.000000	0.508872
607.000000	0.508865
608.000000	0.509009
609.000000	0.509192
610.000000	0.509379
611.000000	0.509542
612.000000	0.509648
613.000000	0.509805
614.000000	0.510091
615.000000	0.510223
616.000000	0.510307
617.000000	0.510374
618.000000	0.510579
619.000000	0.510846
620.000000	0.511039
621.000000	0.511120
622.000000	0.511257
623.000000	0.511386
624.000000	0.511440
625.000000	0.511507
626.000000	0.511623
627.000000	0.511784
628.000000	0.511915
629.000000	0.512141
630.000000	0.512255
631.000000	0.512371
632.000000	0.512515
633.000000	0.512687
634.000000	0.512845
635.000000	0.512955
636.000000	0.513141
637.000000	0.513385
638.000000	0.513462
639.000000	0.513540
640.000000	0.513708
641.000000	0.513717
642.000000	0.513769
643.000000	0.513870
644.000000	0.513976
645.000000	0.514059
646.000000	0.514195
647.000000	0.514361
648.000000	0.514409
649.000000	0.514482
650.000000	0.514609
651.000000	0.514786
652.000000	0.514905
653.000000	0.515005
654.000000	0.515043
655.000000	0.515094
656.000000	0.515159
657.000000	0.515164
658.000000	0.515359
659.000000	0.515558
660.000000	0.515650
661.000000	0.515752
662.000000	0.515811
663.000000	0.515943
664.000000	0.516176
665.000000	0.516400
666.000000	0.516588
667.000000	0.516697
668.000000	0.516856
669.000000	0.517002
670.000000	0.517105
671.000000	0.517191
672.000000	0.517353
673.000000	0.517553
674.000000	0.517674
675.000000	0.517783
676.000000	0.517913
677.000000	0.518109
678.000000	0.518330
679.000000	0.518510
680.000000	0.518633
681.000000	0.518724
682.000000	0.518890
683.000000	0.519018
684.000000	0.519158
685.000000	0.519256
686.000000	0.519386
687.000000	0.519556
688.000000	0.519686
689.000000	0.519782
690.000000	0.519915
691.000000	0.520046
692.000000	0.520172
693.000000	0.520378
694.000000	0.520536
695.000000	0.520743
696.000000	0.520982
697.000000	0.521203
698.000000	0.521413
699.000000	0.521599
700.000000	0.521763
701.000000	0.521879
702.000000	0.521983
703.000000	0.522052
704.000000	0.522076
705.000000	0.522149
706.000000	0.522214
707.000000	0.522314
708.000000	0.522461
709.000000	0.522657
710.000000	0.522908
711.000000	0.523057
712.000000	0.523218
713.000000	0.523464
714.000000	0.523719
715.000000	0.523863
716.000000	0.523947
717.000000	0.524053
718.000000	0.524116
719.000000	0.524101
720.000000	0.524041
721.000000	0.524067
722.000000	0.524116
723.000000	0.524219
724.000000	0.524210
725.000000	0.524245
726.000000	0.524429
727.000000	0.524556
728.000000	0.524660
729.000000	0.524785
730.000000	0.524868
731.000000	0.524926
732.000000	0.524984
733.000000	0.525081
734.000000	0.525067
735.000000	0.525048
736.000000	0.525190
737.000000	0.525247
738.000000	0.525257
739.000000	0.525308
740.000000	0.525216
741.000000	0.525323
742.000000	0.525402
743.000000	0.525372
744.000000	0.525454
745.000000	0.525513
746.000000	0.525579
747.000000	0.525574
748.000000	0.525656
749.000000	0.525824
750.000000	0.525980
751.000000	0.526079
752.000000	0.526080
753.000000	0.526050
754.000000	0.526114
755.000000	0.526235
756.000000	0.526405
757.000000	0.526535
758.000000	0.526636
759.000000	0.526734
760.000000	0.526757
761.000000	0.526912
762.000000	0.526992
763.000000	0.526945
764.000000	0.526949
765.000000	0.526968
766.000000	0.527019
767.000000	0.527108
768.000000	0.527268
769.000000	0.527377
770.000000	0.527425
771.000000	0.527548
772.000000	0.527726
773.000000	0.527783
774.000000	0.527734
775.000000	0.527832
776.000000	0.527913
777.000000	0.527833
778.000000	0.527790
779.000000	0.527811
780.000000	0.527890
781.000000	0.527946
782.000000	0.528007
783.000000	0.528194
784.000000	0.528320
785.000000	0.528385
786.000000	0.528445
787.000000	0.528500
788.000000	0.528446
789.000000	0.528448
790.000000	0.528438
791.000000	0.528331
792.000000	0.528283
793.000000	0.528336
794.000000	0.528458
795.000000	0.528420
796.000000	0.528383
797.000000	0.528375
798.000000	0.528302
799.000000	0.528463
800.000000	0.528659
801.000000	0.528618
802.000000	0.528592
803.000000	0.528602
804.000000	0.528662
805.000000	0.528578
806.000000	0.528411
807.000000	0.528345
808.000000	0.528342
809.000000	0.528174
810.000000	0.528050
811.000000	0.528100
812.000000	0.528106
813.000000	0.528134
814.000000	0.528188
815.000000	0.528265
816.000000	0.528375
817.000000	0.528473
818.000000	0.528394
819.000000	0.528377
820.000000	0.528404
821.000000	0.528351
822.000000	0.528215
823.000000	0.528205
824.000000	0.528188
825.000000	0.528134
826.000000	0.528132
827.000000	0.528117
828.000000	0.528144
829.000000	0.528322
830.000000	0.528339
831.000000	0.528266
832.000000	0.528100
833.000000	0.528010
834.000000	0.527937
835.000000	0.527855
836.000000	0.527707
837.000000	0.527577
838.000000	0.527501
839.000000	0.527396
840.000000	0.527309
841.000000	0.527288
842.000000	0.527298
843.000000	0.527368
844.000000	0.527377
845.000000	0.527284
846.000000	0.527271
847.000000	0.527348
848.000000	0.527370
849.000000	0.527254
850.000000	0.527114
851.000000	0.526996
852.000000	0.526996
853.000000	0.527098
854.000000	0.527094
855.000000	0.527094
856.000000	0.526968
857.000000	0.526644
858.000000	0.526493
859.000000	0.526454
860.000000	0.526123
861.000000	0.525920
862.000000	0.525960
863.000000	0.526057
864.000000	0.525873
865.000000	0.525711
866.000000	0.525726
867.000000	0.525533
868.000000	0.525546
869.000000	0.525576
870.000000	0.525427
871.000000	0.525223
872.000000	0.525144
873.000000	0.525173
874.000000	0.525293
875.000000	0.525299
876.000000	0.525193
877.000000	0.524977
878.000000	0.524825
879.000000	0.524736
880.000000	0.524497
881.000000	0.524428
882.000000	0.524178
883.000000	0.523849
884.000000	0.523603
885.000000	0.523435
886.000000	0.523217
887.000000	0.522966
888.000000	0.522850
889.000000	0.522571
890.000000	0.522159
891.000000	0.522101
892.000000	0.521947
893.000000	0.521825
894.000000	0.521930
895.000000	0.521807
896.000000	0.521461
897.000000	0.521045
898.000000	0.520769
899.000000	0.520697
900.000000	0.520671
901.000000	0.520540
902.000000	0.520418
903.000000	0.520209
904.000000	0.520053
905.000000	0.519942
906.000000	0.519993
907.000000	0.519853
908.000000	0.519605
909.000000	0.519499
910.000000	0.519515
911.000000	0.519440
912.000000	0.519187
913.000000	0.519152
914.000000	0.519023
915.000000	0.518789
916.000000	0.518416
917.000000	0.518222
918.000000	0.518157
919.000000	0.518039
920.000000	0.517680
921.000000	0.517319
922.000000	0.517111
923.000000	0.517079
924.000000	0.517025
925.000000	0.516840
926.000000	0.516556
927.000000	0.516219
928.000000	0.515942
929.000000	0.515700
930.000000	0.515435
931.000000	0.515188
932.000000	0.514859
933.000000	0.514523
934.000000	0.514252
935.000000	0.513856
936.000000	0.513532
937.000000	0.513283
938.000000	0.513018
939.000000	0.512799
940.000000	0.512507
941.000000	0.512195
942.000000	0.511754
943.000000	0.511382
944.000000	0.510917
945.000000	0.510227
946.000000	0.509297
947.000000	0.508608
948.000000	0.508478
949.000000	0.508258
950.000000	0.508232
951.000000	0.508356
952.000000	0.508447
953.000000	0.508257
954.000000	0.508047
955.000000	0.507918
956.000000	0.507784
957.000000	0.507556
958.000000	0.507210
959.000000	0.506977
960.000000	0.506865
961.000000	0.506658
962.000000	0.506327
963.000000	0.506174
964.000000	0.506168
965.000000	0.506097
966.000000	0.505663
967.000000	0.505309
968.000000	0.504980
969.000000	0.504719
970.000000	0.504731
971.000000	0.504376
972.000000	0.504030
973.000000	0.503785
974.000000	0.503606
975.000000	0.503385
976.000000	0.503169
977.000000	0.503004
978.000000	0.502868
979.000000	0.502987
980.000000	0.502925
981.000000	0.502829
982.000000	0.502653
983.000000	0.502512
984.000000	0.502390
985.000000	0.501900
986.000000	0.501673
987.000000	0.501698
988.000000	0.501591
989.000000	0.501121
990.000000	0.500927
991.000000	0.500806
992.000000	0.500506
993.000000	0.500657
994.000000	0.500615
995.000000	0.500443
996.000000	0.500119
997.000000	0.500051
998.000000	0.500179
999.000000	0.500349
1000.000000	0.499969
1001.000000	0.500219
1002.000000	0.500064
1003.000000	0.500214
1004.000000	0.500154
1005.000000	0.499712
1006.000000	0.499657
1007.000000	0.499893
1008.000000	0.499965
1009.000000	0.499665
1010.000000	0.499434
1011.000000	0.499553
1012.000000	0.499382
1013.000000	0.499572
1014.000000	0.499752
1015.000000	0.499270
1016.000000	0.499164
1017.000000	0.498954
1018.000000	0.498623
1019.000000	0.498477
1020.000000	0.498625
1021.000000	0.498177
1022.000000	0.497761
1023.000000	0.497897
1024.000000	0.497659
1025.000000	0.498327
1026.000000	0.498945
1027.000000	0.499187
1028.000000	0.499801
1029.000000	0.499694
1030.000000	0.498591
1031.000000	0.498689
1032.000000	0.498810
1033.000000	0.498404
1034.000000	0.498606
1035.000000	0.499929
1036.000000	0.499860
1037.000000	0.499185
1038.000000	0.498837
1039.000000	0.498042
1040.000000	0.497981
1041.000000	0.498413
1042.000000	0.498353
1043.000000	0.498855
1044.000000	0.499362
1045.000000	0.499406
1046.000000	0.499491
1047.000000	0.499676
1048.000000	0.499433
1049.000000	0.499638
1050.000000	0.500532
1051.000000	0.500793
1052.000000	0.500591
1053.000000	0.500679
1054.000000	0.501106
1055.000000	0.501169
1056.000000	0.501251
1057.000000	0.501455
1058.000000	0.501153
1059.000000	0.500721
1060.000000	0.500938
1061.000000	0.501445
1062.000000	0.501530
1063.000000	0.501675
1064.000000	0.502088
1065.000000	0.502423
1066.000000	0.502826
1067.000000	0.503724
1068.000000	0.504033
1069.000000	0.503898
1070.000000	0.503889
1071.000000	0.503811
1072.000000	0.503724
1073.000000	0.503699
1074.000000	0.503610
1075.000000	0.503770
1076.000000	0.503489
1077.000000	0.503519
1078.000000	0.504057
1079.000000	0.504110
1080.000000	0.504148
1081.000000	0.504181
1082.000000	0.504032
1083.000000	0.504075
1084.000000	0.504361
1085.000000	0.504628
1086.000000	0.504779
1087.000000	0.505163
1088.000000	0.505659
1089.000000	0.506014
1090.000000	0.506533
1091.000000	0.506677
1092.000000	0.506736
1093.000000	0.507436
1094.000000	0.507529
1095.000000	0.507333
1096.000000	0.507477
1097.000000	0.507417
1098.000000	0.507552
1099.000000	0.507977
1100.000000	0.508295
1101.000000	0.508493
1102.000000	0.508646
1103.000000	0.508692
1104.000000	0.508938
1105.000000	0.509223
1106.000000	0.509472
1107.000000	0.510007
1108.000000	0.510124
1109.000000	0.510058
1110.000000	0.509709
1111.000000	0.509788
1112.000000	0.509875
1113.000000	0.509979
1114.000000	0.510379
1115.000000	0.510593
1116.000000	0.510647
1117.000000	0.510722
1118.000000	0.510815
1119.000000	0.510847
1120.000000	0.510663
1121.000000	0.510742
1122.000000	0.511382
1123.000000	0.511777
1124.000000	0.511607
1125.000000	0.511737
1126.000000	0.511663
1127.000000	0.511571
1128.000000	0.511531
1129.000000	0.511818
1130.000000	0.511853
1131.000000	0.511724
1132.000000	0.511645
1133.000000	0.511742
1134.000000	0.511666
1135.000000	0.511315
1136.000000	0.511170
1137.000000	0.511152
1138.000000	0.510868
1139.000000	0.510507
1140.000000	0.510518
1141.000000	0.510570
1142.000000	0.510500
1143.000000	0.510551
1144.000000	0.510679
1145.000000	0.510441
1146.000000	0.509951
1147.000000	0.509759
1148.000000	0.509530
1149.000000	0.509473
1150.000000	0.509558
1151.000000	0.509641
1152.000000	0.509755
1153.000000	0.509865
1154.000000	0.509999
1155.000000	0.509962
1156.000000	0.509747
1157.000000	0.509763
1158.000000	0.509781
1159.000000	0.509703
1160.000000	0.509720
1161.000000	0.509697
1162.000000	0.509647
1163.000000	0.509619
1164.000000	0.509797
1165.000000	0.510007
1166.000000	0.510165
1167.000000	0.510367
1168.000000	0.510288
1169.000000	0.509992
1170.000000	0.509972
1171.000000	0.509948
1172.000000	0.510088
1173.000000	0.510601
1174.000000	0.510644
1175.000000	0.510394
1176.000000	0.510190
1177.000000	0.509812
1178.000000	0.509638
1179.000000	0.509657
1180.000000	0.509519
1181.000000	0.509580
1182.000000	0.509433
1183.000000	0.509300
1184.000000	0.509273
1185.000000	0.509206
1186.000000	0.509123
1187.000000	0.509061
1188.000000	0.509030
1189.000000	0.508910
1190.000000	0.508785
1191.000000	0.508781
1192.000000	0.509013
1193.000000	0.509205
1194.000000	0.509218
1195.000000	0.509321
1196.000000	0.509376
1197.000000	0.509344
1198.000000	0.509370
1199.000000	0.509400
1200.000000	0.509315
1201.000000	0.509175
1202.000000	0.509253
1203.000000	0.509345
1204.000000	0.509380
1205.000000	0.509471
1206.000000	0.509421
1207.000000	0.509433
1208.000000	0.509329
1209.000000	0.509176
1210.000000	0.509173
1211.000000	0.509210
1212.000000	0.509211
1213.000000	0.509409
1214.000000	0.509489
1215.000000	0.509358
1216.000000	0.509372
1217.000000	0.509448
1218.000000	0.509416
1219.000000	0.509321
1220.000000	0.509490
1221.000000	0.509614
1222.000000	0.509471
1223.000000	0.509415
1224.000000	0.509519
1225.000000	0.509478
1226.000000	0.509421
1227.000000	0.509343
1228.000000	0.509323
1229.000000	0.509262
1230.000000	0.509134
1231.000000	0.509038
1232.000000	0.509163
1233.000000	0.509268
1234.000000	0.509381
1235.000000	0.509433
1236.000000	0.509297
1237.000000	0.509327
1238.000000	0.509291
1239.000000	0.509255
1240.000000	0.509267
1241.000000	0.509344
1242.000000	0.509167
1243.000000	0.508993
1244.000000	0.509032
1245.000000	0.508987
1246.000000	0.508964
1247.000000	0.509238
1248.000000	0.509302
1249.000000	0.509168
1250.000000	0.509220
1251.000000	0.509339
1252.000000	0.509338
1253.000000	0.509432
1254.000000	0.509386
1255.000000	0.509085
1256.000000	0.509013
1257.000000	0.509047
1258.000000	0.509069
1259.000000	0.509140
1260.000000	0.509188
1261.000000	0.509043
1262.000000	0.509026
1263.000000	0.509165
1264.000000	0.509137
1265.000000	0.509084
1266.000000	0.508913
1267.000000	0.508698
1268.000000	0.508610
1269.000000	0.508544
1270.000000	0.508521
1271.000000	0.508391
1272.000000	0.508242
1273.000000	0.508170
1274.000000	0.508261
1275.000000	0.508320
1276.000000	0.508530
1277.000000	0.508668
1278.000000	0.508604
1279.000000	0.508610
1280.000000	0.508629
1281.000000	0.508522
1282.000000	0.508364
1283.000000	0.508423
1284.000000	0.508417
1285.000000	0.508318
1286.000000	0.508222
1287.000000	0.508207
1288.000000	0.508068
1289.000000	0.507841
1290.000000	0.507700
1291.000000	0.507652
1292.000000	0.507421
1293.000000	0.507322
1294.000000	0.507379
1295.000000	0.507343
1296.000000	0.507339
1297.000000	0.507309
1298.000000	0.507118
1299.000000	0.506887
1300.000000	0.506923
1301.000000	0.506823
1302.000000	0.506625
1303.000000	0.506622
1304.000000	0.506543
1305.000000	0.506483
1306.000000	0.506398
1307.000000	0.506490
1308.000000	0.506432
1309.000000	0.506135
1310.000000	0.505991
1311.000000	0.505940
1312.000000	0.505848
1313.000000	0.505741
1314.000000	0.505635
1315.000000	0.505432
1316.000000	0.505175
1317.000000	0.504874
1318.000000	0.504643
1319.000000	0.504311
1320.000000	0.503883
1321.000000	0.503603
1322.000000	0.503449
1323.000000	0.503282
1324.000000	0.503239
1325.000000	0.502975
1326.000000	0.502447
1327.000000	0.502187
1328.000000	0.502075
1329.000000	0.501704
1330.000000	0.501398
1331.000000	0.501064
1332.000000	0.500490
1333.000000	0.500064
1334.000000	0.499907
1335.000000	0.499722
1336.000000	0.499599
1337.000000	0.499319
1338.000000	0.498953
1339.000000	0.498438
1340.000000	0.497977
1341.000000	0.497696
1342.000000	0.497521
1343.000000	0.497329
1344.000000	0.496955
1345.000000	0.496493
1346.000000	0.496235
1347.000000	0.495877
1348.000000	0.495622
1349.000000	0.495422
1350.000000	0.495328
1351.000000	0.495100
1352.000000	0.494766
1353.000000	0.494466
1354.000000	0.494058
1355.000000	0.493553
1356.000000	0.493159
1357.000000	0.492746
1358.000000	0.492312
1359.000000	0.491783
1360.000000	0.491306
1361.000000	0.490918
1362.000000	0.490475
1363.000000	0.489979
1364.000000	0.489560
1365.000000	0.489259
1366.000000	0.488669
1367.000000	0.487919
1368.000000	0.487162
1369.000000	0.486457
1370.000000	0.485372
1371.000000	0.484331
1372.000000	0.483279
1373.000000	0.481854
1374.000000	0.480351
1375.000000	0.478727
1376.000000	0.476702
1377.000000	0.474211
1378.000000	0.471090
1379.000000	0.467294
1380.000000	0.462986
1381.000000	0.458133
1382.000000	0.452874
1383.000000	0.447300
1384.000000	0.441553
1385.000000	0.435760
1386.000000	0.430315
1387.000000	0.425654
1388.000000	0.421677
1389.000000	0.418800
1390.000000	0.417002
1391.000000	0.415743
1392.000000	0.415217
1393.000000	0.415197
1394.000000	0.416119
1395.000000	0.416817
1396.000000	0.418171
1397.000000	0.418785
1398.000000	0.419209
1399.000000	0.419206
1400.000000	0.418884
1401.000000	0.418124
1402.000000	0.417039
1403.000000	0.415612
1404.000000	0.413989
1405.000000	0.412407
1406.000000	0.410972
1407.000000	0.409600
1408.000000	0.408170
1409.000000	0.406927
1410.000000	0.405972
1411.000000	0.404928
1412.000000	0.403992
1413.000000	0.403329
1414.000000	0.402648
1415.000000	0.402131
1416.000000	0.401834
1417.000000	0.401696
1418.000000	0.401489
1419.000000	0.401349
1420.000000	0.401171
1421.000000	0.401086
1422.000000	0.401208
1423.000000	0.401400
1424.000000	0.401564
1425.000000	0.401839
1426.000000	0.401949
1427.000000	0.402142
1428.000000	0.402510
1429.000000	0.402868
1430.000000	0.403278
1431.000000	0.403648
1432.000000	0.403846
1433.000000	0.403874
1434.000000	0.404023
1435.000000	0.404250
1436.000000	0.404405
1437.000000	0.404649
1438.000000	0.404747
1439.000000	0.404743
1440.000000	0.404752
1441.000000	0.404727
1442.000000	0.404795
1443.000000	0.404815
1444.000000	0.404794
1445.000000	0.404889
1446.000000	0.404796
1447.000000	0.404550
1448.000000	0.404517
1449.000000	0.404448
1450.000000	0.404275
1451.000000	0.404172
1452.000000	0.403971
1453.000000	0.403773
1454.000000	0.403706
1455.000000	0.403655
1456.000000	0.403568
1457.000000	0.403385
1458.000000	0.403162
1459.000000	0.403035
1460.000000	0.402999
1461.000000	0.403021
1462.000000	0.403075
1463.000000	0.403143
1464.000000	0.403345
1465.000000	0.403610
1466.000000	0.403844
1467.000000	0.404217
1468.000000	0.404583
1469.000000	0.404964
1470.000000	0.405394
1471.000000	0.405925
1472.000000	0.406448
1473.000000	0.407138
1474.000000	0.407868
1475.000000	0.408468
1476.000000	0.409130
1477.000000	0.409818
1478.000000	0.410406
1479.000000	0.411058
1480.000000	0.411674
1481.000000	0.412256
1482.000000	0.412806
1483.000000	0.413529
1484.000000	0.414327
1485.000000	0.415072
1486.000000	0.415904
1487.000000	0.416578
1488.000000	0.417107
1489.000000	0.417867
1490.000000	0.418563
1491.000000	0.419243
1492.000000	0.419987
1493.000000	0.420652
1494.000000	0.421083
1495.000000	0.421649
1496.000000	0.422249
1497.000000	0.422887
1498.000000	0.423608
1499.000000	0.424320
1500.000000	0.424987
1501.000000	0.425653
1502.000000	0.426175
1503.000000	0.426767
1504.000000	0.427431
1505.000000	0.428013
1506.000000	0.428665
1507.000000	0.429226
1508.000000	0.429764
1509.000000	0.430418
1510.000000	0.430881
1511.000000	0.431341
1512.000000	0.431876
1513.000000	0.432313
1514.000000	0.432885
1515.000000	0.433423
1516.000000	0.433800
1517.000000	0.434052
1518.000000	0.434338
1519.000000	0.434622
1520.000000	0.434964
1521.000000	0.435302
1522.000000	0.435691
1523.000000	0.436043
1524.000000	0.436228
1525.000000	0.436551
1526.000000	0.436771
1527.000000	0.436931
1528.000000	0.437299
1529.000000	0.437685
1530.000000	0.437896
1531.000000	0.438182
1532.000000	0.438523
1533.000000	0.438673
1534.000000	0.438925
1535.000000	0.439288
1536.000000	0.439502
1537.000000	0.439889
1538.000000	0.440236
1539.000000	0.440355
1540.000000	0.440468
1541.000000	0.440696
1542.000000	0.441039
1543.000000	0.441458
1544.000000	0.441974
1545.000000	0.442408
1546.000000	0.442576
1547.000000	0.442679
1548.000000	0.442841
1549.000000	0.442894
1550.000000	0.442905
1551.000000	0.443030
1552.000000	0.443162
1553.000000	0.443309
1554.000000	0.443497
1555.000000	0.443606
1556.000000	0.443670
1557.000000	0.443743
1558.000000	0.443858
1559.000000	0.443890
1560.000000	0.444070
1561.000000	0.444471
1562.000000	0.444595
1563.000000	0.444765
1564.000000	0.444875
1565.000000	0.444721
1566.000000	0.444637
1567.000000	0.444772
1568.000000	0.444872
1569.000000	0.445045
1570.000000	0.445169
1571.000000	0.445313
1572.000000	0.445302
1573.000000	0.445158
1574.000000	0.445160
1575.000000	0.445190
1576.000000	0.445275
1577.000000	0.445513
1578.000000	0.445481
1579.000000	0.445318
1580.000000	0.445340
1581.000000	0.445395
1582.000000	0.445528
1583.000000	0.445902
1584.000000	0.445994
1585.000000	0.446033
1586.000000	0.446137
1587.000000	0.446225
1588.000000	0.446253
1589.000000	0.446256
1590.000000	0.446317
1591.000000	0.446319
1592.000000	0.446467
1593.000000	0.446900
1594.000000	0.447070
1595.000000	0.447236
1596.000000	0.447318
1597.000000	0.447266
1598.000000	0.447262
1599.000000	0.447307
1600.000000	0.447321
1601.000000	0.447409
1602.000000	0.447455
1603.000000	0.447529
1604.000000	0.447564
1605.000000	0.447616
1606.000000	0.447661
1607.000000	0.447756
1608.000000	0.447805
1609.000000	0.447914
1610.000000	0.447944
1611.000000	0.447958
1612.000000	0.447980
1613.000000	0.448123
1614.000000	0.448181
1615.000000	0.448262
1616.000000	0.448406
1617.000000	0.448488
1618.000000	0.448544
1619.000000	0.448579
1620.000000	0.448676
1621.000000	0.448793
1622.000000	0.449054
1623.000000	0.449415
1624.000000	0.449665
1625.000000	0.449723
1626.000000	0.449782
1627.000000	0.449783
1628.000000	0.449979
1629.000000	0.450255
1630.000000	0.450541
1631.000000	0.450815
1632.000000	0.451013
1633.000000	0.451195
1634.000000	0.451435
1635.000000	0.451789
1636.000000	0.452015
1637.000000	0.452216
1638.000000	0.452441
1639.000000	0.452628
1640.000000	0.452866
1641.000000	0.453370
1642.000000	0.453598
1643.000000	0.453709
1644.000000	0.453938
1645.000000	0.454140
1646.000000	0.454154
1647.000000	0.454205
1648.000000	0.454196
1649.000000	0.454101
1650.000000	0.454197
1651.000000	0.454521
1652.000000	0.454652
1653.000000	0.454596
1654.000000	0.454736
1655.000000	0.454834
1656.000000	0.454833
1657.000000	0.455024
1658.000000	0.455105
1659.000000	0.455170
1660.000000	0.455315
1661.000000	0.455413
1662.000000	0.455541
1663.000000	0.455564
1664.000000	0.455745
1665.000000	0.456040
1666.000000	0.456354
1667.000000	0.456647
1668.000000	0.456925
1669.000000	0.457191
1670.000000	0.457338
1671.000000	0.457640
1672.000000	0.457771
1673.000000	0.457692
1674.000000	0.457813
1675.000000	0.457802
1676.000000	0.457741
1677.000000	0.457749
1678.000000	0.457775
1679.000000	0.457845
1680.000000	0.457907
1681.000000	0.457995
1682.000000	0.458044
1683.000000	0.458115
1684.000000	0.458306
1685.000000	0.458495
1686.000000	0.458373
1687.000000	0.458312
1688.000000	0.458340
1689.000000	0.458323
1690.000000	0.458455
1691.000000	0.458722
1692.000000	0.458745
1693.000000	0.458756
1694.000000	0.458704
1695.000000	0.458609
1696.000000	0.458637
1697.000000	0.458601
1698.000000	0.458776
1699.000000	0.458875
1700.000000	0.458788
1701.000000	0.458952
1702.000000	0.458993
1703.000000	0.458975
1704.000000	0.459241
1705.000000	0.459300
1706.000000	0.459164
1707.000000	0.459173
1708.000000	0.459109
1709.000000	0.459064
1710.000000	0.459369
1711.000000	0.459452
1712.000000	0.459339
1713.000000	0.459403
1714.000000	0.459550
1715.000000	0.459684
1716.000000	0.460048
1717.000000	0.460172
1718.000000	0.460024
1719.000000	0.459961
1720.000000	0.459908
1721.000000	0.459914
1722.000000	0.460030
1723.000000	0.460040
1724.000000	0.460074
1725.000000	0.460061
1726.000000	0.459742
1727.000000	0.459739
1728.000000	0.459806
1729.000000	0.459754
1730.000000	0.460037
1731.000000	0.460095
1732.000000	0.460004
1733.000000	0.460042
1734.000000	0.459890
1735.000000	0.459840
1736.000000	0.459774
1737.000000	0.459712
1738.000000	0.459706
1739.000000	0.459697
1740.000000	0.459673
1741.000000	0.459591
1742.000000	0.459488
1743.000000	0.459556
1744.000000	0.459636
1745.000000	0.459614
1746.000000	0.459681
1747.000000	0.459474
1748.000000	0.459304
1749.000000	0.459295
1750.000000	0.459117
1751.000000	0.458997
1752.000000	0.459023
1753.000000	0.458851
1754.000000	0.458680
1755.000000	0.458464
1756.000000	0.458297
1757.000000	0.458015
1758.000000	0.457946
1759.000000	0.458169
1760.000000	0.458159
1761.000000	0.458049
1762.000000	0.457954
1763.000000	0.457735
1764.000000	0.457599
1765.000000	0.457510
1766.000000	0.457431
1767.000000	0.457228
1768.000000	0.457028
1769.000000	0.457018
1770.000000	0.456969
1771.000000	0.456796
1772.000000	0.456703
1773.000000	0.456474
1774.000000	0.456521
1775.000000	0.456947
1776.000000	0.456996
1777.000000	0.456959
1778.000000	0.456946
1779.000000	0.456635
1780.000000	0.456653
1781.000000	0.456934
1782.000000	0.456919
1783.000000	0.456879
1784.000000	0.456829
1785.000000	0.456670
1786.000000	0.456872
1787.000000	0.457172
1788.000000	0.457272
1789.000000	0.457505
1790.000000	0.457311
1791.000000	0.457242
1792.000000	0.457376
1793.000000	0.457509
1794.000000	0.457939
1795.000000	0.458071
1796.000000	0.457953
1797.000000	0.457846
1798.000000	0.457456
1799.000000	0.457292
1800.000000	0.457330
1801.000000	0.457365
1802.000000	0.457441
1803.000000	0.457273
1804.000000	0.457755
1805.000000	0.459074
1806.000000	0.459391
1807.000000	0.459604
1808.000000	0.459674
1809.000000	0.459337
1810.000000	0.458375
1811.000000	0.457931
1812.000000	0.457768
1813.000000	0.457579
1814.000000	0.457632
1815.000000	0.457291
1816.000000	0.456774
1817.000000	0.456236
1818.000000	0.455264
1819.000000	0.454789
1820.000000	0.454992
1821.000000	0.454827
1822.000000	0.455048
1823.000000	0.455699
1824.000000	0.455783
1825.000000	0.455866
1826.000000	0.455736
1827.000000	0.454995
1828.000000	0.454331
1829.000000	0.453456
1830.000000	0.453681
1831.000000	0.453815
1832.000000	0.454441
1833.000000	0.454422
1834.000000	0.454458
1835.000000	0.454096
1836.000000	0.452986
1837.000000	0.452388
1838.000000	0.451336
1839.000000	0.451108
1840.000000	0.451045
1841.000000	0.451278
1842.000000	0.450838
1843.000000	0.450093
1844.000000	0.449398
1845.000000	0.447741
1846.000000	0.447005
1847.000000	0.446703
1848.000000	0.446292
1849.000000	0.445719
1850.000000	0.445488
1851.000000	0.445184
1852.000000	0.444785
1853.000000	0.444470
1854.000000	0.444400
1855.000000	0.443483
1856.000000	0.441976
1857.000000	0.440271
1858.000000	0.438764
1859.000000	0.436921
1860.000000	0.435414
1861.000000	0.433839
1862.000000	0.431905
1863.000000	0.429490
1864.000000	0.427778
1865.000000	0.426947
1866.000000	0.424712
1867.000000	0.422403
1868.000000	0.419001
1869.000000	0.414589
1870.000000	0.410507
1871.000000	0.406782
1872.000000	0.403783
1873.000000	0.400411
1874.000000	0.397050
1875.000000	0.393432
1876.000000	0.389686
1877.000000	0.385099
1878.000000	0.380081
1879.000000	0.374515
1880.000000	0.368575
1881.000000	0.362725
1882.000000	0.356380
1883.000000	0.350350
1884.000000	0.344136
1885.000000	0.337367
1886.000000	0.330433
1887.000000	0.323634
1888.000000	0.315743
1889.000000	0.307844
1890.000000	0.300880
1891.000000	0.293060
1892.000000	0.285974
1893.000000	0.278877
1894.000000	0.271185
1895.000000	0.264675
1896.000000	0.259036
1897.000000	0.253712
1898.000000	0.248969
1899.000000	0.244945
1900.000000	0.240847
1901.000000	0.237249
1902.000000	0.233499
1903.000000	0.229776
1904.000000	0.226680
1905.000000	0.224144
1906.000000	0.222151
1907.000000	0.220973
1908.000000	0.220259
1909.000000	0.219656
1910.000000	0.219305
1911.000000	0.219080
1912.000000	0.219382
1913.000000	0.220182
1914.000000	0.220942
1915.000000	0.221617
1916.000000	0.222637
1917.000000	0.223267
1918.000000	0.223874
1919.000000	0.223897
1920.000000	0.224260
1921.000000	0.224897
1922.000000	0.225254
1923.000000	0.226258
1924.000000	0.227507
1925.000000	0.228291
1926.000000	0.229287
1927.000000	0.230438
1928.000000	0.231314
1929.000000	0.232079
1930.000000	0.232597
1931.000000	0.233245
1932.000000	0.233676
1933.000000	0.233807
1934.000000	0.234584
1935.000000	0.235854
1936.000000	0.237345
1937.000000	0.239109
1938.000000	0.240650
1939.000000	0.241693
1940.000000	0.242164
1941.000000	0.242451
1942.000000	0.243066
1943.000000	0.243343
1944.000000	0.243119
1945.000000	0.243187
1946.000000	0.243246
1947.000000	0.242960
1948.000000	0.242981
1949.000000	0.243136
1950.000000	0.242904
1951.000000	0.242773
1952.000000	0.242643
1953.000000	0.242943
1954.000000	0.243476
1955.000000	0.244260
1956.000000	0.244885
1957.000000	0.245295
1958.000000	0.245706
1959.000000	0.245584
1960.000000	0.245253
1961.000000	0.245512
1962.000000	0.245888
1963.000000	0.246343
1964.000000	0.246880
1965.000000	0.247780
1966.000000	0.248384
1967.000000	0.248574
1968.000000	0.248865
1969.000000	0.249134
1970.000000	0.249364
1971.000000	0.249779
1972.000000	0.250283
1973.000000	0.250734
1974.000000	0.251422
1975.000000	0.252075
1976.000000	0.252765
1977.000000	0.253561
1978.000000	0.253684
1979.000000	0.254308
1980.000000	0.254904
1981.000000	0.255228
1982.000000	0.256386
1983.000000	0.257469
1984.000000	0.258377
1985.000000	0.259361
1986.000000	0.260036
1987.000000	0.260425
1988.000000	0.261218
1989.000000	0.261868
1990.000000	0.262477
1991.000000	0.263153
1992.000000	0.263954
1993.000000	0.265179
1994.000000	0.266922
1995.000000	0.268867
1996.000000	0.270190
1997.000000	0.271442
1998.000000	0.272290
1999.000000	0.273322
2000.000000	0.274051
2001.000000	0.275636
2002.000000	0.276890
2003.000000	0.277923
2004.000000	0.279613
2005.000000	0.280455
2006.000000	0.281486
2007.000000	0.282977
2008.000000	0.284406
2009.000000	0.285896
2010.000000	0.287599
2011.000000	0.289319
2012.000000	0.290892
2013.000000	0.292705
2014.000000	0.293760
2015.000000	0.294643
2016.000000	0.295225
2017.000000	0.295430
2018.000000	0.295893
2019.000000	0.296438
2020.000000	0.297792
2021.000000	0.298998
2022.000000	0.300436
2023.000000	0.301855
2024.000000	0.303238
2025.000000	0.304660
2026.000000	0.306403
2027.000000	0.307508
2028.000000	0.308009
2029.000000	0.309101
2030.000000	0.309747
2031.000000	0.310538
2032.000000	0.311919
2033.000000	0.313387
2034.000000	0.314456
2035.000000	0.315259
2036.000000	0.316263
2037.000000	0.317324
2038.000000	0.318441
2039.000000	0.319700
2040.000000	0.321633
2041.000000	0.322651
2042.000000	0.323064
2043.000000	0.323960
2044.000000	0.324435
2045.000000	0.324672
2046.000000	0.325193
2047.000000	0.325911
2048.000000	0.326217
2049.000000	0.327473
2050.000000	0.329389
2051.000000	0.330784
2052.000000	0.332435
2053.000000	0.333471
2054.000000	0.334311
2055.000000	0.335050
2056.000000	0.335534
2057.000000	0.336223
2058.000000	0.336629
2059.000000	0.337113
2060.000000	0.337865
2061.000000	0.338781
2062.000000	0.339445
2063.000000	0.340597
2064.000000	0.341044
2065.000000	0.341340
2066.000000	0.341507
2067.000000	0.341673
2068.000000	0.341425
2069.000000	0.342086
2070.000000	0.342938
2071.000000	0.344137
2072.000000	0.345747
2073.000000	0.346745
2074.000000	0.347484
2075.000000	0.348075
2076.000000	0.348284
2077.000000	0.348634
2078.000000	0.348594
2079.000000	0.349134
2080.000000	0.350200
2081.000000	0.350953
2082.000000	0.352021
2083.000000	0.352914
2084.000000	0.352841
2085.000000	0.353055
2086.000000	0.353507
2087.000000	0.353992
2088.000000	0.354819
2089.000000	0.355858
2090.000000	0.356590
2091.000000	0.356951
2092.000000	0.357835
2093.000000	0.359081
2094.000000	0.359945
2095.000000	0.361435
2096.000000	0.362108
2097.000000	0.361909
2098.000000	0.361623
2099.000000	0.361514
2100.000000	0.361910
2101.000000	0.363272
2102.000000	0.364888
2103.000000	0.366268
2104.000000	0.366916
2105.000000	0.367397
2106.000000	0.367126
2107.000000	0.367211
2108.000000	0.366966
2109.000000	0.367396
2110.000000	0.367824
2111.000000	0.368498
2112.000000	0.370104
2113.000000	0.370394
2114.000000	0.370111
2115.000000	0.370505
2116.000000	0.369746
2117.000000	0.369903
2118.000000	0.371529
2119.000000	0.371895
2120.000000	0.372569
2121.000000	0.373734
2122.000000	0.374240
2123.000000	0.373987
2124.000000	0.374343
2125.000000	0.374879
2126.000000	0.375127
2127.000000	0.375471
2128.000000	0.375964
2129.000000	0.376228
2130.000000	0.376409
2131.000000	0.376967
2132.000000	0.377448
2133.000000	0.378132
2134.000000	0.378758
2135.000000	0.379148
2136.000000	0.379613
2137.000000	0.380186
2138.000000	0.380994
2139.000000	0.381320
2140.000000	0.381636
2141.000000	0.381583
2142.000000	0.380813
2143.000000	0.380178
2144.000000	0.379533
2145.000000	0.379396
2146.000000	0.379599
2147.000000	0.380058
2148.000000	0.380445
2149.000000	0.380926
2150.000000	0.381614
2151.000000	0.381497
2152.000000	0.380859
2153.000000	0.380909
2154.000000	0.381073
2155.000000	0.381073
2156.000000	0.381520
2157.000000	0.382780
2158.000000	0.383441
2159.000000	0.383986
2160.000000	0.384481
2161.000000	0.385082
2162.000000	0.385596
2163.000000	0.385817
2164.000000	0.385860
2165.000000	0.385672
2166.000000	0.385372
2167.000000	0.385047
2168.000000	0.385316
2169.000000	0.385806
2170.000000	0.385474
2171.000000	0.385688
2172.000000	0.386278
2173.000000	0.386045
2174.000000	0.385508
2175.000000	0.385422
2176.000000	0.384640
2177.000000	0.384572
2178.000000	0.385658
2179.000000	0.386157
2180.000000	0.386491
2181.000000	0.387041
2182.000000	0.386812
2183.000000	0.386755
2184.000000	0.387235
2185.000000	0.386611
2186.000000	0.385027
2187.000000	0.383402
2188.000000	0.381575
2189.000000	0.380235
2190.000000	0.380094
2191.000000	0.380580
2192.000000	0.380640
2193.000000	0.380527
2194.000000	0.380763
2195.000000	0.381980
2196.000000	0.381706
2197.000000	0.380138
2198.000000	0.379667
2199.000000	0.378577
2200.000000	0.378251
2201.000000	0.380001
2202.000000	0.380259
2203.000000	0.379486
2204.000000	0.378190
2205.000000	0.377670
2206.000000	0.378316
2207.000000	0.377438
2208.000000	0.376041
2209.000000	0.374753
2210.000000	0.373257
2211.000000	0.373303
2212.000000	0.376079
2213.000000	0.376224
2214.000000	0.375715
2215.000000	0.375192
2216.000000	0.372400
2217.000000	0.371894
2218.000000	0.371838
2219.000000	0.372701
2220.000000	0.375892
2221.000000	0.377670
2222.000000	0.380064
2223.000000	0.381226
2224.000000	0.381132
2225.000000	0.381460
2226.000000	0.379450
2227.000000	0.378055
2228.000000	0.376905
2229.000000	0.373840
2230.000000	0.372880
2231.000000	0.373022
2232.000000	0.372371
2233.000000	0.373959
2234.000000	0.375220
2235.000000	0.374713
2236.000000	0.373772
2237.000000	0.370838
2238.000000	0.370236
2239.000000	0.369822
2240.000000	0.369827
2241.000000	0.372801
2242.000000	0.372386
2243.000000	0.368823
2244.000000	0.368617
2245.000000	0.368859
2246.000000	0.368689
2247.000000	0.369408
2248.000000	0.370813
2249.000000	0.372718
2250.000000	0.373419
2251.000000	0.374410
2252.000000	0.375468
2253.000000	0.373763
2254.000000	0.372612
2255.000000	0.373126
2256.000000	0.373794
2257.000000	0.372382
2258.000000	0.370766
2259.000000	0.369759
2260.000000	0.369041
2261.000000	0.367733
2262.000000	0.367004
2263.000000	0.365667
2264.000000	0.362509
2265.000000	0.361302
2266.000000	0.362076
2267.000000	0.361997
2268.000000	0.361768
2269.000000	0.361958
2270.000000	0.362477
2271.000000	0.361751
2272.000000	0.362205
2273.000000	0.360510
2274.000000	0.355872
2275.000000	0.352214
2276.000000	0.348332
2277.000000	0.343074
2278.000000	0.339386
2279.000000	0.337695
2280.000000	0.334340
2281.000000	0.332416
2282.000000	0.331480
2283.000000	0.330898
2284.000000	0.330426
2285.000000	0.329035
2286.000000	0.326146
2287.000000	0.320914
2288.000000	0.317008
2289.000000	0.313252
2290.000000	0.310625
2291.000000	0.310056
2292.000000	0.309137
2293.000000	0.309711
2294.000000	0.308514
2295.000000	0.306684
2296.000000	0.304338
2297.000000	0.299684
2298.000000	0.296820
2299.000000	0.293676
2300.000000	0.292480
2301.000000	0.294830
2302.000000	0.293856
2303.000000	0.292108
2304.000000	0.290668
2305.000000	0.287688
2306.000000	0.284636
2307.000000	0.282404
2308.000000	0.278846
2309.000000	0.274534
2310.000000	0.271233
2311.000000	0.269585
2312.000000	0.269549
2313.000000	0.269530
2314.000000	0.268734
2315.000000	0.268968
2316.000000	0.269122
2317.000000	0.270167
2318.000000	0.273105
2319.000000	0.275392
2320.000000	0.277075
2321.000000	0.279039
2322.000000	0.279363
2323.000000	0.279677
2324.000000	0.281303
2325.000000	0.282358
2326.000000	0.284255
2327.000000	0.288226
2328.000000	0.292897
2329.000000	0.297182
2330.000000	0.300448
2331.000000	0.301712
2332.000000	0.301181
2333.000000	0.299748
2334.000000	0.297978
2335.000000	0.297901
2336.000000	0.298082
2337.000000	0.298519
2338.000000	0.301886
2339.000000	0.301466
2340.000000	0.298401
2341.000000	0.296750
2342.000000	0.292857
2343.000000	0.291711
2344.000000	0.292461
2345.000000	0.292920
2346.000000	0.294942
2347.000000	0.295591
2348.000000	0.296813
2349.000000	0.295561
2350.000000	0.292754
2351.000000	0.289802
2352.000000	0.285559
2353.000000	0.287256
2354.000000	0.287714
2355.000000	0.288811
2356.000000	0.290998
2357.000000	0.289234
2358.000000	0.289284
2359.000000	0.287601
2360.000000	0.283715
2361.000000	0.279676
2362.000000	0.278022
2363.000000	0.278456
2364.000000	0.275715
2365.000000	0.274788
2366.000000	0.273935
2367.000000	0.272838
2368.000000	0.271829
2369.000000	0.270652
2370.000000	0.270037
2371.000000	0.265316
2372.000000	0.262701
2373.000000	0.263243
2374.000000	0.259906
2375.000000	0.256518
2376.000000	0.260402
2377.000000	0.260796
2378.000000	0.257597
2379.000000	0.258583
2380.000000	0.251895
2381.000000	0.246945
2382.000000	0.247911
2383.000000	0.246186
2384.000000	0.247878
2385.000000	0.248170
2386.000000	0.244431
2387.000000	0.240793
2388.000000	0.235512
2389.000000	0.231034
2390.000000	0.229387
2391.000000	0.228231
2392.000000	0.225656
2393.000000	0.224563
2394.000000	0.226081
2395.000000	0.226276
2396.000000	0.230535
2397.000000	0.235301
2398.000000	0.237906
2399.000000	0.243857
2400.000000	0.248187
2401.000000	0.253553
2402.000000	0.254407
2403.000000	0.247598
2404.000000	0.241320
2405.000000	0.224005
2406.000000	0.206764
2407.000000	0.203779
2408.000000	0.199902
2409.000000	0.202727
2410.000000	0.214480
2411.000000	0.224208
2412.000000	0.232371
2413.000000	0.236201
2414.000000	0.237448
2415.000000	0.230485
2416.000000	0.224376
2417.000000	0.228117
2418.000000	0.228619
2419.000000	0.226981
2420.000000	0.224626
2421.000000	0.214337
2422.000000	0.204879
2423.000000	0.205053
2424.000000	0.210685
2425.000000	0.222558
2426.000000	0.232926
2427.000000	0.244350
2428.000000	0.251899
2429.000000	0.248726
2430.000000	0.250394
2431.000000	0.243071
2432.000000	0.232773
2433.000000	0.228485
2434.000000	0.217595
2435.000000	0.210723
2436.000000	0.203243
2437.000000	0.202959
2438.000000	0.209830
2439.000000	0.208213
2440.000000	0.213690
2441.000000	0.210683
2442.000000	0.196103
2443.000000	0.198011
2444.000000	0.193241
2445.000000	0.182600
2446.000000	0.195500
2447.000000	0.203536
2448.000000	0.206184
2449.000000	0.224116
2450.000000	0.224143
2451.000000	0.207852
2452.000000	0.197476
2453.000000	0.186335
2454.000000	0.194439
2455.000000	0.214455
2456.000000	0.227067
2457.000000	0.239930
2458.000000	0.225785
2459.000000	0.195613
2460.000000	0.187951
2461.000000	0.181067
2462.000000	0.179821
2463.000000	0.187548
2464.000000	0.185179
2465.000000	0.184796
2466.000000	0.168623
2467.000000	0.152349
2468.000000	0.157656
2469.000000	0.152420
2470.000000	0.156811
2471.000000	0.178471
2472.000000	0.190975
2473.000000	0.202911
2474.000000	0.202681
2475.000000	0.195807
2476.000000	0.191243
2477.000000	0.179657
2478.000000	0.195805
2479.000000	0.213464
2480.000000	0.201553
2481.000000	0.199665
2482.000000	0.187650
2483.000000	0.145051
2484.000000	0.126645
2485.000000	0.111247
2486.000000	0.115313
2487.000000	0.145252
2488.000000	0.157769
2489.000000	0.203850
2490.000000	0.211698
2491.000000	0.211758
2492.000000	0.198819
2493.000000	0.143312
2494.000000	0.130040
2495.000000	0.132444
2496.000000	0.144145
2497.000000	0.203981
2498.000000	0.203017
2499.000000	0.175085
2500.000000	0.149503
