# Wavelength	SM1200H-70_FV7-30_00000.asd.rts.txt
350.000000	0.335726
351.000000	0.335267
352.000000	0.329091
353.000000	0.324877
354.000000	0.328227
355.000000	0.331723
356.000000	0.333015
357.000000	0.334321
358.000000	0.335594
359.000000	0.334393
360.000000	0.333097
361.000000	0.334018
362.000000	0.335347
363.000000	0.335847
364.000000	0.335053
365.000000	0.337166
366.000000	0.339090
367.000000	0.339358
368.000000	0.338553
369.000000	0.338131
370.000000	0.338936
371.000000	0.341062
372.000000	0.340888
373.000000	0.339948
374.000000	0.340281
375.000000	0.341042
376.000000	0.342242
377.000000	0.343187
378.000000	0.342832
379.000000	0.343553
380.000000	0.344852
381.000000	0.346383
382.000000	0.346509
383.000000	0.346037
384.000000	0.346146
385.000000	0.346782
386.000000	0.348203
387.000000	0.349938
388.000000	0.350165
389.000000	0.349275
390.000000	0.349007
391.000000	0.350786
392.000000	0.350771
393.000000	0.350673
394.000000	0.351895
395.000000	0.352413
396.000000	0.352527
397.000000	0.352499
398.000000	0.352699
399.000000	0.352707
400.000000	0.353101
401.000000	0.354555
402.000000	0.354930
403.000000	0.355009
404.000000	0.355800
405.000000	0.355835
406.000000	0.356034
407.000000	0.356760
408.000000	0.357164
409.000000	0.357439
410.000000	0.357674
411.000000	0.357872
412.000000	0.357978
413.000000	0.358169
414.000000	0.358586
415.000000	0.358599
416.000000	0.358703
417.000000	0.359204
418.000000	0.359934
419.000000	0.360369
420.000000	0.360468
421.000000	0.360572
422.000000	0.361021
423.000000	0.361541
424.000000	0.361816
425.000000	0.362072
426.000000	0.362419
427.000000	0.362790
428.000000	0.362678
429.000000	0.362930
430.000000	0.363617
431.000000	0.363744
432.000000	0.363986
433.000000	0.364366
434.000000	0.364791
435.000000	0.365118
436.000000	0.365275
437.000000	0.365278
438.000000	0.365587
439.000000	0.365841
440.000000	0.365987
441.000000	0.366121
442.000000	0.366267
443.000000	0.366464
444.000000	0.367011
445.000000	0.367143
446.000000	0.367243
447.000000	0.367630
448.000000	0.367819
449.000000	0.368002
450.000000	0.368326
451.000000	0.368530
452.000000	0.368805
453.000000	0.369111
454.000000	0.369490
455.000000	0.369824
456.000000	0.370184
457.000000	0.370446
458.000000	0.370525
459.000000	0.370696
460.000000	0.371183
461.000000	0.371378
462.000000	0.371637
463.000000	0.371869
464.000000	0.371870
465.000000	0.372022
466.000000	0.372317
467.000000	0.372698
468.000000	0.372941
469.000000	0.373014
470.000000	0.373189
471.000000	0.373426
472.000000	0.373610
473.000000	0.373738
474.000000	0.373940
475.000000	0.374010
476.000000	0.374127
477.000000	0.374398
478.000000	0.374579
479.000000	0.374811
480.000000	0.374880
481.000000	0.375050
482.000000	0.375376
483.000000	0.375565
484.000000	0.375882
485.000000	0.376070
486.000000	0.376260
487.000000	0.376449
488.000000	0.376640
489.000000	0.376913
490.000000	0.377369
491.000000	0.377614
492.000000	0.377815
493.000000	0.378054
494.000000	0.378261
495.000000	0.378499
496.000000	0.378756
497.000000	0.379047
498.000000	0.379281
499.000000	0.379545
500.000000	0.379872
501.000000	0.380104
502.000000	0.380348
503.000000	0.380695
504.000000	0.381054
505.000000	0.381363
506.000000	0.381604
507.000000	0.381860
508.000000	0.382150
509.000000	0.382431
510.000000	0.382772
511.000000	0.383059
512.000000	0.383327
513.000000	0.383650
514.000000	0.383953
515.000000	0.384262
516.000000	0.384538
517.000000	0.384848
518.000000	0.385173
519.000000	0.385386
520.000000	0.385641
521.000000	0.385903
522.000000	0.386156
523.000000	0.386392
524.000000	0.386690
525.000000	0.387000
526.000000	0.387266
527.000000	0.387505
528.000000	0.387743
529.000000	0.388064
530.000000	0.388304
531.000000	0.388568
532.000000	0.388802
533.000000	0.389006
534.000000	0.389230
535.000000	0.389478
536.000000	0.389766
537.000000	0.390035
538.000000	0.390319
539.000000	0.390658
540.000000	0.390952
541.000000	0.391217
542.000000	0.391523
543.000000	0.391774
544.000000	0.392079
545.000000	0.392373
546.000000	0.392589
547.000000	0.392842
548.000000	0.393165
549.000000	0.393403
550.000000	0.393650
551.000000	0.393942
552.000000	0.394222
553.000000	0.394501
554.000000	0.394805
555.000000	0.395148
556.000000	0.395474
557.000000	0.395731
558.000000	0.396066
559.000000	0.396357
560.000000	0.396580
561.000000	0.396872
562.000000	0.397230
563.000000	0.397510
564.000000	0.397797
565.000000	0.398055
566.000000	0.398375
567.000000	0.398675
568.000000	0.398900
569.000000	0.399200
570.000000	0.399455
571.000000	0.399655
572.000000	0.399913
573.000000	0.400187
574.000000	0.400456
575.000000	0.400780
576.000000	0.401102
577.000000	0.401383
578.000000	0.401682
579.000000	0.401941
580.000000	0.402216
581.000000	0.402521
582.000000	0.402818
583.000000	0.403055
584.000000	0.403259
585.000000	0.403519
586.000000	0.403797
587.000000	0.404033
588.000000	0.404201
589.000000	0.404489
590.000000	0.404776
591.000000	0.404994
592.000000	0.405261
593.000000	0.405529
594.000000	0.405775
595.000000	0.406009
596.000000	0.406192
597.000000	0.406411
598.000000	0.406650
599.000000	0.406788
600.000000	0.406948
601.000000	0.407141
602.000000	0.407366
603.000000	0.407569
604.000000	0.407743
605.000000	0.407905
606.000000	0.408088
607.000000	0.408287
608.000000	0.408469
609.000000	0.408629
610.000000	0.408797
611.000000	0.408999
612.000000	0.409192
613.000000	0.409390
614.000000	0.409628
615.000000	0.409768
616.000000	0.409876
617.000000	0.409938
618.000000	0.410006
619.000000	0.410125
620.000000	0.410195
621.000000	0.410158
622.000000	0.410157
623.000000	0.410167
624.000000	0.410155
625.000000	0.410192
626.000000	0.410203
627.000000	0.410180
628.000000	0.410216
629.000000	0.410341
630.000000	0.410369
631.000000	0.410383
632.000000	0.410453
633.000000	0.410587
634.000000	0.410740
635.000000	0.410860
636.000000	0.411004
637.000000	0.411184
638.000000	0.411396
639.000000	0.411594
640.000000	0.411814
641.000000	0.411934
642.000000	0.412072
643.000000	0.412253
644.000000	0.412469
645.000000	0.412596
646.000000	0.412727
647.000000	0.412885
648.000000	0.412969
649.000000	0.413058
650.000000	0.413156
651.000000	0.413257
652.000000	0.413347
653.000000	0.413476
654.000000	0.413602
655.000000	0.413718
656.000000	0.413820
657.000000	0.413855
658.000000	0.414011
659.000000	0.414200
660.000000	0.414344
661.000000	0.414471
662.000000	0.414507
663.000000	0.414557
664.000000	0.414697
665.000000	0.414848
666.000000	0.414990
667.000000	0.415090
668.000000	0.415241
669.000000	0.415385
670.000000	0.415492
671.000000	0.415585
672.000000	0.415683
673.000000	0.415777
674.000000	0.415865
675.000000	0.415942
676.000000	0.416054
677.000000	0.416259
678.000000	0.416406
679.000000	0.416524
680.000000	0.416650
681.000000	0.416723
682.000000	0.416840
683.000000	0.416942
684.000000	0.417117
685.000000	0.417276
686.000000	0.417429
687.000000	0.417550
688.000000	0.417668
689.000000	0.417775
690.000000	0.417908
691.000000	0.418051
692.000000	0.418129
693.000000	0.418224
694.000000	0.418356
695.000000	0.418489
696.000000	0.418622
697.000000	0.418767
698.000000	0.418857
699.000000	0.418949
700.000000	0.419099
701.000000	0.419242
702.000000	0.419366
703.000000	0.419447
704.000000	0.419519
705.000000	0.419596
706.000000	0.419640
707.000000	0.419723
708.000000	0.419859
709.000000	0.419986
710.000000	0.420079
711.000000	0.420180
712.000000	0.420315
713.000000	0.420490
714.000000	0.420589
715.000000	0.420661
716.000000	0.420760
717.000000	0.420904
718.000000	0.421002
719.000000	0.421054
720.000000	0.421115
721.000000	0.421258
722.000000	0.421401
723.000000	0.421562
724.000000	0.421641
725.000000	0.421671
726.000000	0.421769
727.000000	0.421858
728.000000	0.421976
729.000000	0.422105
730.000000	0.422170
731.000000	0.422302
732.000000	0.422389
733.000000	0.422442
734.000000	0.422465
735.000000	0.422441
736.000000	0.422516
737.000000	0.422545
738.000000	0.422449
739.000000	0.422439
740.000000	0.422447
741.000000	0.422529
742.000000	0.422684
743.000000	0.422827
744.000000	0.422891
745.000000	0.422882
746.000000	0.422896
747.000000	0.422913
748.000000	0.422951
749.000000	0.423018
750.000000	0.423072
751.000000	0.423137
752.000000	0.423212
753.000000	0.423306
754.000000	0.423407
755.000000	0.423530
756.000000	0.423654
757.000000	0.423687
758.000000	0.423687
759.000000	0.423673
760.000000	0.423595
761.000000	0.423629
762.000000	0.423703
763.000000	0.423779
764.000000	0.423941
765.000000	0.424110
766.000000	0.424244
767.000000	0.424311
768.000000	0.424335
769.000000	0.424331
770.000000	0.424324
771.000000	0.424333
772.000000	0.424368
773.000000	0.424357
774.000000	0.424379
775.000000	0.424420
776.000000	0.424447
777.000000	0.424408
778.000000	0.424301
779.000000	0.424236
780.000000	0.424258
781.000000	0.424326
782.000000	0.424393
783.000000	0.424553
784.000000	0.424664
785.000000	0.424688
786.000000	0.424691
787.000000	0.424693
788.000000	0.424645
789.000000	0.424591
790.000000	0.424520
791.000000	0.424469
792.000000	0.424485
793.000000	0.424536
794.000000	0.424593
795.000000	0.424674
796.000000	0.424689
797.000000	0.424623
798.000000	0.424553
799.000000	0.424599
800.000000	0.424665
801.000000	0.424620
802.000000	0.424590
803.000000	0.424554
804.000000	0.424532
805.000000	0.424454
806.000000	0.424335
807.000000	0.424296
808.000000	0.424302
809.000000	0.424358
810.000000	0.424425
811.000000	0.424459
812.000000	0.424498
813.000000	0.424507
814.000000	0.424498
815.000000	0.424551
816.000000	0.424510
817.000000	0.424427
818.000000	0.424287
819.000000	0.424207
820.000000	0.424158
821.000000	0.424083
822.000000	0.424102
823.000000	0.424179
824.000000	0.424208
825.000000	0.424233
826.000000	0.424212
827.000000	0.424148
828.000000	0.424097
829.000000	0.423997
830.000000	0.423916
831.000000	0.423908
832.000000	0.423798
833.000000	0.423780
834.000000	0.423804
835.000000	0.423834
836.000000	0.423799
837.000000	0.423705
838.000000	0.423603
839.000000	0.423524
840.000000	0.423524
841.000000	0.423512
842.000000	0.423350
843.000000	0.423161
844.000000	0.422982
845.000000	0.422836
846.000000	0.422838
847.000000	0.422863
848.000000	0.422846
849.000000	0.422796
850.000000	0.422681
851.000000	0.422592
852.000000	0.422624
853.000000	0.422722
854.000000	0.422694
855.000000	0.422656
856.000000	0.422558
857.000000	0.422411
858.000000	0.422332
859.000000	0.422256
860.000000	0.422150
861.000000	0.422044
862.000000	0.421969
863.000000	0.421849
864.000000	0.421710
865.000000	0.421545
866.000000	0.421384
867.000000	0.421210
868.000000	0.421046
869.000000	0.420849
870.000000	0.420717
871.000000	0.420638
872.000000	0.420666
873.000000	0.420702
874.000000	0.420637
875.000000	0.420487
876.000000	0.420299
877.000000	0.420054
878.000000	0.419817
879.000000	0.419657
880.000000	0.419407
881.000000	0.419132
882.000000	0.418903
883.000000	0.418763
884.000000	0.418647
885.000000	0.418585
886.000000	0.418508
887.000000	0.418408
888.000000	0.418296
889.000000	0.418109
890.000000	0.417764
891.000000	0.417508
892.000000	0.417423
893.000000	0.417348
894.000000	0.417294
895.000000	0.417041
896.000000	0.416793
897.000000	0.416604
898.000000	0.416460
899.000000	0.416284
900.000000	0.416098
901.000000	0.415904
902.000000	0.415850
903.000000	0.415784
904.000000	0.415666
905.000000	0.415385
906.000000	0.415220
907.000000	0.414979
908.000000	0.414680
909.000000	0.414342
910.000000	0.414077
911.000000	0.413938
912.000000	0.413904
913.000000	0.413687
914.000000	0.413358
915.000000	0.413106
916.000000	0.412968
917.000000	0.412812
918.000000	0.412665
919.000000	0.412507
920.000000	0.412258
921.000000	0.411864
922.000000	0.411451
923.000000	0.411183
924.000000	0.411003
925.000000	0.410788
926.000000	0.410534
927.000000	0.410287
928.000000	0.410013
929.000000	0.409715
930.000000	0.409432
931.000000	0.409287
932.000000	0.408974
933.000000	0.408535
934.000000	0.408264
935.000000	0.407996
936.000000	0.407881
937.000000	0.407865
938.000000	0.407690
939.000000	0.407479
940.000000	0.407142
941.000000	0.406703
942.000000	0.406265
943.000000	0.405970
944.000000	0.405672
945.000000	0.405298
946.000000	0.404840
947.000000	0.404502
948.000000	0.404362
949.000000	0.404061
950.000000	0.403887
951.000000	0.403804
952.000000	0.403621
953.000000	0.403480
954.000000	0.403290
955.000000	0.402914
956.000000	0.402556
957.000000	0.402371
958.000000	0.402263
959.000000	0.402177
960.000000	0.401878
961.000000	0.401618
962.000000	0.401475
963.000000	0.401353
964.000000	0.401194
965.000000	0.400970
966.000000	0.400580
967.000000	0.400381
968.000000	0.400160
969.000000	0.399816
970.000000	0.399502
971.000000	0.399321
972.000000	0.399291
973.000000	0.399201
974.000000	0.398850
975.000000	0.398377
976.000000	0.397985
977.000000	0.397778
978.000000	0.397584
979.000000	0.397587
980.000000	0.397382
981.000000	0.397059
982.000000	0.396994
983.000000	0.396871
984.000000	0.396690
985.000000	0.396603
986.000000	0.396289
987.000000	0.396114
988.000000	0.396074
989.000000	0.395608
990.000000	0.395256
991.000000	0.395068
992.000000	0.394956
993.000000	0.394749
994.000000	0.394471
995.000000	0.394354
996.000000	0.394248
997.000000	0.394354
998.000000	0.394346
999.000000	0.394260
1000.000000	0.394397
1001.000000	0.395045
1002.000000	0.394263
1003.000000	0.393696
1004.000000	0.393324
1005.000000	0.392935
1006.000000	0.392640
1007.000000	0.392503
1008.000000	0.392758
1009.000000	0.392876
1010.000000	0.392393
1011.000000	0.392330
1012.000000	0.392441
1013.000000	0.392137
1014.000000	0.392230
1015.000000	0.392381
1016.000000	0.392222
1017.000000	0.391745
1018.000000	0.391686
1019.000000	0.391759
1020.000000	0.392157
1021.000000	0.391759
1022.000000	0.391377
1023.000000	0.391476
1024.000000	0.391136
1025.000000	0.391280
1026.000000	0.391708
1027.000000	0.391819
1028.000000	0.391795
1029.000000	0.391538
1030.000000	0.391221
1031.000000	0.391272
1032.000000	0.391437
1033.000000	0.391404
1034.000000	0.391369
1035.000000	0.391428
1036.000000	0.391533
1037.000000	0.391576
1038.000000	0.391471
1039.000000	0.391548
1040.000000	0.391625
1041.000000	0.391576
1042.000000	0.391674
1043.000000	0.391918
1044.000000	0.392214
1045.000000	0.392102
1046.000000	0.391951
1047.000000	0.392144
1048.000000	0.392488
1049.000000	0.392500
1050.000000	0.392651
1051.000000	0.392674
1052.000000	0.392199
1053.000000	0.392084
1054.000000	0.392507
1055.000000	0.392742
1056.000000	0.392948
1057.000000	0.393327
1058.000000	0.393516
1059.000000	0.393155
1060.000000	0.393187
1061.000000	0.393400
1062.000000	0.393490
1063.000000	0.393940
1064.000000	0.394270
1065.000000	0.394497
1066.000000	0.394729
1067.000000	0.394995
1068.000000	0.395137
1069.000000	0.395065
1070.000000	0.395163
1071.000000	0.395374
1072.000000	0.395574
1073.000000	0.395892
1074.000000	0.396238
1075.000000	0.396441
1076.000000	0.396788
1077.000000	0.397004
1078.000000	0.397049
1079.000000	0.397107
1080.000000	0.397071
1081.000000	0.397115
1082.000000	0.397277
1083.000000	0.397413
1084.000000	0.397604
1085.000000	0.397842
1086.000000	0.398090
1087.000000	0.398324
1088.000000	0.398501
1089.000000	0.398635
1090.000000	0.398622
1091.000000	0.398657
1092.000000	0.398946
1093.000000	0.399504
1094.000000	0.399715
1095.000000	0.399862
1096.000000	0.400102
1097.000000	0.400111
1098.000000	0.400337
1099.000000	0.400877
1100.000000	0.401115
1101.000000	0.401060
1102.000000	0.401168
1103.000000	0.401063
1104.000000	0.401297
1105.000000	0.402023
1106.000000	0.402300
1107.000000	0.402403
1108.000000	0.402509
1109.000000	0.402441
1110.000000	0.402224
1111.000000	0.402399
1112.000000	0.402854
1113.000000	0.403197
1114.000000	0.403755
1115.000000	0.403993
1116.000000	0.404052
1117.000000	0.404221
1118.000000	0.404356
1119.000000	0.404324
1120.000000	0.404165
1121.000000	0.404197
1122.000000	0.404266
1123.000000	0.404574
1124.000000	0.404936
1125.000000	0.405221
1126.000000	0.405459
1127.000000	0.405495
1128.000000	0.405420
1129.000000	0.405233
1130.000000	0.405271
1131.000000	0.405255
1132.000000	0.405281
1133.000000	0.405610
1134.000000	0.405730
1135.000000	0.405645
1136.000000	0.405601
1137.000000	0.405579
1138.000000	0.405441
1139.000000	0.405125
1140.000000	0.405225
1141.000000	0.405575
1142.000000	0.405692
1143.000000	0.405763
1144.000000	0.406042
1145.000000	0.406076
1146.000000	0.405932
1147.000000	0.405989
1148.000000	0.406164
1149.000000	0.406192
1150.000000	0.406119
1151.000000	0.406203
1152.000000	0.406263
1153.000000	0.406356
1154.000000	0.406479
1155.000000	0.406571
1156.000000	0.406665
1157.000000	0.406756
1158.000000	0.406780
1159.000000	0.406825
1160.000000	0.406823
1161.000000	0.406866
1162.000000	0.406990
1163.000000	0.407328
1164.000000	0.407467
1165.000000	0.407457
1166.000000	0.407520
1167.000000	0.407441
1168.000000	0.407402
1169.000000	0.407472
1170.000000	0.407459
1171.000000	0.407414
1172.000000	0.407435
1173.000000	0.407363
1174.000000	0.407403
1175.000000	0.407538
1176.000000	0.407553
1177.000000	0.407716
1178.000000	0.407751
1179.000000	0.407622
1180.000000	0.407481
1181.000000	0.407349
1182.000000	0.407318
1183.000000	0.407306
1184.000000	0.407331
1185.000000	0.407370
1186.000000	0.407453
1187.000000	0.407437
1188.000000	0.407404
1189.000000	0.407379
1190.000000	0.407370
1191.000000	0.407362
1192.000000	0.407497
1193.000000	0.407666
1194.000000	0.407646
1195.000000	0.407733
1196.000000	0.407894
1197.000000	0.407940
1198.000000	0.407958
1199.000000	0.407999
1200.000000	0.407993
1201.000000	0.407944
1202.000000	0.407953
1203.000000	0.407949
1204.000000	0.407848
1205.000000	0.407829
1206.000000	0.407796
1207.000000	0.407921
1208.000000	0.407891
1209.000000	0.407876
1210.000000	0.407900
1211.000000	0.407893
1212.000000	0.407879
1213.000000	0.407998
1214.000000	0.408042
1215.000000	0.407960
1216.000000	0.407938
1217.000000	0.407889
1218.000000	0.407848
1219.000000	0.407864
1220.000000	0.407886
1221.000000	0.407886
1222.000000	0.407889
1223.000000	0.407898
1224.000000	0.407890
1225.000000	0.407875
1226.000000	0.407908
1227.000000	0.407827
1228.000000	0.407840
1229.000000	0.407828
1230.000000	0.407821
1231.000000	0.407708
1232.000000	0.407682
1233.000000	0.407783
1234.000000	0.407876
1235.000000	0.407905
1236.000000	0.407933
1237.000000	0.407946
1238.000000	0.407747
1239.000000	0.407677
1240.000000	0.407683
1241.000000	0.407660
1242.000000	0.407688
1243.000000	0.407701
1244.000000	0.407631
1245.000000	0.407651
1246.000000	0.407605
1247.000000	0.407561
1248.000000	0.407624
1249.000000	0.407709
1250.000000	0.407726
1251.000000	0.407814
1252.000000	0.407857
1253.000000	0.407905
1254.000000	0.407905
1255.000000	0.407889
1256.000000	0.407872
1257.000000	0.407865
1258.000000	0.407872
1259.000000	0.407778
1260.000000	0.407783
1261.000000	0.407717
1262.000000	0.407698
1263.000000	0.407803
1264.000000	0.407822
1265.000000	0.407782
1266.000000	0.407660
1267.000000	0.407528
1268.000000	0.407482
1269.000000	0.407381
1270.000000	0.407361
1271.000000	0.407263
1272.000000	0.407125
1273.000000	0.407090
1274.000000	0.407015
1275.000000	0.406912
1276.000000	0.406815
1277.000000	0.406828
1278.000000	0.406754
1279.000000	0.406696
1280.000000	0.406638
1281.000000	0.406508
1282.000000	0.406306
1283.000000	0.406331
1284.000000	0.406412
1285.000000	0.406483
1286.000000	0.406614
1287.000000	0.406719
1288.000000	0.406844
1289.000000	0.406725
1290.000000	0.406544
1291.000000	0.406493
1292.000000	0.406364
1293.000000	0.406272
1294.000000	0.406268
1295.000000	0.406232
1296.000000	0.406122
1297.000000	0.406034
1298.000000	0.406079
1299.000000	0.406098
1300.000000	0.406171
1301.000000	0.406244
1302.000000	0.406188
1303.000000	0.406148
1304.000000	0.406096
1305.000000	0.406104
1306.000000	0.406068
1307.000000	0.406120
1308.000000	0.406118
1309.000000	0.406025
1310.000000	0.406009
1311.000000	0.406076
1312.000000	0.405992
1313.000000	0.405920
1314.000000	0.405879
1315.000000	0.405813
1316.000000	0.405740
1317.000000	0.405657
1318.000000	0.405695
1319.000000	0.405654
1320.000000	0.405545
1321.000000	0.405430
1322.000000	0.405240
1323.000000	0.405070
1324.000000	0.404995
1325.000000	0.404818
1326.000000	0.404556
1327.000000	0.404328
1328.000000	0.404175
1329.000000	0.403982
1330.000000	0.403907
1331.000000	0.403822
1332.000000	0.403738
1333.000000	0.403658
1334.000000	0.403718
1335.000000	0.403745
1336.000000	0.403764
1337.000000	0.403735
1338.000000	0.403627
1339.000000	0.403504
1340.000000	0.403346
1341.000000	0.403258
1342.000000	0.403314
1343.000000	0.403329
1344.000000	0.403280
1345.000000	0.403176
1346.000000	0.403092
1347.000000	0.402838
1348.000000	0.402680
1349.000000	0.402608
1350.000000	0.402531
1351.000000	0.402454
1352.000000	0.402319
1353.000000	0.402088
1354.000000	0.401905
1355.000000	0.401686
1356.000000	0.401635
1357.000000	0.401591
1358.000000	0.401420
1359.000000	0.401322
1360.000000	0.401186
1361.000000	0.401055
1362.000000	0.400840
1363.000000	0.400566
1364.000000	0.400327
1365.000000	0.400016
1366.000000	0.399725
1367.000000	0.399466
1368.000000	0.399138
1369.000000	0.398916
1370.000000	0.398522
1371.000000	0.398024
1372.000000	0.397505
1373.000000	0.396862
1374.000000	0.396186
1375.000000	0.395444
1376.000000	0.394646
1377.000000	0.393655
1378.000000	0.392333
1379.000000	0.390698
1380.000000	0.388833
1381.000000	0.386627
1382.000000	0.384159
1383.000000	0.381580
1384.000000	0.378795
1385.000000	0.375997
1386.000000	0.373419
1387.000000	0.371168
1388.000000	0.369295
1389.000000	0.367827
1390.000000	0.366798
1391.000000	0.366148
1392.000000	0.365901
1393.000000	0.365995
1394.000000	0.366704
1395.000000	0.367359
1396.000000	0.368452
1397.000000	0.369093
1398.000000	0.369611
1399.000000	0.369976
1400.000000	0.370134
1401.000000	0.370151
1402.000000	0.370127
1403.000000	0.369923
1404.000000	0.369575
1405.000000	0.369111
1406.000000	0.368624
1407.000000	0.368196
1408.000000	0.367681
1409.000000	0.367313
1410.000000	0.367096
1411.000000	0.366857
1412.000000	0.366723
1413.000000	0.366688
1414.000000	0.366642
1415.000000	0.366617
1416.000000	0.366684
1417.000000	0.366842
1418.000000	0.366959
1419.000000	0.367252
1420.000000	0.367592
1421.000000	0.368008
1422.000000	0.368493
1423.000000	0.369003
1424.000000	0.369419
1425.000000	0.369858
1426.000000	0.370191
1427.000000	0.370580
1428.000000	0.370975
1429.000000	0.371270
1430.000000	0.371694
1431.000000	0.372173
1432.000000	0.372557
1433.000000	0.372958
1434.000000	0.373336
1435.000000	0.373753
1436.000000	0.374140
1437.000000	0.374561
1438.000000	0.374899
1439.000000	0.375210
1440.000000	0.375486
1441.000000	0.375746
1442.000000	0.375997
1443.000000	0.376128
1444.000000	0.376327
1445.000000	0.376507
1446.000000	0.376639
1447.000000	0.376766
1448.000000	0.376879
1449.000000	0.377001
1450.000000	0.377144
1451.000000	0.377342
1452.000000	0.377452
1453.000000	0.377493
1454.000000	0.377487
1455.000000	0.377445
1456.000000	0.377537
1457.000000	0.377691
1458.000000	0.377800
1459.000000	0.377897
1460.000000	0.377980
1461.000000	0.378033
1462.000000	0.378121
1463.000000	0.378230
1464.000000	0.378370
1465.000000	0.378639
1466.000000	0.378954
1467.000000	0.379253
1468.000000	0.379567
1469.000000	0.379879
1470.000000	0.380103
1471.000000	0.380447
1472.000000	0.380791
1473.000000	0.381252
1474.000000	0.381675
1475.000000	0.381984
1476.000000	0.382342
1477.000000	0.382651
1478.000000	0.382883
1479.000000	0.383138
1480.000000	0.383389
1481.000000	0.383623
1482.000000	0.383894
1483.000000	0.384192
1484.000000	0.384548
1485.000000	0.384791
1486.000000	0.384933
1487.000000	0.385140
1488.000000	0.385322
1489.000000	0.385574
1490.000000	0.385793
1491.000000	0.386005
1492.000000	0.386142
1493.000000	0.386315
1494.000000	0.386435
1495.000000	0.386583
1496.000000	0.386761
1497.000000	0.386926
1498.000000	0.387127
1499.000000	0.387257
1500.000000	0.387401
1501.000000	0.387517
1502.000000	0.387644
1503.000000	0.387811
1504.000000	0.388008
1505.000000	0.388222
1506.000000	0.388391
1507.000000	0.388548
1508.000000	0.388771
1509.000000	0.388963
1510.000000	0.389104
1511.000000	0.389313
1512.000000	0.389462
1513.000000	0.389580
1514.000000	0.389844
1515.000000	0.390009
1516.000000	0.390167
1517.000000	0.390378
1518.000000	0.390522
1519.000000	0.390601
1520.000000	0.390672
1521.000000	0.390593
1522.000000	0.390598
1523.000000	0.390735
1524.000000	0.390791
1525.000000	0.390912
1526.000000	0.390940
1527.000000	0.390916
1528.000000	0.391034
1529.000000	0.391149
1530.000000	0.391186
1531.000000	0.391323
1532.000000	0.391461
1533.000000	0.391536
1534.000000	0.391678
1535.000000	0.391808
1536.000000	0.391876
1537.000000	0.392092
1538.000000	0.392320
1539.000000	0.392509
1540.000000	0.392731
1541.000000	0.392873
1542.000000	0.392993
1543.000000	0.393136
1544.000000	0.393215
1545.000000	0.393369
1546.000000	0.393540
1547.000000	0.393637
1548.000000	0.393728
1549.000000	0.393740
1550.000000	0.393692
1551.000000	0.393705
1552.000000	0.393740
1553.000000	0.393758
1554.000000	0.393814
1555.000000	0.393901
1556.000000	0.394021
1557.000000	0.394150
1558.000000	0.394300
1559.000000	0.394428
1560.000000	0.394487
1561.000000	0.394573
1562.000000	0.394610
1563.000000	0.394616
1564.000000	0.394665
1565.000000	0.394715
1566.000000	0.394700
1567.000000	0.394804
1568.000000	0.394851
1569.000000	0.394944
1570.000000	0.394991
1571.000000	0.394980
1572.000000	0.394977
1573.000000	0.394987
1574.000000	0.394966
1575.000000	0.394975
1576.000000	0.394960
1577.000000	0.394850
1578.000000	0.394815
1579.000000	0.394895
1580.000000	0.394882
1581.000000	0.394939
1582.000000	0.394974
1583.000000	0.394929
1584.000000	0.394894
1585.000000	0.395016
1586.000000	0.395090
1587.000000	0.395125
1588.000000	0.395152
1589.000000	0.395186
1590.000000	0.395198
1591.000000	0.395206
1592.000000	0.395248
1593.000000	0.395362
1594.000000	0.395390
1595.000000	0.395434
1596.000000	0.395494
1597.000000	0.395548
1598.000000	0.395604
1599.000000	0.395765
1600.000000	0.395771
1601.000000	0.395779
1602.000000	0.395807
1603.000000	0.395810
1604.000000	0.395828
1605.000000	0.395910
1606.000000	0.395929
1607.000000	0.395998
1608.000000	0.396003
1609.000000	0.396066
1610.000000	0.396009
1611.000000	0.395851
1612.000000	0.395744
1613.000000	0.395720
1614.000000	0.395644
1615.000000	0.395674
1616.000000	0.395682
1617.000000	0.395595
1618.000000	0.395482
1619.000000	0.395325
1620.000000	0.395197
1621.000000	0.395052
1622.000000	0.395034
1623.000000	0.395020
1624.000000	0.395078
1625.000000	0.395072
1626.000000	0.395041
1627.000000	0.395091
1628.000000	0.395132
1629.000000	0.395118
1630.000000	0.395175
1631.000000	0.395223
1632.000000	0.395184
1633.000000	0.395119
1634.000000	0.395080
1635.000000	0.395034
1636.000000	0.395038
1637.000000	0.395158
1638.000000	0.395124
1639.000000	0.395104
1640.000000	0.395043
1641.000000	0.394968
1642.000000	0.394931
1643.000000	0.394939
1644.000000	0.394926
1645.000000	0.394903
1646.000000	0.394849
1647.000000	0.394847
1648.000000	0.394793
1649.000000	0.394815
1650.000000	0.394818
1651.000000	0.394839
1652.000000	0.394914
1653.000000	0.394940
1654.000000	0.395011
1655.000000	0.395063
1656.000000	0.395004
1657.000000	0.395005
1658.000000	0.394948
1659.000000	0.394959
1660.000000	0.394971
1661.000000	0.394867
1662.000000	0.394797
1663.000000	0.394676
1664.000000	0.394599
1665.000000	0.394513
1666.000000	0.394570
1667.000000	0.394615
1668.000000	0.394656
1669.000000	0.394744
1670.000000	0.394699
1671.000000	0.394715
1672.000000	0.394764
1673.000000	0.394736
1674.000000	0.394740
1675.000000	0.394834
1676.000000	0.394907
1677.000000	0.394896
1678.000000	0.394862
1679.000000	0.394813
1680.000000	0.394715
1681.000000	0.394659
1682.000000	0.394590
1683.000000	0.394551
1684.000000	0.394471
1685.000000	0.394397
1686.000000	0.394340
1687.000000	0.394281
1688.000000	0.394199
1689.000000	0.394122
1690.000000	0.394016
1691.000000	0.394009
1692.000000	0.393939
1693.000000	0.393885
1694.000000	0.393901
1695.000000	0.393954
1696.000000	0.393934
1697.000000	0.393892
1698.000000	0.393869
1699.000000	0.393879
1700.000000	0.393925
1701.000000	0.394063
1702.000000	0.394062
1703.000000	0.393984
1704.000000	0.393985
1705.000000	0.393973
1706.000000	0.393936
1707.000000	0.393925
1708.000000	0.393940
1709.000000	0.393843
1710.000000	0.393790
1711.000000	0.393759
1712.000000	0.393765
1713.000000	0.393686
1714.000000	0.393610
1715.000000	0.393557
1716.000000	0.393461
1717.000000	0.393385
1718.000000	0.393347
1719.000000	0.393234
1720.000000	0.393103
1721.000000	0.393022
1722.000000	0.392924
1723.000000	0.392893
1724.000000	0.393002
1725.000000	0.393019
1726.000000	0.392925
1727.000000	0.392853
1728.000000	0.392663
1729.000000	0.392442
1730.000000	0.392346
1731.000000	0.392276
1732.000000	0.392224
1733.000000	0.392219
1734.000000	0.392102
1735.000000	0.392086
1736.000000	0.392063
1737.000000	0.392024
1738.000000	0.392065
1739.000000	0.392095
1740.000000	0.392058
1741.000000	0.392043
1742.000000	0.392111
1743.000000	0.392162
1744.000000	0.392163
1745.000000	0.392102
1746.000000	0.392041
1747.000000	0.391778
1748.000000	0.391627
1749.000000	0.391613
1750.000000	0.391524
1751.000000	0.391685
1752.000000	0.391840
1753.000000	0.391760
1754.000000	0.391706
1755.000000	0.391564
1756.000000	0.391456
1757.000000	0.391317
1758.000000	0.391265
1759.000000	0.391266
1760.000000	0.391269
1761.000000	0.391346
1762.000000	0.391274
1763.000000	0.391097
1764.000000	0.391013
1765.000000	0.390806
1766.000000	0.390738
1767.000000	0.390796
1768.000000	0.390652
1769.000000	0.390519
1770.000000	0.390465
1771.000000	0.390293
1772.000000	0.390194
1773.000000	0.390109
1774.000000	0.390082
1775.000000	0.390143
1776.000000	0.390183
1777.000000	0.390315
1778.000000	0.390227
1779.000000	0.389970
1780.000000	0.389834
1781.000000	0.389577
1782.000000	0.389431
1783.000000	0.389465
1784.000000	0.389403
1785.000000	0.389209
1786.000000	0.389064
1787.000000	0.389101
1788.000000	0.389173
1789.000000	0.389224
1790.000000	0.389355
1791.000000	0.389293
1792.000000	0.389162
1793.000000	0.389069
1794.000000	0.388904
1795.000000	0.388821
1796.000000	0.388805
1797.000000	0.388769
1798.000000	0.388744
1799.000000	0.388670
1800.000000	0.388565
1801.000000	0.388958
1802.000000	0.388873
1803.000000	0.388148
1804.000000	0.388019
1805.000000	0.387569
1806.000000	0.387661
1807.000000	0.388766
1808.000000	0.389040
1809.000000	0.388930
1810.000000	0.389091
1811.000000	0.388935
1812.000000	0.388213
1813.000000	0.388069
1814.000000	0.388075
1815.000000	0.388175
1816.000000	0.388616
1817.000000	0.388578
1818.000000	0.388334
1819.000000	0.388715
1820.000000	0.388135
1821.000000	0.388024
1822.000000	0.387959
1823.000000	0.387793
1824.000000	0.387710
1825.000000	0.387890
1826.000000	0.387887
1827.000000	0.387666
1828.000000	0.387556
1829.000000	0.387178
1830.000000	0.386598
1831.000000	0.386209
1832.000000	0.385600
1833.000000	0.385311
1834.000000	0.385343
1835.000000	0.385322
1836.000000	0.385169
1837.000000	0.385187
1838.000000	0.385416
1839.000000	0.385183
1840.000000	0.385135
1841.000000	0.385203
1842.000000	0.385029
1843.000000	0.384644
1844.000000	0.384492
1845.000000	0.384073
1846.000000	0.383989
1847.000000	0.384213
1848.000000	0.383878
1849.000000	0.383527
1850.000000	0.383292
1851.000000	0.383038
1852.000000	0.382423
1853.000000	0.382232
1854.000000	0.382254
1855.000000	0.381945
1856.000000	0.381395
1857.000000	0.381117
1858.000000	0.380639
1859.000000	0.379870
1860.000000	0.379270
1861.000000	0.378860
1862.000000	0.378319
1863.000000	0.377873
1864.000000	0.377276
1865.000000	0.376702
1866.000000	0.376090
1867.000000	0.375512
1868.000000	0.374490
1869.000000	0.373371
1870.000000	0.371839
1871.000000	0.370071
1872.000000	0.368573
1873.000000	0.367057
1874.000000	0.365800
1875.000000	0.364120
1876.000000	0.362028
1877.000000	0.359563
1878.000000	0.356966
1879.000000	0.354373
1880.000000	0.351944
1881.000000	0.349213
1882.000000	0.346343
1883.000000	0.343060
1884.000000	0.339736
1885.000000	0.335817
1886.000000	0.332064
1887.000000	0.328343
1888.000000	0.324319
1889.000000	0.319884
1890.000000	0.315742
1891.000000	0.311350
1892.000000	0.306735
1893.000000	0.302635
1894.000000	0.298543
1895.000000	0.294472
1896.000000	0.290565
1897.000000	0.287068
1898.000000	0.283545
1899.000000	0.280846
1900.000000	0.278643
1901.000000	0.276269
1902.000000	0.274422
1903.000000	0.272825
1904.000000	0.271802
1905.000000	0.271460
1906.000000	0.271112
1907.000000	0.271248
1908.000000	0.271352
1909.000000	0.271411
1910.000000	0.272076
1911.000000	0.272926
1912.000000	0.273988
1913.000000	0.275373
1914.000000	0.276371
1915.000000	0.277438
1916.000000	0.278741
1917.000000	0.280165
1918.000000	0.281853
1919.000000	0.283788
1920.000000	0.285450
1921.000000	0.286946
1922.000000	0.287909
1923.000000	0.288898
1924.000000	0.289712
1925.000000	0.290230
1926.000000	0.291179
1927.000000	0.291767
1928.000000	0.292583
1929.000000	0.293507
1930.000000	0.295184
1931.000000	0.296392
1932.000000	0.297639
1933.000000	0.299187
1934.000000	0.300134
1935.000000	0.301118
1936.000000	0.302376
1937.000000	0.303187
1938.000000	0.303626
1939.000000	0.304244
1940.000000	0.304805
1941.000000	0.305490
1942.000000	0.306013
1943.000000	0.306496
1944.000000	0.306852
1945.000000	0.307041
1946.000000	0.307189
1947.000000	0.307519
1948.000000	0.308075
1949.000000	0.308132
1950.000000	0.308616
1951.000000	0.309024
1952.000000	0.309682
1953.000000	0.309742
1954.000000	0.310240
1955.000000	0.310659
1956.000000	0.310783
1957.000000	0.311186
1958.000000	0.311513
1959.000000	0.311654
1960.000000	0.311994
1961.000000	0.312512
1962.000000	0.313038
1963.000000	0.313713
1964.000000	0.314664
1965.000000	0.315479
1966.000000	0.315863
1967.000000	0.316681
1968.000000	0.317416
1969.000000	0.317765
1970.000000	0.318732
1971.000000	0.319341
1972.000000	0.319514
1973.000000	0.319913
1974.000000	0.320617
1975.000000	0.321159
1976.000000	0.321696
1977.000000	0.322431
1978.000000	0.322931
1979.000000	0.323099
1980.000000	0.323541
1981.000000	0.324021
1982.000000	0.324401
1983.000000	0.325000
1984.000000	0.325281
1985.000000	0.325171
1986.000000	0.325509
1987.000000	0.326041
1988.000000	0.326540
1989.000000	0.327251
1990.000000	0.327916
1991.000000	0.328357
1992.000000	0.328750
1993.000000	0.329420
1994.000000	0.330402
1995.000000	0.331276
1996.000000	0.332132
1997.000000	0.332830
1998.000000	0.333469
1999.000000	0.334067
2000.000000	0.334470
2001.000000	0.334998
2002.000000	0.335818
2003.000000	0.336409
2004.000000	0.337248
2005.000000	0.337743
2006.000000	0.337885
2007.000000	0.338104
2008.000000	0.338300
2009.000000	0.338081
2010.000000	0.338563
2011.000000	0.339211
2012.000000	0.339817
2013.000000	0.340762
2014.000000	0.341499
2015.000000	0.341708
2016.000000	0.342185
2017.000000	0.342360
2018.000000	0.342704
2019.000000	0.343415
2020.000000	0.343876
2021.000000	0.344371
2022.000000	0.344876
2023.000000	0.345273
2024.000000	0.345642
2025.000000	0.346042
2026.000000	0.346247
2027.000000	0.346391
2028.000000	0.346696
2029.000000	0.347372
2030.000000	0.348263
2031.000000	0.348994
2032.000000	0.349604
2033.000000	0.350081
2034.000000	0.350333
2035.000000	0.350350
2036.000000	0.350420
2037.000000	0.350425
2038.000000	0.350690
2039.000000	0.351121
2040.000000	0.351669
2041.000000	0.352338
2042.000000	0.352849
2043.000000	0.353062
2044.000000	0.353121
2045.000000	0.353046
2046.000000	0.352727
2047.000000	0.352635
2048.000000	0.352435
2049.000000	0.352598
2050.000000	0.352530
2051.000000	0.352690
2052.000000	0.353116
2053.000000	0.353206
2054.000000	0.353529
2055.000000	0.353846
2056.000000	0.353984
2057.000000	0.354115
2058.000000	0.354484
2059.000000	0.354771
2060.000000	0.354851
2061.000000	0.354850
2062.000000	0.354873
2063.000000	0.354789
2064.000000	0.354570
2065.000000	0.354608
2066.000000	0.354400
2067.000000	0.354165
2068.000000	0.354263
2069.000000	0.354160
2070.000000	0.354460
2071.000000	0.354872
2072.000000	0.355132
2073.000000	0.355908
2074.000000	0.356292
2075.000000	0.356544
2076.000000	0.356692
2077.000000	0.356752
2078.000000	0.356560
2079.000000	0.356369
2080.000000	0.356194
2081.000000	0.355977
2082.000000	0.355490
2083.000000	0.355334
2084.000000	0.355489
2085.000000	0.355247
2086.000000	0.355565
2087.000000	0.356030
2088.000000	0.356301
2089.000000	0.356667
2090.000000	0.356713
2091.000000	0.356269
2092.000000	0.356507
2093.000000	0.357008
2094.000000	0.357368
2095.000000	0.358389
2096.000000	0.358804
2097.000000	0.358653
2098.000000	0.358354
2099.000000	0.358483
2100.000000	0.358454
2101.000000	0.358536
2102.000000	0.358816
2103.000000	0.359046
2104.000000	0.359125
2105.000000	0.359207
2106.000000	0.359301
2107.000000	0.359471
2108.000000	0.359473
2109.000000	0.359778
2110.000000	0.360223
2111.000000	0.360507
2112.000000	0.360974
2113.000000	0.360631
2114.000000	0.360319
2115.000000	0.359938
2116.000000	0.359293
2117.000000	0.359196
2118.000000	0.359350
2119.000000	0.359431
2120.000000	0.359664
2121.000000	0.360281
2122.000000	0.360382
2123.000000	0.360272
2124.000000	0.360246
2125.000000	0.359830
2126.000000	0.359666
2127.000000	0.359662
2128.000000	0.359876
2129.000000	0.359886
2130.000000	0.360743
2131.000000	0.361077
2132.000000	0.361472
2133.000000	0.362319
2134.000000	0.362595
2135.000000	0.362850
2136.000000	0.363276
2137.000000	0.363402
2138.000000	0.363059
2139.000000	0.363091
2140.000000	0.363351
2141.000000	0.363178
2142.000000	0.362714
2143.000000	0.362248
2144.000000	0.361642
2145.000000	0.361511
2146.000000	0.361667
2147.000000	0.362549
2148.000000	0.362852
2149.000000	0.362959
2150.000000	0.363423
2151.000000	0.362846
2152.000000	0.362628
2153.000000	0.362753
2154.000000	0.362796
2155.000000	0.362981
2156.000000	0.363146
2157.000000	0.363319
2158.000000	0.363604
2159.000000	0.364038
2160.000000	0.364367
2161.000000	0.364837
2162.000000	0.365249
2163.000000	0.365259
2164.000000	0.365260
2165.000000	0.365288
2166.000000	0.365504
2167.000000	0.364977
2168.000000	0.364508
2169.000000	0.364219
2170.000000	0.363822
2171.000000	0.363683
2172.000000	0.364250
2173.000000	0.364127
2174.000000	0.363528
2175.000000	0.363234
2176.000000	0.362776
2177.000000	0.362595
2178.000000	0.362786
2179.000000	0.362942
2180.000000	0.363112
2181.000000	0.363469
2182.000000	0.363246
2183.000000	0.363239
2184.000000	0.363490
2185.000000	0.363256
2186.000000	0.362742
2187.000000	0.362013
2188.000000	0.360626
2189.000000	0.358931
2190.000000	0.357741
2191.000000	0.358198
2192.000000	0.358377
2193.000000	0.359731
2194.000000	0.360081
2195.000000	0.359869
2196.000000	0.360052
2197.000000	0.360127
2198.000000	0.360114
2199.000000	0.360931
2200.000000	0.361198
2201.000000	0.360598
2202.000000	0.360417
2203.000000	0.360137
2204.000000	0.359246
2205.000000	0.358948
2206.000000	0.358533
2207.000000	0.358863
2208.000000	0.359343
2209.000000	0.359439
2210.000000	0.361488
2211.000000	0.361555
2212.000000	0.360849
2213.000000	0.360039
2214.000000	0.357439
2215.000000	0.356891
2216.000000	0.357380
2217.000000	0.357576
2218.000000	0.358872
2219.000000	0.359176
2220.000000	0.359083
2221.000000	0.358858
2222.000000	0.357955
2223.000000	0.357615
2224.000000	0.357135
2225.000000	0.357050
2226.000000	0.357168
2227.000000	0.357873
2228.000000	0.358355
2229.000000	0.358328
2230.000000	0.358397
2231.000000	0.357283
2232.000000	0.356008
2233.000000	0.354678
2234.000000	0.353526
2235.000000	0.353979
2236.000000	0.353982
2237.000000	0.354435
2238.000000	0.354915
2239.000000	0.355499
2240.000000	0.355855
2241.000000	0.357209
2242.000000	0.356803
2243.000000	0.354480
2244.000000	0.353640
2245.000000	0.351856
2246.000000	0.351787
2247.000000	0.353897
2248.000000	0.355014
2249.000000	0.356713
2250.000000	0.357721
2251.000000	0.357905
2252.000000	0.357571
2253.000000	0.357097
2254.000000	0.355999
2255.000000	0.354460
2256.000000	0.354151
2257.000000	0.353518
2258.000000	0.353087
2259.000000	0.354356
2260.000000	0.354763
2261.000000	0.354205
2262.000000	0.353266
2263.000000	0.352221
2264.000000	0.349722
2265.000000	0.348624
2266.000000	0.348568
2267.000000	0.347876
2268.000000	0.347245
2269.000000	0.346439
2270.000000	0.345024
2271.000000	0.344185
2272.000000	0.344255
2273.000000	0.343521
2274.000000	0.342052
2275.000000	0.341000
2276.000000	0.339585
2277.000000	0.338428
2278.000000	0.338094
2279.000000	0.338332
2280.000000	0.337460
2281.000000	0.334814
2282.000000	0.331834
2283.000000	0.329170
2284.000000	0.326786
2285.000000	0.324492
2286.000000	0.323079
2287.000000	0.321661
2288.000000	0.320549
2289.000000	0.320778
2290.000000	0.319837
2291.000000	0.319165
2292.000000	0.318106
2293.000000	0.316176
2294.000000	0.315367
2295.000000	0.314811
2296.000000	0.313779
2297.000000	0.313454
2298.000000	0.312902
2299.000000	0.311985
2300.000000	0.311140
2301.000000	0.310961
2302.000000	0.309570
2303.000000	0.306681
2304.000000	0.304751
2305.000000	0.302738
2306.000000	0.300703
2307.000000	0.299316
2308.000000	0.297429
2309.000000	0.293740
2310.000000	0.290016
2311.000000	0.287303
2312.000000	0.284866
2313.000000	0.284011
2314.000000	0.285432
2315.000000	0.285871
2316.000000	0.287532
2317.000000	0.289711
2318.000000	0.291949
2319.000000	0.295803
2320.000000	0.298597
2321.000000	0.302655
2322.000000	0.305704
2323.000000	0.306512
2324.000000	0.308688
2325.000000	0.309941
2326.000000	0.310537
2327.000000	0.313250
2328.000000	0.315567
2329.000000	0.316835
2330.000000	0.318381
2331.000000	0.318166
2332.000000	0.318718
2333.000000	0.319921
2334.000000	0.320354
2335.000000	0.321496
2336.000000	0.322049
2337.000000	0.323261
2338.000000	0.325985
2339.000000	0.326565
2340.000000	0.326608
2341.000000	0.326970
2342.000000	0.325133
2343.000000	0.325123
2344.000000	0.327291
2345.000000	0.327130
2346.000000	0.326262
2347.000000	0.325484
2348.000000	0.323880
2349.000000	0.322221
2350.000000	0.320813
2351.000000	0.321031
2352.000000	0.321416
2353.000000	0.323362
2354.000000	0.325407
2355.000000	0.326342
2356.000000	0.326512
2357.000000	0.324442
2358.000000	0.322817
2359.000000	0.322580
2360.000000	0.323560
2361.000000	0.327630
2362.000000	0.329680
2363.000000	0.328650
2364.000000	0.325399
2365.000000	0.320831
2366.000000	0.318232
2367.000000	0.316908
2368.000000	0.315846
2369.000000	0.314120
2370.000000	0.312644
2371.000000	0.311339
2372.000000	0.309941
2373.000000	0.308761
2374.000000	0.306304
2375.000000	0.304625
2376.000000	0.305235
2377.000000	0.305002
2378.000000	0.305741
2379.000000	0.306915
2380.000000	0.304866
2381.000000	0.305580
2382.000000	0.303998
2383.000000	0.298174
2384.000000	0.299544
2385.000000	0.300104
2386.000000	0.296301
2387.000000	0.297935
2388.000000	0.297603
2389.000000	0.294213
2390.000000	0.293548
2391.000000	0.293180
2392.000000	0.293927
2393.000000	0.292110
2394.000000	0.293574
2395.000000	0.296863
2396.000000	0.296797
2397.000000	0.303391
2398.000000	0.309125
2399.000000	0.310676
2400.000000	0.309359
2401.000000	0.306779
2402.000000	0.304732
2403.000000	0.303489
2404.000000	0.306123
2405.000000	0.303193
2406.000000	0.302895
2407.000000	0.305639
2408.000000	0.307757
2409.000000	0.315715
2410.000000	0.316916
2411.000000	0.311874
2412.000000	0.310189
2413.000000	0.306187
2414.000000	0.302249
2415.000000	0.305475
2416.000000	0.306217
2417.000000	0.308371
2418.000000	0.309594
2419.000000	0.305139
2420.000000	0.300902
2421.000000	0.291004
2422.000000	0.284206
2423.000000	0.285029
2424.000000	0.286854
2425.000000	0.289815
2426.000000	0.293482
2427.000000	0.293051
2428.000000	0.290671
2429.000000	0.285496
2430.000000	0.279812
2431.000000	0.280680
2432.000000	0.281062
2433.000000	0.280889
2434.000000	0.284517
2435.000000	0.283039
2436.000000	0.275695
2437.000000	0.281911
2438.000000	0.294076
2439.000000	0.303409
2440.000000	0.317387
2441.000000	0.315389
2442.000000	0.306099
2443.000000	0.303402
2444.000000	0.295691
2445.000000	0.294579
2446.000000	0.301135
2447.000000	0.299416
2448.000000	0.299256
2449.000000	0.298295
2450.000000	0.291523
2451.000000	0.295715
2452.000000	0.296067
2453.000000	0.292044
2454.000000	0.289482
2455.000000	0.280792
2456.000000	0.274839
2457.000000	0.276235
2458.000000	0.280764
2459.000000	0.280476
2460.000000	0.290094
2461.000000	0.299099
2462.000000	0.302442
2463.000000	0.306193
2464.000000	0.289618
2465.000000	0.285075
2466.000000	0.284989
2467.000000	0.279334
2468.000000	0.287187
2469.000000	0.270041
2470.000000	0.256249
2471.000000	0.254865
2472.000000	0.251945
2473.000000	0.269683
2474.000000	0.280510
2475.000000	0.284609
2476.000000	0.267582
2477.000000	0.252450
2478.000000	0.250950
2479.000000	0.247998
2480.000000	0.282487
2481.000000	0.294665
2482.000000	0.297772
2483.000000	0.327983
2484.000000	0.318973
2485.000000	0.308259
2486.000000	0.307231
2487.000000	0.266915
2488.000000	0.251904
2489.000000	0.276931
2490.000000	0.281875
2491.000000	0.295936
2492.000000	0.295441
2493.000000	0.282416
2494.000000	0.271362
2495.000000	0.243701
2496.000000	0.234839
2497.000000	0.227782
2498.000000	0.239620
2499.000000	0.301342
2500.000000	0.320715
