# Wavelength	SM1200H-10_FV7-90_00000.asd.rts.txt
350.000000	0.216575
351.000000	0.217018
352.000000	0.217965
353.000000	0.213808
354.000000	0.207239
355.000000	0.209540
356.000000	0.210977
357.000000	0.212124
358.000000	0.217178
359.000000	0.216062
360.000000	0.212114
361.000000	0.211018
362.000000	0.213580
363.000000	0.216664
364.000000	0.217473
365.000000	0.216314
366.000000	0.213812
367.000000	0.211555
368.000000	0.212678
369.000000	0.215608
370.000000	0.217645
371.000000	0.216784
372.000000	0.220775
373.000000	0.221555
374.000000	0.216324
375.000000	0.218418
376.000000	0.219701
377.000000	0.219008
378.000000	0.222228
379.000000	0.222556
380.000000	0.221348
381.000000	0.222808
382.000000	0.223474
383.000000	0.223257
384.000000	0.222698
385.000000	0.221612
386.000000	0.222183
387.000000	0.224237
388.000000	0.224762
389.000000	0.224490
390.000000	0.224847
391.000000	0.226914
392.000000	0.226770
393.000000	0.226001
394.000000	0.226383
395.000000	0.227943
396.000000	0.229036
397.000000	0.228983
398.000000	0.228117
399.000000	0.228753
400.000000	0.229989
401.000000	0.229493
402.000000	0.229767
403.000000	0.230246
404.000000	0.230319
405.000000	0.230684
406.000000	0.231465
407.000000	0.232435
408.000000	0.232634
409.000000	0.232806
410.000000	0.233143
411.000000	0.233527
412.000000	0.234372
413.000000	0.234983
414.000000	0.234781
415.000000	0.235140
416.000000	0.235475
417.000000	0.235491
418.000000	0.235850
419.000000	0.236158
420.000000	0.236377
421.000000	0.236748
422.000000	0.237130
423.000000	0.237452
424.000000	0.237737
425.000000	0.237897
426.000000	0.238030
427.000000	0.238217
428.000000	0.238507
429.000000	0.238867
430.000000	0.239222
431.000000	0.239397
432.000000	0.239617
433.000000	0.239844
434.000000	0.240032
435.000000	0.240164
436.000000	0.240325
437.000000	0.240590
438.000000	0.241009
439.000000	0.241334
440.000000	0.241488
441.000000	0.241327
442.000000	0.241348
443.000000	0.241598
444.000000	0.241977
445.000000	0.242085
446.000000	0.242189
447.000000	0.242499
448.000000	0.242700
449.000000	0.242958
450.000000	0.243345
451.000000	0.243450
452.000000	0.243770
453.000000	0.244285
454.000000	0.244608
455.000000	0.244840
456.000000	0.245065
457.000000	0.245221
458.000000	0.245671
459.000000	0.245966
460.000000	0.245858
461.000000	0.246293
462.000000	0.246668
463.000000	0.246633
464.000000	0.246875
465.000000	0.247194
466.000000	0.247457
467.000000	0.247665
468.000000	0.247819
469.000000	0.247938
470.000000	0.248194
471.000000	0.248454
472.000000	0.248640
473.000000	0.248775
474.000000	0.249037
475.000000	0.249199
476.000000	0.249365
477.000000	0.249656
478.000000	0.249780
479.000000	0.249925
480.000000	0.250121
481.000000	0.250329
482.000000	0.250626
483.000000	0.250867
484.000000	0.251155
485.000000	0.251362
486.000000	0.251599
487.000000	0.251828
488.000000	0.252032
489.000000	0.252271
490.000000	0.252640
491.000000	0.252917
492.000000	0.253189
493.000000	0.253473
494.000000	0.253766
495.000000	0.254055
496.000000	0.254285
497.000000	0.254445
498.000000	0.254682
499.000000	0.255052
500.000000	0.255303
501.000000	0.255523
502.000000	0.255835
503.000000	0.256279
504.000000	0.256578
505.000000	0.256801
506.000000	0.257060
507.000000	0.257256
508.000000	0.257489
509.000000	0.257766
510.000000	0.258033
511.000000	0.258327
512.000000	0.258663
513.000000	0.258977
514.000000	0.259336
515.000000	0.259683
516.000000	0.259886
517.000000	0.260136
518.000000	0.260448
519.000000	0.260729
520.000000	0.261012
521.000000	0.261320
522.000000	0.261638
523.000000	0.261863
524.000000	0.262125
525.000000	0.262401
526.000000	0.262642
527.000000	0.262924
528.000000	0.263175
529.000000	0.263377
530.000000	0.263641
531.000000	0.263986
532.000000	0.264308
533.000000	0.264582
534.000000	0.264850
535.000000	0.265115
536.000000	0.265384
537.000000	0.265636
538.000000	0.265881
539.000000	0.266132
540.000000	0.266400
541.000000	0.266675
542.000000	0.266969
543.000000	0.267211
544.000000	0.267499
545.000000	0.267790
546.000000	0.267988
547.000000	0.268230
548.000000	0.268539
549.000000	0.268763
550.000000	0.269039
551.000000	0.269367
552.000000	0.269663
553.000000	0.269976
554.000000	0.270289
555.000000	0.270590
556.000000	0.270887
557.000000	0.271153
558.000000	0.271499
559.000000	0.271863
560.000000	0.272156
561.000000	0.272463
562.000000	0.272804
563.000000	0.273072
564.000000	0.273345
565.000000	0.273616
566.000000	0.273935
567.000000	0.274276
568.000000	0.274599
569.000000	0.274928
570.000000	0.275220
571.000000	0.275485
572.000000	0.275805
573.000000	0.276117
574.000000	0.276395
575.000000	0.276681
576.000000	0.276986
577.000000	0.277261
578.000000	0.277539
579.000000	0.277888
580.000000	0.278181
581.000000	0.278393
582.000000	0.278675
583.000000	0.278943
584.000000	0.279215
585.000000	0.279554
586.000000	0.279828
587.000000	0.280059
588.000000	0.280309
589.000000	0.280617
590.000000	0.280921
591.000000	0.281185
592.000000	0.281448
593.000000	0.281709
594.000000	0.281968
595.000000	0.282228
596.000000	0.282443
597.000000	0.282662
598.000000	0.282871
599.000000	0.283060
600.000000	0.283278
601.000000	0.283492
602.000000	0.283737
603.000000	0.283971
604.000000	0.284194
605.000000	0.284455
606.000000	0.284687
607.000000	0.284888
608.000000	0.285091
609.000000	0.285285
610.000000	0.285498
611.000000	0.285749
612.000000	0.285913
613.000000	0.286004
614.000000	0.286078
615.000000	0.286099
616.000000	0.286115
617.000000	0.286136
618.000000	0.286240
619.000000	0.286310
620.000000	0.286340
621.000000	0.286420
622.000000	0.286471
623.000000	0.286526
624.000000	0.286620
625.000000	0.286750
626.000000	0.286872
627.000000	0.286984
628.000000	0.287154
629.000000	0.287302
630.000000	0.287353
631.000000	0.287508
632.000000	0.287608
633.000000	0.287716
634.000000	0.287899
635.000000	0.288096
636.000000	0.288319
637.000000	0.288552
638.000000	0.288781
639.000000	0.288978
640.000000	0.289184
641.000000	0.289346
642.000000	0.289524
643.000000	0.289725
644.000000	0.289936
645.000000	0.290100
646.000000	0.290261
647.000000	0.290432
648.000000	0.290634
649.000000	0.290833
650.000000	0.291001
651.000000	0.291165
652.000000	0.291275
653.000000	0.291374
654.000000	0.291468
655.000000	0.291568
656.000000	0.291682
657.000000	0.291763
658.000000	0.291868
659.000000	0.292018
660.000000	0.292196
661.000000	0.292398
662.000000	0.292545
663.000000	0.292691
664.000000	0.292862
665.000000	0.293051
666.000000	0.293237
667.000000	0.293372
668.000000	0.293494
669.000000	0.293641
670.000000	0.293827
671.000000	0.293987
672.000000	0.294160
673.000000	0.294332
674.000000	0.294473
675.000000	0.294559
676.000000	0.294642
677.000000	0.294798
678.000000	0.294962
679.000000	0.295121
680.000000	0.295279
681.000000	0.295425
682.000000	0.295574
683.000000	0.295655
684.000000	0.295732
685.000000	0.295842
686.000000	0.295999
687.000000	0.296145
688.000000	0.296333
689.000000	0.296489
690.000000	0.296605
691.000000	0.296753
692.000000	0.296885
693.000000	0.297057
694.000000	0.297274
695.000000	0.297507
696.000000	0.297732
697.000000	0.297924
698.000000	0.298031
699.000000	0.298132
700.000000	0.298303
701.000000	0.298471
702.000000	0.298654
703.000000	0.298832
704.000000	0.298975
705.000000	0.299151
706.000000	0.299300
707.000000	0.299403
708.000000	0.299504
709.000000	0.299604
710.000000	0.299720
711.000000	0.299832
712.000000	0.299949
713.000000	0.300091
714.000000	0.300247
715.000000	0.300367
716.000000	0.300461
717.000000	0.300538
718.000000	0.300607
719.000000	0.300679
720.000000	0.300785
721.000000	0.300973
722.000000	0.301124
723.000000	0.301255
724.000000	0.301396
725.000000	0.301510
726.000000	0.301658
727.000000	0.301779
728.000000	0.301897
729.000000	0.301989
730.000000	0.302002
731.000000	0.302058
732.000000	0.302117
733.000000	0.302187
734.000000	0.302216
735.000000	0.302219
736.000000	0.302311
737.000000	0.302391
738.000000	0.302465
739.000000	0.302624
740.000000	0.302753
741.000000	0.302880
742.000000	0.302973
743.000000	0.303015
744.000000	0.303085
745.000000	0.303121
746.000000	0.303191
747.000000	0.303293
748.000000	0.303432
749.000000	0.303589
750.000000	0.303699
751.000000	0.303715
752.000000	0.303706
753.000000	0.303703
754.000000	0.303676
755.000000	0.303700
756.000000	0.303801
757.000000	0.303932
758.000000	0.304063
759.000000	0.304212
760.000000	0.304310
761.000000	0.304375
762.000000	0.304393
763.000000	0.304379
764.000000	0.304444
765.000000	0.304512
766.000000	0.304562
767.000000	0.304583
768.000000	0.304611
769.000000	0.304635
770.000000	0.304677
771.000000	0.304807
772.000000	0.304981
773.000000	0.305115
774.000000	0.305237
775.000000	0.305272
776.000000	0.305261
777.000000	0.305221
778.000000	0.305138
779.000000	0.305064
780.000000	0.305033
781.000000	0.305036
782.000000	0.305075
783.000000	0.305187
784.000000	0.305238
785.000000	0.305278
786.000000	0.305308
787.000000	0.305340
788.000000	0.305443
789.000000	0.305522
790.000000	0.305539
791.000000	0.305535
792.000000	0.305521
793.000000	0.305537
794.000000	0.305599
795.000000	0.305605
796.000000	0.305601
797.000000	0.305611
798.000000	0.305649
799.000000	0.305694
800.000000	0.305720
801.000000	0.305714
802.000000	0.305722
803.000000	0.305688
804.000000	0.305643
805.000000	0.305669
806.000000	0.305735
807.000000	0.305848
808.000000	0.305877
809.000000	0.305842
810.000000	0.305784
811.000000	0.305728
812.000000	0.305709
813.000000	0.305667
814.000000	0.305626
815.000000	0.305706
816.000000	0.305757
817.000000	0.305737
818.000000	0.305577
819.000000	0.305472
820.000000	0.305395
821.000000	0.305321
822.000000	0.305405
823.000000	0.305483
824.000000	0.305424
825.000000	0.305269
826.000000	0.305225
827.000000	0.305244
828.000000	0.305324
829.000000	0.305480
830.000000	0.305542
831.000000	0.305533
832.000000	0.305424
833.000000	0.305359
834.000000	0.305336
835.000000	0.305354
836.000000	0.305366
837.000000	0.305314
838.000000	0.305237
839.000000	0.305210
840.000000	0.305146
841.000000	0.305055
842.000000	0.304951
843.000000	0.304984
844.000000	0.305022
845.000000	0.304993
846.000000	0.304965
847.000000	0.304942
848.000000	0.304857
849.000000	0.304692
850.000000	0.304520
851.000000	0.304401
852.000000	0.304389
853.000000	0.304430
854.000000	0.304287
855.000000	0.304139
856.000000	0.304070
857.000000	0.303927
858.000000	0.303844
859.000000	0.303823
860.000000	0.303869
861.000000	0.303871
862.000000	0.303860
863.000000	0.303828
864.000000	0.303705
865.000000	0.303519
866.000000	0.303331
867.000000	0.303136
868.000000	0.303160
869.000000	0.303229
870.000000	0.303136
871.000000	0.302936
872.000000	0.302742
873.000000	0.302579
874.000000	0.302514
875.000000	0.302400
876.000000	0.302206
877.000000	0.301905
878.000000	0.301657
879.000000	0.301577
880.000000	0.301532
881.000000	0.301440
882.000000	0.301269
883.000000	0.301053
884.000000	0.300799
885.000000	0.300608
886.000000	0.300346
887.000000	0.300034
888.000000	0.299938
889.000000	0.299849
890.000000	0.299652
891.000000	0.299485
892.000000	0.299158
893.000000	0.298915
894.000000	0.298873
895.000000	0.298475
896.000000	0.298166
897.000000	0.298012
898.000000	0.297938
899.000000	0.297881
900.000000	0.297865
901.000000	0.297823
902.000000	0.297691
903.000000	0.297496
904.000000	0.297316
905.000000	0.297126
906.000000	0.296973
907.000000	0.296847
908.000000	0.296726
909.000000	0.296412
910.000000	0.296191
911.000000	0.296005
912.000000	0.295737
913.000000	0.295271
914.000000	0.294841
915.000000	0.294528
916.000000	0.294134
917.000000	0.293844
918.000000	0.293694
919.000000	0.293609
920.000000	0.293396
921.000000	0.293233
922.000000	0.293063
923.000000	0.292728
924.000000	0.292582
925.000000	0.292425
926.000000	0.292179
927.000000	0.291978
928.000000	0.291657
929.000000	0.291297
930.000000	0.291024
931.000000	0.290697
932.000000	0.290321
933.000000	0.289996
934.000000	0.289796
935.000000	0.289524
936.000000	0.289262
937.000000	0.289015
938.000000	0.288767
939.000000	0.288689
940.000000	0.288613
941.000000	0.288348
942.000000	0.288022
943.000000	0.287851
944.000000	0.287724
945.000000	0.287338
946.000000	0.287000
947.000000	0.286785
948.000000	0.286606
949.000000	0.286395
950.000000	0.286266
951.000000	0.286150
952.000000	0.285929
953.000000	0.285816
954.000000	0.285705
955.000000	0.285459
956.000000	0.285294
957.000000	0.285051
958.000000	0.284713
959.000000	0.284424
960.000000	0.284022
961.000000	0.283652
962.000000	0.283341
963.000000	0.283017
964.000000	0.282870
965.000000	0.282712
966.000000	0.282323
967.000000	0.282149
968.000000	0.281881
969.000000	0.281480
970.000000	0.281169
971.000000	0.281018
972.000000	0.280886
973.000000	0.280628
974.000000	0.280307
975.000000	0.280086
976.000000	0.279865
977.000000	0.279569
978.000000	0.279419
979.000000	0.279270
980.000000	0.278934
981.000000	0.278709
982.000000	0.278781
983.000000	0.278683
984.000000	0.278363
985.000000	0.278102
986.000000	0.277992
987.000000	0.277805
988.000000	0.277366
989.000000	0.277166
990.000000	0.277008
991.000000	0.276848
992.000000	0.276720
993.000000	0.276566
994.000000	0.276426
995.000000	0.276375
996.000000	0.276157
997.000000	0.276061
998.000000	0.275921
999.000000	0.275712
1000.000000	0.275453
1001.000000	0.275882
1002.000000	0.275690
1003.000000	0.275514
1004.000000	0.275463
1005.000000	0.275471
1006.000000	0.275222
1007.000000	0.275011
1008.000000	0.274797
1009.000000	0.274762
1010.000000	0.274540
1011.000000	0.274750
1012.000000	0.275138
1013.000000	0.274520
1014.000000	0.273777
1015.000000	0.273430
1016.000000	0.272874
1017.000000	0.272571
1018.000000	0.273149
1019.000000	0.273283
1020.000000	0.273550
1021.000000	0.273336
1022.000000	0.272725
1023.000000	0.272669
1024.000000	0.272522
1025.000000	0.272823
1026.000000	0.273144
1027.000000	0.273181
1028.000000	0.272940
1029.000000	0.272872
1030.000000	0.272862
1031.000000	0.272833
1032.000000	0.273020
1033.000000	0.273247
1034.000000	0.273291
1035.000000	0.273262
1036.000000	0.273321
1037.000000	0.273310
1038.000000	0.273176
1039.000000	0.273074
1040.000000	0.273158
1041.000000	0.273147
1042.000000	0.273038
1043.000000	0.273077
1044.000000	0.273323
1045.000000	0.273509
1046.000000	0.273581
1047.000000	0.273661
1048.000000	0.273668
1049.000000	0.273678
1050.000000	0.273586
1051.000000	0.273718
1052.000000	0.273974
1053.000000	0.274110
1054.000000	0.274485
1055.000000	0.274715
1056.000000	0.274855
1057.000000	0.275072
1058.000000	0.274959
1059.000000	0.274711
1060.000000	0.274835
1061.000000	0.275011
1062.000000	0.275117
1063.000000	0.275530
1064.000000	0.275810
1065.000000	0.275845
1066.000000	0.276003
1067.000000	0.276292
1068.000000	0.276478
1069.000000	0.276524
1070.000000	0.276670
1071.000000	0.276891
1072.000000	0.277105
1073.000000	0.277403
1074.000000	0.277677
1075.000000	0.277803
1076.000000	0.278306
1077.000000	0.278663
1078.000000	0.278870
1079.000000	0.279106
1080.000000	0.279327
1081.000000	0.279546
1082.000000	0.279805
1083.000000	0.280039
1084.000000	0.280339
1085.000000	0.280600
1086.000000	0.280797
1087.000000	0.281060
1088.000000	0.281283
1089.000000	0.281451
1090.000000	0.281641
1091.000000	0.281646
1092.000000	0.281769
1093.000000	0.282019
1094.000000	0.282170
1095.000000	0.282236
1096.000000	0.282515
1097.000000	0.282869
1098.000000	0.283165
1099.000000	0.283600
1100.000000	0.283894
1101.000000	0.284011
1102.000000	0.284132
1103.000000	0.284074
1104.000000	0.284283
1105.000000	0.284637
1106.000000	0.284878
1107.000000	0.285163
1108.000000	0.285464
1109.000000	0.285797
1110.000000	0.286003
1111.000000	0.286207
1112.000000	0.286449
1113.000000	0.286725
1114.000000	0.286968
1115.000000	0.287144
1116.000000	0.287419
1117.000000	0.287570
1118.000000	0.287477
1119.000000	0.287516
1120.000000	0.287615
1121.000000	0.287713
1122.000000	0.287961
1123.000000	0.288239
1124.000000	0.288252
1125.000000	0.288431
1126.000000	0.288634
1127.000000	0.288749
1128.000000	0.288858
1129.000000	0.289076
1130.000000	0.289211
1131.000000	0.289246
1132.000000	0.289328
1133.000000	0.289478
1134.000000	0.289648
1135.000000	0.289807
1136.000000	0.289890
1137.000000	0.289949
1138.000000	0.290000
1139.000000	0.290047
1140.000000	0.290172
1141.000000	0.290294
1142.000000	0.290446
1143.000000	0.290591
1144.000000	0.290788
1145.000000	0.290830
1146.000000	0.290917
1147.000000	0.290970
1148.000000	0.290867
1149.000000	0.290904
1150.000000	0.290996
1151.000000	0.291119
1152.000000	0.291273
1153.000000	0.291385
1154.000000	0.291513
1155.000000	0.291536
1156.000000	0.291404
1157.000000	0.291430
1158.000000	0.291459
1159.000000	0.291477
1160.000000	0.291587
1161.000000	0.291627
1162.000000	0.291634
1163.000000	0.291747
1164.000000	0.291751
1165.000000	0.291825
1166.000000	0.291912
1167.000000	0.291956
1168.000000	0.292005
1169.000000	0.292165
1170.000000	0.292200
1171.000000	0.292170
1172.000000	0.292234
1173.000000	0.292252
1174.000000	0.292283
1175.000000	0.292387
1176.000000	0.292385
1177.000000	0.292364
1178.000000	0.292358
1179.000000	0.292318
1180.000000	0.292251
1181.000000	0.292214
1182.000000	0.292233
1183.000000	0.292366
1184.000000	0.292414
1185.000000	0.292439
1186.000000	0.292463
1187.000000	0.292508
1188.000000	0.292512
1189.000000	0.292510
1190.000000	0.292621
1191.000000	0.292632
1192.000000	0.292625
1193.000000	0.292722
1194.000000	0.292760
1195.000000	0.292788
1196.000000	0.292764
1197.000000	0.292760
1198.000000	0.292774
1199.000000	0.292758
1200.000000	0.292665
1201.000000	0.292701
1202.000000	0.292735
1203.000000	0.292753
1204.000000	0.292846
1205.000000	0.292993
1206.000000	0.293018
1207.000000	0.293039
1208.000000	0.293089
1209.000000	0.293164
1210.000000	0.293218
1211.000000	0.293362
1212.000000	0.293371
1213.000000	0.293269
1214.000000	0.293312
1215.000000	0.293366
1216.000000	0.293371
1217.000000	0.293428
1218.000000	0.293421
1219.000000	0.293354
1220.000000	0.293330
1221.000000	0.293251
1222.000000	0.293172
1223.000000	0.293104
1224.000000	0.292998
1225.000000	0.292953
1226.000000	0.292993
1227.000000	0.292963
1228.000000	0.292984
1229.000000	0.292975
1230.000000	0.292952
1231.000000	0.292882
1232.000000	0.292896
1233.000000	0.292972
1234.000000	0.293049
1235.000000	0.293090
1236.000000	0.293085
1237.000000	0.293098
1238.000000	0.293021
1239.000000	0.292980
1240.000000	0.292981
1241.000000	0.292942
1242.000000	0.292851
1243.000000	0.292774
1244.000000	0.292661
1245.000000	0.292619
1246.000000	0.292558
1247.000000	0.292527
1248.000000	0.292586
1249.000000	0.292622
1250.000000	0.292651
1251.000000	0.292717
1252.000000	0.292731
1253.000000	0.292720
1254.000000	0.292699
1255.000000	0.292651
1256.000000	0.292646
1257.000000	0.292658
1258.000000	0.292713
1259.000000	0.292745
1260.000000	0.292807
1261.000000	0.292866
1262.000000	0.292889
1263.000000	0.292905
1264.000000	0.292953
1265.000000	0.292982
1266.000000	0.292891
1267.000000	0.292871
1268.000000	0.292798
1269.000000	0.292683
1270.000000	0.292745
1271.000000	0.292696
1272.000000	0.292697
1273.000000	0.292791
1274.000000	0.292746
1275.000000	0.292668
1276.000000	0.292573
1277.000000	0.292549
1278.000000	0.292374
1279.000000	0.292319
1280.000000	0.292343
1281.000000	0.292263
1282.000000	0.292193
1283.000000	0.292185
1284.000000	0.292105
1285.000000	0.292067
1286.000000	0.292029
1287.000000	0.292047
1288.000000	0.292102
1289.000000	0.292031
1290.000000	0.291943
1291.000000	0.291854
1292.000000	0.291801
1293.000000	0.291788
1294.000000	0.291722
1295.000000	0.291777
1296.000000	0.291767
1297.000000	0.291704
1298.000000	0.291827
1299.000000	0.291847
1300.000000	0.291922
1301.000000	0.292046
1302.000000	0.292022
1303.000000	0.292030
1304.000000	0.292012
1305.000000	0.291945
1306.000000	0.291946
1307.000000	0.292050
1308.000000	0.292117
1309.000000	0.292235
1310.000000	0.292284
1311.000000	0.292324
1312.000000	0.292283
1313.000000	0.292269
1314.000000	0.292215
1315.000000	0.292150
1316.000000	0.292245
1317.000000	0.292373
1318.000000	0.292494
1319.000000	0.292532
1320.000000	0.292589
1321.000000	0.292570
1322.000000	0.292386
1323.000000	0.292307
1324.000000	0.292252
1325.000000	0.292083
1326.000000	0.291971
1327.000000	0.291891
1328.000000	0.291777
1329.000000	0.291598
1330.000000	0.291406
1331.000000	0.291243
1332.000000	0.291063
1333.000000	0.290966
1334.000000	0.290988
1335.000000	0.290993
1336.000000	0.291019
1337.000000	0.291017
1338.000000	0.290937
1339.000000	0.290961
1340.000000	0.290966
1341.000000	0.290867
1342.000000	0.290794
1343.000000	0.290764
1344.000000	0.290760
1345.000000	0.290824
1346.000000	0.290980
1347.000000	0.290979
1348.000000	0.290952
1349.000000	0.290889
1350.000000	0.290856
1351.000000	0.290833
1352.000000	0.290779
1353.000000	0.290789
1354.000000	0.290856
1355.000000	0.290872
1356.000000	0.290972
1357.000000	0.291018
1358.000000	0.290938
1359.000000	0.290838
1360.000000	0.290770
1361.000000	0.290742
1362.000000	0.290651
1363.000000	0.290523
1364.000000	0.290441
1365.000000	0.290288
1366.000000	0.290205
1367.000000	0.290198
1368.000000	0.290131
1369.000000	0.290070
1370.000000	0.289958
1371.000000	0.289744
1372.000000	0.289619
1373.000000	0.289600
1374.000000	0.289560
1375.000000	0.289589
1376.000000	0.289656
1377.000000	0.289687
1378.000000	0.289703
1379.000000	0.289541
1380.000000	0.289355
1381.000000	0.289158
1382.000000	0.288943
1383.000000	0.288824
1384.000000	0.288604
1385.000000	0.288323
1386.000000	0.288119
1387.000000	0.287955
1388.000000	0.287824
1389.000000	0.287782
1390.000000	0.287789
1391.000000	0.287721
1392.000000	0.287719
1393.000000	0.287729
1394.000000	0.287780
1395.000000	0.287849
1396.000000	0.287965
1397.000000	0.288045
1398.000000	0.288088
1399.000000	0.288169
1400.000000	0.288264
1401.000000	0.288291
1402.000000	0.288341
1403.000000	0.288360
1404.000000	0.288427
1405.000000	0.288436
1406.000000	0.288437
1407.000000	0.288520
1408.000000	0.288483
1409.000000	0.288406
1410.000000	0.288460
1411.000000	0.288485
1412.000000	0.288385
1413.000000	0.288385
1414.000000	0.288428
1415.000000	0.288361
1416.000000	0.288331
1417.000000	0.288360
1418.000000	0.288289
1419.000000	0.288271
1420.000000	0.288214
1421.000000	0.288217
1422.000000	0.288243
1423.000000	0.288271
1424.000000	0.288245
1425.000000	0.288316
1426.000000	0.288393
1427.000000	0.288430
1428.000000	0.288553
1429.000000	0.288665
1430.000000	0.288753
1431.000000	0.288916
1432.000000	0.289065
1433.000000	0.289312
1434.000000	0.289423
1435.000000	0.289558
1436.000000	0.289663
1437.000000	0.289684
1438.000000	0.289679
1439.000000	0.289729
1440.000000	0.289705
1441.000000	0.289596
1442.000000	0.289551
1443.000000	0.289462
1444.000000	0.289362
1445.000000	0.289271
1446.000000	0.289180
1447.000000	0.289047
1448.000000	0.288927
1449.000000	0.288814
1450.000000	0.288726
1451.000000	0.288704
1452.000000	0.288620
1453.000000	0.288513
1454.000000	0.288426
1455.000000	0.288354
1456.000000	0.288365
1457.000000	0.288396
1458.000000	0.288402
1459.000000	0.288419
1460.000000	0.288401
1461.000000	0.288358
1462.000000	0.288398
1463.000000	0.288413
1464.000000	0.288401
1465.000000	0.288501
1466.000000	0.288576
1467.000000	0.288609
1468.000000	0.288650
1469.000000	0.288708
1470.000000	0.288705
1471.000000	0.288746
1472.000000	0.288802
1473.000000	0.288850
1474.000000	0.288846
1475.000000	0.288832
1476.000000	0.288829
1477.000000	0.288844
1478.000000	0.288817
1479.000000	0.288751
1480.000000	0.288718
1481.000000	0.288706
1482.000000	0.288755
1483.000000	0.288816
1484.000000	0.288945
1485.000000	0.289004
1486.000000	0.289019
1487.000000	0.289034
1488.000000	0.289033
1489.000000	0.289075
1490.000000	0.288983
1491.000000	0.289002
1492.000000	0.289073
1493.000000	0.289138
1494.000000	0.289218
1495.000000	0.289257
1496.000000	0.289236
1497.000000	0.289248
1498.000000	0.289270
1499.000000	0.289281
1500.000000	0.289367
1501.000000	0.289496
1502.000000	0.289560
1503.000000	0.289717
1504.000000	0.289868
1505.000000	0.289936
1506.000000	0.290082
1507.000000	0.290200
1508.000000	0.290308
1509.000000	0.290462
1510.000000	0.290504
1511.000000	0.290501
1512.000000	0.290506
1513.000000	0.290473
1514.000000	0.290489
1515.000000	0.290496
1516.000000	0.290476
1517.000000	0.290412
1518.000000	0.290331
1519.000000	0.290211
1520.000000	0.290132
1521.000000	0.290045
1522.000000	0.290016
1523.000000	0.290010
1524.000000	0.289875
1525.000000	0.289807
1526.000000	0.289705
1527.000000	0.289589
1528.000000	0.289593
1529.000000	0.289516
1530.000000	0.289357
1531.000000	0.289255
1532.000000	0.289157
1533.000000	0.289031
1534.000000	0.288931
1535.000000	0.288898
1536.000000	0.288806
1537.000000	0.288829
1538.000000	0.288887
1539.000000	0.288791
1540.000000	0.288810
1541.000000	0.288899
1542.000000	0.288936
1543.000000	0.289067
1544.000000	0.289100
1545.000000	0.289099
1546.000000	0.289215
1547.000000	0.289315
1548.000000	0.289428
1549.000000	0.289519
1550.000000	0.289521
1551.000000	0.289488
1552.000000	0.289461
1553.000000	0.289465
1554.000000	0.289497
1555.000000	0.289534
1556.000000	0.289533
1557.000000	0.289461
1558.000000	0.289432
1559.000000	0.289295
1560.000000	0.289257
1561.000000	0.289353
1562.000000	0.289318
1563.000000	0.289293
1564.000000	0.289255
1565.000000	0.289141
1566.000000	0.289019
1567.000000	0.288983
1568.000000	0.288937
1569.000000	0.288955
1570.000000	0.288911
1571.000000	0.288826
1572.000000	0.288792
1573.000000	0.288732
1574.000000	0.288718
1575.000000	0.288821
1576.000000	0.288864
1577.000000	0.288873
1578.000000	0.288852
1579.000000	0.288881
1580.000000	0.288830
1581.000000	0.288765
1582.000000	0.288707
1583.000000	0.288587
1584.000000	0.288506
1585.000000	0.288520
1586.000000	0.288545
1587.000000	0.288603
1588.000000	0.288636
1589.000000	0.288696
1590.000000	0.288695
1591.000000	0.288659
1592.000000	0.288684
1593.000000	0.288778
1594.000000	0.288784
1595.000000	0.288840
1596.000000	0.288812
1597.000000	0.288688
1598.000000	0.288589
1599.000000	0.288496
1600.000000	0.288401
1601.000000	0.288369
1602.000000	0.288328
1603.000000	0.288353
1604.000000	0.288271
1605.000000	0.288157
1606.000000	0.288043
1607.000000	0.287891
1608.000000	0.287794
1609.000000	0.287762
1610.000000	0.287711
1611.000000	0.287706
1612.000000	0.287702
1613.000000	0.287799
1614.000000	0.287852
1615.000000	0.287964
1616.000000	0.288035
1617.000000	0.288051
1618.000000	0.288046
1619.000000	0.287956
1620.000000	0.287938
1621.000000	0.287975
1622.000000	0.288033
1623.000000	0.288113
1624.000000	0.288151
1625.000000	0.288044
1626.000000	0.287952
1627.000000	0.287825
1628.000000	0.287831
1629.000000	0.287913
1630.000000	0.287951
1631.000000	0.287990
1632.000000	0.287983
1633.000000	0.287887
1634.000000	0.287893
1635.000000	0.288043
1636.000000	0.288045
1637.000000	0.288015
1638.000000	0.287977
1639.000000	0.287896
1640.000000	0.287857
1641.000000	0.287939
1642.000000	0.287933
1643.000000	0.287911
1644.000000	0.287881
1645.000000	0.287804
1646.000000	0.287745
1647.000000	0.287733
1648.000000	0.287680
1649.000000	0.287714
1650.000000	0.287699
1651.000000	0.287673
1652.000000	0.287698
1653.000000	0.287665
1654.000000	0.287687
1655.000000	0.287718
1656.000000	0.287643
1657.000000	0.287596
1658.000000	0.287577
1659.000000	0.287604
1660.000000	0.287696
1661.000000	0.287771
1662.000000	0.287844
1663.000000	0.287932
1664.000000	0.287987
1665.000000	0.288031
1666.000000	0.288141
1667.000000	0.288205
1668.000000	0.288200
1669.000000	0.288174
1670.000000	0.288061
1671.000000	0.287928
1672.000000	0.287895
1673.000000	0.287863
1674.000000	0.287754
1675.000000	0.287718
1676.000000	0.287706
1677.000000	0.287636
1678.000000	0.287537
1679.000000	0.287434
1680.000000	0.287307
1681.000000	0.287203
1682.000000	0.287193
1683.000000	0.287217
1684.000000	0.287065
1685.000000	0.286979
1686.000000	0.287020
1687.000000	0.287066
1688.000000	0.287128
1689.000000	0.287217
1690.000000	0.287235
1691.000000	0.287256
1692.000000	0.287302
1693.000000	0.287296
1694.000000	0.287194
1695.000000	0.287176
1696.000000	0.287129
1697.000000	0.287030
1698.000000	0.286931
1699.000000	0.286892
1700.000000	0.286870
1701.000000	0.286912
1702.000000	0.286892
1703.000000	0.286815
1704.000000	0.286765
1705.000000	0.286732
1706.000000	0.286676
1707.000000	0.286704
1708.000000	0.286827
1709.000000	0.286814
1710.000000	0.286848
1711.000000	0.286924
1712.000000	0.286989
1713.000000	0.287004
1714.000000	0.287145
1715.000000	0.287149
1716.000000	0.287007
1717.000000	0.286919
1718.000000	0.286777
1719.000000	0.286634
1720.000000	0.286536
1721.000000	0.286427
1722.000000	0.286279
1723.000000	0.286208
1724.000000	0.286205
1725.000000	0.286218
1726.000000	0.286209
1727.000000	0.286200
1728.000000	0.286167
1729.000000	0.286063
1730.000000	0.286047
1731.000000	0.285985
1732.000000	0.285852
1733.000000	0.285862
1734.000000	0.285802
1735.000000	0.285791
1736.000000	0.285850
1737.000000	0.285823
1738.000000	0.285763
1739.000000	0.285762
1740.000000	0.285740
1741.000000	0.285728
1742.000000	0.285766
1743.000000	0.285821
1744.000000	0.285882
1745.000000	0.285815
1746.000000	0.285697
1747.000000	0.285609
1748.000000	0.285537
1749.000000	0.285641
1750.000000	0.285658
1751.000000	0.285733
1752.000000	0.285859
1753.000000	0.285848
1754.000000	0.285884
1755.000000	0.285873
1756.000000	0.285910
1757.000000	0.286015
1758.000000	0.286111
1759.000000	0.286245
1760.000000	0.286317
1761.000000	0.286309
1762.000000	0.286307
1763.000000	0.286311
1764.000000	0.286279
1765.000000	0.286175
1766.000000	0.286124
1767.000000	0.285979
1768.000000	0.285870
1769.000000	0.285881
1770.000000	0.285928
1771.000000	0.285951
1772.000000	0.286008
1773.000000	0.286060
1774.000000	0.286181
1775.000000	0.286459
1776.000000	0.286548
1777.000000	0.286597
1778.000000	0.286579
1779.000000	0.286358
1780.000000	0.286325
1781.000000	0.286333
1782.000000	0.286323
1783.000000	0.286420
1784.000000	0.286376
1785.000000	0.286245
1786.000000	0.286140
1787.000000	0.286096
1788.000000	0.286115
1789.000000	0.286066
1790.000000	0.285959
1791.000000	0.285827
1792.000000	0.285703
1793.000000	0.285635
1794.000000	0.285668
1795.000000	0.285637
1796.000000	0.285591
1797.000000	0.285530
1798.000000	0.285382
1799.000000	0.285270
1800.000000	0.285232
1801.000000	0.285614
1802.000000	0.285515
1803.000000	0.284755
1804.000000	0.284983
1805.000000	0.285695
1806.000000	0.286011
1807.000000	0.287110
1808.000000	0.287303
1809.000000	0.286398
1810.000000	0.286034
1811.000000	0.285860
1812.000000	0.285306
1813.000000	0.285521
1814.000000	0.286929
1815.000000	0.287146
1816.000000	0.287212
1817.000000	0.287074
1818.000000	0.286316
1819.000000	0.285671
1820.000000	0.285240
1821.000000	0.284959
1822.000000	0.285127
1823.000000	0.285573
1824.000000	0.285876
1825.000000	0.286898
1826.000000	0.287159
1827.000000	0.286840
1828.000000	0.286631
1829.000000	0.286100
1830.000000	0.285188
1831.000000	0.284846
1832.000000	0.284458
1833.000000	0.284553
1834.000000	0.285321
1835.000000	0.285700
1836.000000	0.286169
1837.000000	0.286451
1838.000000	0.286336
1839.000000	0.286556
1840.000000	0.286450
1841.000000	0.286342
1842.000000	0.285874
1843.000000	0.284479
1844.000000	0.284242
1845.000000	0.284206
1846.000000	0.284277
1847.000000	0.284886
1848.000000	0.285552
1849.000000	0.285653
1850.000000	0.285780
1851.000000	0.285703
1852.000000	0.285401
1853.000000	0.285121
1854.000000	0.284262
1855.000000	0.284036
1856.000000	0.283894
1857.000000	0.284043
1858.000000	0.284610
1859.000000	0.284656
1860.000000	0.284559
1861.000000	0.284675
1862.000000	0.284704
1863.000000	0.284706
1864.000000	0.284804
1865.000000	0.285080
1866.000000	0.285075
1867.000000	0.284983
1868.000000	0.284787
1869.000000	0.284157
1870.000000	0.283784
1871.000000	0.283714
1872.000000	0.283732
1873.000000	0.283729
1874.000000	0.284078
1875.000000	0.284034
1876.000000	0.283614
1877.000000	0.282781
1878.000000	0.282053
1879.000000	0.281624
1880.000000	0.281285
1881.000000	0.281100
1882.000000	0.281068
1883.000000	0.280820
1884.000000	0.280897
1885.000000	0.281195
1886.000000	0.281190
1887.000000	0.281230
1888.000000	0.281068
1889.000000	0.280676
1890.000000	0.279987
1891.000000	0.279295
1892.000000	0.278716
1893.000000	0.278451
1894.000000	0.278291
1895.000000	0.277926
1896.000000	0.277853
1897.000000	0.277769
1898.000000	0.276953
1899.000000	0.276481
1900.000000	0.276322
1901.000000	0.276212
1902.000000	0.276494
1903.000000	0.276624
1904.000000	0.276894
1905.000000	0.277074
1906.000000	0.276970
1907.000000	0.276631
1908.000000	0.276567
1909.000000	0.276517
1910.000000	0.276243
1911.000000	0.276372
1912.000000	0.276543
1913.000000	0.276452
1914.000000	0.276680
1915.000000	0.276776
1916.000000	0.276878
1917.000000	0.276897
1918.000000	0.277014
1919.000000	0.277101
1920.000000	0.277027
1921.000000	0.276782
1922.000000	0.276793
1923.000000	0.276667
1924.000000	0.276762
1925.000000	0.276996
1926.000000	0.276904
1927.000000	0.276976
1928.000000	0.277112
1929.000000	0.277301
1930.000000	0.277572
1931.000000	0.277910
1932.000000	0.278304
1933.000000	0.278442
1934.000000	0.278403
1935.000000	0.278571
1936.000000	0.278801
1937.000000	0.278818
1938.000000	0.278851
1939.000000	0.278822
1940.000000	0.278739
1941.000000	0.278269
1942.000000	0.278215
1943.000000	0.278187
1944.000000	0.278046
1945.000000	0.278561
1946.000000	0.278813
1947.000000	0.278503
1948.000000	0.278591
1949.000000	0.278305
1950.000000	0.277999
1951.000000	0.278044
1952.000000	0.278711
1953.000000	0.278866
1954.000000	0.279310
1955.000000	0.279710
1956.000000	0.279265
1957.000000	0.278919
1958.000000	0.278579
1959.000000	0.278113
1960.000000	0.278033
1961.000000	0.278151
1962.000000	0.278146
1963.000000	0.278076
1964.000000	0.278353
1965.000000	0.278428
1966.000000	0.278307
1967.000000	0.278721
1968.000000	0.278769
1969.000000	0.278541
1970.000000	0.278776
1971.000000	0.278475
1972.000000	0.278067
1973.000000	0.277961
1974.000000	0.278290
1975.000000	0.278412
1976.000000	0.278760
1977.000000	0.278959
1978.000000	0.278673
1979.000000	0.278300
1980.000000	0.278183
1981.000000	0.278551
1982.000000	0.278857
1983.000000	0.279424
1984.000000	0.279647
1985.000000	0.279293
1986.000000	0.279368
1987.000000	0.279700
1988.000000	0.280084
1989.000000	0.280234
1990.000000	0.280626
1991.000000	0.280435
1992.000000	0.279994
1993.000000	0.279769
1994.000000	0.279261
1995.000000	0.278691
1996.000000	0.278502
1997.000000	0.278504
1998.000000	0.278880
1999.000000	0.279219
2000.000000	0.280012
2001.000000	0.280204
2002.000000	0.280211
2003.000000	0.280221
2004.000000	0.279780
2005.000000	0.279236
2006.000000	0.279045
2007.000000	0.278747
2008.000000	0.278725
2009.000000	0.279108
2010.000000	0.279353
2011.000000	0.279527
2012.000000	0.279665
2013.000000	0.279696
2014.000000	0.279731
2015.000000	0.280008
2016.000000	0.280113
2017.000000	0.280060
2018.000000	0.279962
2019.000000	0.279442
2020.000000	0.278845
2021.000000	0.278534
2022.000000	0.278339
2023.000000	0.278076
2024.000000	0.277935
2025.000000	0.277872
2026.000000	0.277606
2027.000000	0.277530
2028.000000	0.277643
2029.000000	0.277799
2030.000000	0.278295
2031.000000	0.278291
2032.000000	0.278028
2033.000000	0.278301
2034.000000	0.278262
2035.000000	0.278027
2036.000000	0.277820
2037.000000	0.277724
2038.000000	0.277616
2039.000000	0.277479
2040.000000	0.277454
2041.000000	0.277687
2042.000000	0.278001
2043.000000	0.277951
2044.000000	0.278019
2045.000000	0.278185
2046.000000	0.278069
2047.000000	0.277978
2048.000000	0.278039
2049.000000	0.278081
2050.000000	0.277419
2051.000000	0.277202
2052.000000	0.277051
2053.000000	0.276825
2054.000000	0.276834
2055.000000	0.277201
2056.000000	0.277455
2057.000000	0.277561
2058.000000	0.277612
2059.000000	0.277771
2060.000000	0.277873
2061.000000	0.278027
2062.000000	0.278033
2063.000000	0.277981
2064.000000	0.277842
2065.000000	0.277717
2066.000000	0.277651
2067.000000	0.277847
2068.000000	0.278126
2069.000000	0.278633
2070.000000	0.278668
2071.000000	0.278429
2072.000000	0.278521
2073.000000	0.278238
2074.000000	0.278112
2075.000000	0.278065
2076.000000	0.278175
2077.000000	0.278077
2078.000000	0.278161
2079.000000	0.277809
2080.000000	0.277046
2081.000000	0.276626
2082.000000	0.276072
2083.000000	0.275481
2084.000000	0.275833
2085.000000	0.276295
2086.000000	0.276287
2087.000000	0.276441
2088.000000	0.276133
2089.000000	0.275643
2090.000000	0.275466
2091.000000	0.275577
2092.000000	0.275630
2093.000000	0.275809
2094.000000	0.275901
2095.000000	0.275989
2096.000000	0.276234
2097.000000	0.276571
2098.000000	0.276646
2099.000000	0.276982
2100.000000	0.276827
2101.000000	0.276332
2102.000000	0.276431
2103.000000	0.276333
2104.000000	0.276284
2105.000000	0.276480
2106.000000	0.277079
2107.000000	0.277075
2108.000000	0.276813
2109.000000	0.276870
2110.000000	0.276470
2111.000000	0.276436
2112.000000	0.276778
2113.000000	0.277005
2114.000000	0.277018
2115.000000	0.276561
2116.000000	0.276166
2117.000000	0.275890
2118.000000	0.275904
2119.000000	0.276089
2120.000000	0.276242
2121.000000	0.276509
2122.000000	0.276855
2123.000000	0.277393
2124.000000	0.277612
2125.000000	0.277936
2126.000000	0.277873
2127.000000	0.277191
2128.000000	0.277017
2129.000000	0.276681
2130.000000	0.276738
2131.000000	0.277098
2132.000000	0.277234
2133.000000	0.277728
2134.000000	0.278139
2135.000000	0.277872
2136.000000	0.277859
2137.000000	0.277772
2138.000000	0.277371
2139.000000	0.277143
2140.000000	0.277058
2141.000000	0.276965
2142.000000	0.276913
2143.000000	0.276565
2144.000000	0.276259
2145.000000	0.276163
2146.000000	0.276144
2147.000000	0.276156
2148.000000	0.275893
2149.000000	0.276156
2150.000000	0.276145
2151.000000	0.275873
2152.000000	0.276129
2153.000000	0.276139
2154.000000	0.275952
2155.000000	0.275475
2156.000000	0.275199
2157.000000	0.274754
2158.000000	0.274661
2159.000000	0.274781
2160.000000	0.275216
2161.000000	0.276234
2162.000000	0.276805
2163.000000	0.277510
2164.000000	0.277605
2165.000000	0.277039
2166.000000	0.276314
2167.000000	0.276181
2168.000000	0.276759
2169.000000	0.277358
2170.000000	0.277809
2171.000000	0.277782
2172.000000	0.276952
2173.000000	0.276634
2174.000000	0.276292
2175.000000	0.276211
2176.000000	0.276311
2177.000000	0.276490
2178.000000	0.277104
2179.000000	0.277279
2180.000000	0.277484
2181.000000	0.277537
2182.000000	0.276560
2183.000000	0.275803
2184.000000	0.275670
2185.000000	0.275118
2186.000000	0.275040
2187.000000	0.275350
2188.000000	0.275424
2189.000000	0.275369
2190.000000	0.275162
2191.000000	0.275136
2192.000000	0.275295
2193.000000	0.275797
2194.000000	0.275528
2195.000000	0.274930
2196.000000	0.274884
2197.000000	0.274151
2198.000000	0.274131
2199.000000	0.275924
2200.000000	0.276474
2201.000000	0.276323
2202.000000	0.276089
2203.000000	0.274957
2204.000000	0.274078
2205.000000	0.273371
2206.000000	0.272646
2207.000000	0.272536
2208.000000	0.272989
2209.000000	0.273626
2210.000000	0.274214
2211.000000	0.274375
2212.000000	0.274191
2213.000000	0.274462
2214.000000	0.274543
2215.000000	0.275229
2216.000000	0.276981
2217.000000	0.277680
2218.000000	0.277938
2219.000000	0.278024
2220.000000	0.277636
2221.000000	0.277282
2222.000000	0.277041
2223.000000	0.276529
2224.000000	0.275597
2225.000000	0.275086
2226.000000	0.274187
2227.000000	0.272046
2228.000000	0.270587
2229.000000	0.269862
2230.000000	0.270418
2231.000000	0.271967
2232.000000	0.273515
2233.000000	0.274252
2234.000000	0.273007
2235.000000	0.272489
2236.000000	0.271983
2237.000000	0.271102
2238.000000	0.270816
2239.000000	0.270326
2240.000000	0.270952
2241.000000	0.273170
2242.000000	0.273612
2243.000000	0.274383
2244.000000	0.274503
2245.000000	0.272414
2246.000000	0.271778
2247.000000	0.271524
2248.000000	0.271934
2249.000000	0.273190
2250.000000	0.274551
2251.000000	0.275473
2252.000000	0.275552
2253.000000	0.275233
2254.000000	0.274030
2255.000000	0.273114
2256.000000	0.272889
2257.000000	0.272450
2258.000000	0.272650
2259.000000	0.273347
2260.000000	0.274166
2261.000000	0.273782
2262.000000	0.272609
2263.000000	0.271933
2264.000000	0.270130
2265.000000	0.269662
2266.000000	0.270457
2267.000000	0.270531
2268.000000	0.270944
2269.000000	0.271289
2270.000000	0.271399
2271.000000	0.271579
2272.000000	0.271995
2273.000000	0.271593
2274.000000	0.269822
2275.000000	0.269615
2276.000000	0.270156
2277.000000	0.270392
2278.000000	0.269589
2279.000000	0.270480
2280.000000	0.270605
2281.000000	0.269932
2282.000000	0.271730
2283.000000	0.272845
2284.000000	0.271787
2285.000000	0.271612
2286.000000	0.271760
2287.000000	0.271243
2288.000000	0.272415
2289.000000	0.272959
2290.000000	0.271336
2291.000000	0.270687
2292.000000	0.269683
2293.000000	0.267983
2294.000000	0.267131
2295.000000	0.266547
2296.000000	0.266362
2297.000000	0.267024
2298.000000	0.267783
2299.000000	0.269698
2300.000000	0.270226
2301.000000	0.270002
2302.000000	0.269099
2303.000000	0.266550
2304.000000	0.265373
2305.000000	0.264012
2306.000000	0.264015
2307.000000	0.264597
2308.000000	0.267219
2309.000000	0.269683
2310.000000	0.270473
2311.000000	0.270956
2312.000000	0.270406
2313.000000	0.269029
2314.000000	0.268014
2315.000000	0.266661
2316.000000	0.265470
2317.000000	0.265323
2318.000000	0.265915
2319.000000	0.267618
2320.000000	0.268925
2321.000000	0.269612
2322.000000	0.270476
2323.000000	0.270687
2324.000000	0.271076
2325.000000	0.271459
2326.000000	0.270906
2327.000000	0.270582
2328.000000	0.270110
2329.000000	0.269251
2330.000000	0.269182
2331.000000	0.270529
2332.000000	0.271357
2333.000000	0.271981
2334.000000	0.273604
2335.000000	0.273768
2336.000000	0.271598
2337.000000	0.270999
2338.000000	0.269541
2339.000000	0.269095
2340.000000	0.269834
2341.000000	0.270192
2342.000000	0.271353
2343.000000	0.272128
2344.000000	0.272755
2345.000000	0.273898
2346.000000	0.275449
2347.000000	0.275776
2348.000000	0.276138
2349.000000	0.275303
2350.000000	0.273663
2351.000000	0.272505
2352.000000	0.271731
2353.000000	0.269818
2354.000000	0.266897
2355.000000	0.266255
2356.000000	0.265821
2357.000000	0.266648
2358.000000	0.268881
2359.000000	0.269273
2360.000000	0.269875
2361.000000	0.270468
2362.000000	0.270525
2363.000000	0.271699
2364.000000	0.273170
2365.000000	0.274563
2366.000000	0.275121
2367.000000	0.274896
2368.000000	0.275547
2369.000000	0.275045
2370.000000	0.272303
2371.000000	0.269920
2372.000000	0.267213
2373.000000	0.264913
2374.000000	0.266168
2375.000000	0.268272
2376.000000	0.269437
2377.000000	0.270506
2378.000000	0.270414
2379.000000	0.270381
2380.000000	0.270047
2381.000000	0.268854
2382.000000	0.264464
2383.000000	0.261092
2384.000000	0.261348
2385.000000	0.260446
2386.000000	0.263172
2387.000000	0.263474
2388.000000	0.262489
2389.000000	0.263772
2390.000000	0.262629
2391.000000	0.263885
2392.000000	0.263962
2393.000000	0.264883
2394.000000	0.267095
2395.000000	0.270108
2396.000000	0.273695
2397.000000	0.273068
2398.000000	0.273475
2399.000000	0.272050
2400.000000	0.268043
2401.000000	0.268793
2402.000000	0.269070
2403.000000	0.268252
2404.000000	0.267104
2405.000000	0.260764
2406.000000	0.257120
2407.000000	0.254276
2408.000000	0.254214
2409.000000	0.261480
2410.000000	0.263758
2411.000000	0.267194
2412.000000	0.272509
2413.000000	0.275036
2414.000000	0.279534
2415.000000	0.277156
2416.000000	0.273920
2417.000000	0.272426
2418.000000	0.266042
2419.000000	0.264506
2420.000000	0.261770
2421.000000	0.252385
2422.000000	0.248617
2423.000000	0.252266
2424.000000	0.254891
2425.000000	0.257885
2426.000000	0.265473
2427.000000	0.263973
2428.000000	0.260561
2429.000000	0.262331
2430.000000	0.259836
2431.000000	0.256969
2432.000000	0.253042
2433.000000	0.253091
2434.000000	0.254007
2435.000000	0.254400
2436.000000	0.258693
2437.000000	0.256426
2438.000000	0.249421
2439.000000	0.240740
2440.000000	0.233756
2441.000000	0.238301
2442.000000	0.247705
2443.000000	0.259838
2444.000000	0.270942
2445.000000	0.265162
2446.000000	0.259009
2447.000000	0.251818
2448.000000	0.244207
2449.000000	0.249435
2450.000000	0.252801
2451.000000	0.264829
2452.000000	0.275110
2453.000000	0.265240
2454.000000	0.257063
2455.000000	0.244171
2456.000000	0.223523
2457.000000	0.221914
2458.000000	0.226761
2459.000000	0.226165
2460.000000	0.232788
2461.000000	0.236196
2462.000000	0.233418
2463.000000	0.229446
2464.000000	0.219297
2465.000000	0.212916
2466.000000	0.215470
2467.000000	0.215825
2468.000000	0.226986
2469.000000	0.237414
2470.000000	0.233942
2471.000000	0.237486
2472.000000	0.229984
2473.000000	0.211466
2474.000000	0.203878
2475.000000	0.201306
2476.000000	0.204696
2477.000000	0.222178
2478.000000	0.235254
2479.000000	0.236167
2480.000000	0.235197
2481.000000	0.222051
2482.000000	0.218823
2483.000000	0.225596
2484.000000	0.213332
2485.000000	0.220020
2486.000000	0.230602
2487.000000	0.232632
2488.000000	0.260628
2489.000000	0.279841
2490.000000	0.285032
2491.000000	0.284418
2492.000000	0.280487
2493.000000	0.277371
2494.000000	0.284586
2495.000000	0.300985
2496.000000	0.297007
2497.000000	0.283645
2498.000000	0.269994
2499.000000	0.231683
2500.000000	0.214537
