# Wavelength	SM1200H-20_HEX-40_FV7-40_00001.asd.rts.txt
350.000000	0.241015
351.000000	0.231878
352.000000	0.242054
353.000000	0.254968
354.000000	0.262128
355.000000	0.262721
356.000000	0.257394
357.000000	0.250518
358.000000	0.245713
359.000000	0.244809
360.000000	0.246828
361.000000	0.249235
362.000000	0.248562
363.000000	0.246419
364.000000	0.243377
365.000000	0.237182
366.000000	0.234285
367.000000	0.237401
368.000000	0.247356
369.000000	0.251660
370.000000	0.251167
371.000000	0.250493
372.000000	0.248567
373.000000	0.244577
374.000000	0.241499
375.000000	0.253003
376.000000	0.256716
377.000000	0.251092
378.000000	0.254342
379.000000	0.253476
380.000000	0.248769
381.000000	0.245554
382.000000	0.247844
383.000000	0.250961
384.000000	0.252055
385.000000	0.255261
386.000000	0.257796
387.000000	0.258317
388.000000	0.255990
389.000000	0.256954
390.000000	0.258985
391.000000	0.257229
392.000000	0.258335
393.000000	0.259225
394.000000	0.257678
395.000000	0.258485
396.000000	0.259705
397.000000	0.260300
398.000000	0.260494
399.000000	0.260973
400.000000	0.261686
401.000000	0.262055
402.000000	0.260849
403.000000	0.260107
404.000000	0.261387
405.000000	0.261128
406.000000	0.261693
407.000000	0.263654
408.000000	0.264218
409.000000	0.264439
410.000000	0.264549
411.000000	0.264391
412.000000	0.264457
413.000000	0.264900
414.000000	0.265578
415.000000	0.264946
416.000000	0.264919
417.000000	0.266298
418.000000	0.267077
419.000000	0.267699
420.000000	0.268103
421.000000	0.267803
422.000000	0.267674
423.000000	0.267795
424.000000	0.268079
425.000000	0.268592
426.000000	0.269081
427.000000	0.269395
428.000000	0.269949
429.000000	0.270042
430.000000	0.269784
431.000000	0.270408
432.000000	0.270847
433.000000	0.271020
434.000000	0.271353
435.000000	0.271455
436.000000	0.271402
437.000000	0.271389
438.000000	0.271882
439.000000	0.272178
440.000000	0.272172
441.000000	0.272622
442.000000	0.273262
443.000000	0.273664
444.000000	0.273402
445.000000	0.273650
446.000000	0.274053
447.000000	0.273805
448.000000	0.274014
449.000000	0.274456
450.000000	0.274823
451.000000	0.274852
452.000000	0.275077
453.000000	0.275550
454.000000	0.276048
455.000000	0.276305
456.000000	0.276501
457.000000	0.276805
458.000000	0.277021
459.000000	0.277373
460.000000	0.277989
461.000000	0.277994
462.000000	0.277979
463.000000	0.278182
464.000000	0.278837
465.000000	0.279038
466.000000	0.278932
467.000000	0.279509
468.000000	0.279886
469.000000	0.279918
470.000000	0.279885
471.000000	0.280068
472.000000	0.280371
473.000000	0.280674
474.000000	0.280773
475.000000	0.280749
476.000000	0.280876
477.000000	0.281311
478.000000	0.281300
479.000000	0.281337
480.000000	0.281966
481.000000	0.282312
482.000000	0.282630
483.000000	0.282980
484.000000	0.283084
485.000000	0.283278
486.000000	0.283739
487.000000	0.283613
488.000000	0.283744
489.000000	0.284221
490.000000	0.284630
491.000000	0.284871
492.000000	0.285108
493.000000	0.285394
494.000000	0.285537
495.000000	0.285777
496.000000	0.286171
497.000000	0.286343
498.000000	0.286557
499.000000	0.286955
500.000000	0.287353
501.000000	0.287555
502.000000	0.287679
503.000000	0.287893
504.000000	0.288159
505.000000	0.288479
506.000000	0.288812
507.000000	0.288873
508.000000	0.289062
509.000000	0.289503
510.000000	0.289912
511.000000	0.290106
512.000000	0.290233
513.000000	0.290673
514.000000	0.291047
515.000000	0.291432
516.000000	0.291925
517.000000	0.292173
518.000000	0.292428
519.000000	0.292791
520.000000	0.293047
521.000000	0.293291
522.000000	0.293588
523.000000	0.293965
524.000000	0.294249
525.000000	0.294486
526.000000	0.294888
527.000000	0.295101
528.000000	0.295267
529.000000	0.295631
530.000000	0.295882
531.000000	0.296100
532.000000	0.296304
533.000000	0.296688
534.000000	0.297033
535.000000	0.297260
536.000000	0.297459
537.000000	0.297694
538.000000	0.297983
539.000000	0.298295
540.000000	0.298560
541.000000	0.298794
542.000000	0.299064
543.000000	0.299340
544.000000	0.299619
545.000000	0.299847
546.000000	0.300136
547.000000	0.300464
548.000000	0.300801
549.000000	0.300996
550.000000	0.301260
551.000000	0.301621
552.000000	0.301975
553.000000	0.302200
554.000000	0.302470
555.000000	0.302890
556.000000	0.303253
557.000000	0.303536
558.000000	0.303867
559.000000	0.304178
560.000000	0.304474
561.000000	0.304840
562.000000	0.305223
563.000000	0.305471
564.000000	0.305763
565.000000	0.306159
566.000000	0.306471
567.000000	0.306782
568.000000	0.307109
569.000000	0.307370
570.000000	0.307682
571.000000	0.308040
572.000000	0.308353
573.000000	0.308661
574.000000	0.308938
575.000000	0.309212
576.000000	0.309580
577.000000	0.309909
578.000000	0.310166
579.000000	0.310464
580.000000	0.310776
581.000000	0.311083
582.000000	0.311403
583.000000	0.311700
584.000000	0.311987
585.000000	0.312302
586.000000	0.312578
587.000000	0.312815
588.000000	0.313037
589.000000	0.313287
590.000000	0.313532
591.000000	0.313764
592.000000	0.314050
593.000000	0.314337
594.000000	0.314602
595.000000	0.314866
596.000000	0.315031
597.000000	0.315188
598.000000	0.315392
599.000000	0.315589
600.000000	0.315861
601.000000	0.316164
602.000000	0.316342
603.000000	0.316488
604.000000	0.316671
605.000000	0.316872
606.000000	0.317074
607.000000	0.317261
608.000000	0.317421
609.000000	0.317643
610.000000	0.317912
611.000000	0.318163
612.000000	0.318283
613.000000	0.318351
614.000000	0.318463
615.000000	0.318516
616.000000	0.318654
617.000000	0.318841
618.000000	0.318971
619.000000	0.319171
620.000000	0.319344
621.000000	0.319397
622.000000	0.319563
623.000000	0.319719
624.000000	0.319763
625.000000	0.319888
626.000000	0.320037
627.000000	0.320163
628.000000	0.320218
629.000000	0.320417
630.000000	0.320611
631.000000	0.320763
632.000000	0.320902
633.000000	0.321101
634.000000	0.321374
635.000000	0.321503
636.000000	0.321687
637.000000	0.321979
638.000000	0.322155
639.000000	0.322314
640.000000	0.322514
641.000000	0.322610
642.000000	0.322827
643.000000	0.323065
644.000000	0.323151
645.000000	0.323228
646.000000	0.323322
647.000000	0.323423
648.000000	0.323612
649.000000	0.323802
650.000000	0.323930
651.000000	0.324019
652.000000	0.324095
653.000000	0.324193
654.000000	0.324267
655.000000	0.324476
656.000000	0.324794
657.000000	0.325082
658.000000	0.325244
659.000000	0.325332
660.000000	0.325398
661.000000	0.325546
662.000000	0.325713
663.000000	0.325908
664.000000	0.326061
665.000000	0.326211
666.000000	0.326364
667.000000	0.326495
668.000000	0.326702
669.000000	0.326838
670.000000	0.326876
671.000000	0.327069
672.000000	0.327299
673.000000	0.327500
674.000000	0.327651
675.000000	0.327837
676.000000	0.327998
677.000000	0.328078
678.000000	0.328229
679.000000	0.328399
680.000000	0.328543
681.000000	0.328620
682.000000	0.328801
683.000000	0.329003
684.000000	0.329136
685.000000	0.329256
686.000000	0.329386
687.000000	0.329494
688.000000	0.329679
689.000000	0.329881
690.000000	0.330079
691.000000	0.330300
692.000000	0.330472
693.000000	0.330646
694.000000	0.330817
695.000000	0.330991
696.000000	0.331153
697.000000	0.331287
698.000000	0.331459
699.000000	0.331632
700.000000	0.331775
701.000000	0.331865
702.000000	0.332032
703.000000	0.332263
704.000000	0.332405
705.000000	0.332519
706.000000	0.332652
707.000000	0.332941
708.000000	0.333159
709.000000	0.333281
710.000000	0.333364
711.000000	0.333504
712.000000	0.333677
713.000000	0.333862
714.000000	0.333970
715.000000	0.334077
716.000000	0.334249
717.000000	0.334508
718.000000	0.334674
719.000000	0.334804
720.000000	0.334966
721.000000	0.335021
722.000000	0.335083
723.000000	0.335248
724.000000	0.335377
725.000000	0.335443
726.000000	0.335578
727.000000	0.335785
728.000000	0.335847
729.000000	0.335910
730.000000	0.336050
731.000000	0.336181
732.000000	0.336307
733.000000	0.336452
734.000000	0.336540
735.000000	0.336587
736.000000	0.336695
737.000000	0.336728
738.000000	0.336808
739.000000	0.336931
740.000000	0.336920
741.000000	0.337014
742.000000	0.337143
743.000000	0.337229
744.000000	0.337265
745.000000	0.337339
746.000000	0.337449
747.000000	0.337481
748.000000	0.337698
749.000000	0.337944
750.000000	0.338068
751.000000	0.338204
752.000000	0.338272
753.000000	0.338308
754.000000	0.338423
755.000000	0.338459
756.000000	0.338473
757.000000	0.338513
758.000000	0.338593
759.000000	0.338738
760.000000	0.338861
761.000000	0.338933
762.000000	0.339012
763.000000	0.339078
764.000000	0.339152
765.000000	0.339197
766.000000	0.339287
767.000000	0.339450
768.000000	0.339475
769.000000	0.339466
770.000000	0.339496
771.000000	0.339573
772.000000	0.339679
773.000000	0.339722
774.000000	0.339732
775.000000	0.339679
776.000000	0.339659
777.000000	0.339723
778.000000	0.339832
779.000000	0.339967
780.000000	0.340103
781.000000	0.340187
782.000000	0.340266
783.000000	0.340366
784.000000	0.340333
785.000000	0.340369
786.000000	0.340403
787.000000	0.340411
788.000000	0.340542
789.000000	0.340621
790.000000	0.340658
791.000000	0.340794
792.000000	0.340818
793.000000	0.340735
794.000000	0.340632
795.000000	0.340733
796.000000	0.340839
797.000000	0.340856
798.000000	0.340805
799.000000	0.340735
800.000000	0.340736
801.000000	0.340862
802.000000	0.340875
803.000000	0.340864
804.000000	0.340904
805.000000	0.340833
806.000000	0.340829
807.000000	0.340992
808.000000	0.341195
809.000000	0.341218
810.000000	0.341167
811.000000	0.341141
812.000000	0.341089
813.000000	0.341027
814.000000	0.340950
815.000000	0.340861
816.000000	0.340787
817.000000	0.340761
818.000000	0.340734
819.000000	0.340860
820.000000	0.340965
821.000000	0.340950
822.000000	0.341010
823.000000	0.341038
824.000000	0.340998
825.000000	0.341021
826.000000	0.341137
827.000000	0.341157
828.000000	0.341046
829.000000	0.340950
830.000000	0.340867
831.000000	0.340874
832.000000	0.340879
833.000000	0.340738
834.000000	0.340543
835.000000	0.340452
836.000000	0.340534
837.000000	0.340608
838.000000	0.340623
839.000000	0.340587
840.000000	0.340583
841.000000	0.340582
842.000000	0.340515
843.000000	0.340507
844.000000	0.340485
845.000000	0.340414
846.000000	0.340391
847.000000	0.340440
848.000000	0.340378
849.000000	0.340122
850.000000	0.340142
851.000000	0.340159
852.000000	0.340154
853.000000	0.340404
854.000000	0.340350
855.000000	0.340226
856.000000	0.340231
857.000000	0.340029
858.000000	0.339917
859.000000	0.339892
860.000000	0.339660
861.000000	0.339551
862.000000	0.339548
863.000000	0.339429
864.000000	0.339260
865.000000	0.339125
866.000000	0.339086
867.000000	0.339067
868.000000	0.339075
869.000000	0.338970
870.000000	0.338728
871.000000	0.338588
872.000000	0.338461
873.000000	0.338254
874.000000	0.338174
875.000000	0.338113
876.000000	0.338024
877.000000	0.337818
878.000000	0.337597
879.000000	0.337481
880.000000	0.337327
881.000000	0.337030
882.000000	0.336795
883.000000	0.336667
884.000000	0.336542
885.000000	0.336445
886.000000	0.336355
887.000000	0.336256
888.000000	0.336040
889.000000	0.335804
890.000000	0.335545
891.000000	0.335459
892.000000	0.335393
893.000000	0.335266
894.000000	0.335185
895.000000	0.335118
896.000000	0.334966
897.000000	0.334727
898.000000	0.334442
899.000000	0.334114
900.000000	0.333902
901.000000	0.333767
902.000000	0.333531
903.000000	0.333511
904.000000	0.333500
905.000000	0.333164
906.000000	0.333057
907.000000	0.332985
908.000000	0.332826
909.000000	0.332386
910.000000	0.332257
911.000000	0.332242
912.000000	0.332086
913.000000	0.331995
914.000000	0.331797
915.000000	0.331541
916.000000	0.331271
917.000000	0.331057
918.000000	0.330902
919.000000	0.330739
920.000000	0.330464
921.000000	0.330112
922.000000	0.329825
923.000000	0.329732
924.000000	0.329620
925.000000	0.329467
926.000000	0.329276
927.000000	0.328916
928.000000	0.328645
929.000000	0.328354
930.000000	0.327903
931.000000	0.327664
932.000000	0.327452
933.000000	0.327169
934.000000	0.326737
935.000000	0.326435
936.000000	0.326329
937.000000	0.326238
938.000000	0.325876
939.000000	0.325671
940.000000	0.325589
941.000000	0.325493
942.000000	0.325495
943.000000	0.325297
944.000000	0.324749
945.000000	0.324520
946.000000	0.324275
947.000000	0.324018
948.000000	0.323777
949.000000	0.323636
950.000000	0.323506
951.000000	0.323277
952.000000	0.322970
953.000000	0.322612
954.000000	0.322397
955.000000	0.322279
956.000000	0.321842
957.000000	0.321511
958.000000	0.321308
959.000000	0.321190
960.000000	0.320921
961.000000	0.320427
962.000000	0.319931
963.000000	0.320016
964.000000	0.319792
965.000000	0.319501
966.000000	0.319339
967.000000	0.319173
968.000000	0.318904
969.000000	0.318659
970.000000	0.318734
971.000000	0.318649
972.000000	0.318381
973.000000	0.318026
974.000000	0.317964
975.000000	0.317713
976.000000	0.317337
977.000000	0.316979
978.000000	0.316664
979.000000	0.316567
980.000000	0.316398
981.000000	0.316201
982.000000	0.315969
983.000000	0.315578
984.000000	0.315202
985.000000	0.315134
986.000000	0.315064
987.000000	0.315016
988.000000	0.314850
989.000000	0.314330
990.000000	0.314177
991.000000	0.314276
992.000000	0.314318
993.000000	0.314460
994.000000	0.314220
995.000000	0.313878
996.000000	0.313810
997.000000	0.313715
998.000000	0.313559
999.000000	0.313476
1000.000000	0.313515
1001.000000	0.313329
1002.000000	0.313671
1003.000000	0.313549
1004.000000	0.313366
1005.000000	0.312601
1006.000000	0.312319
1007.000000	0.312210
1008.000000	0.312176
1009.000000	0.312214
1010.000000	0.311998
1011.000000	0.312030
1012.000000	0.312148
1013.000000	0.311936
1014.000000	0.311290
1015.000000	0.310441
1016.000000	0.310525
1017.000000	0.310999
1018.000000	0.311694
1019.000000	0.312055
1020.000000	0.312572
1021.000000	0.312248
1022.000000	0.311375
1023.000000	0.311285
1024.000000	0.311090
1025.000000	0.311150
1026.000000	0.311366
1027.000000	0.311345
1028.000000	0.311201
1029.000000	0.311015
1030.000000	0.311122
1031.000000	0.311427
1032.000000	0.311584
1033.000000	0.311844
1034.000000	0.311707
1035.000000	0.311121
1036.000000	0.310815
1037.000000	0.310166
1038.000000	0.309928
1039.000000	0.310049
1040.000000	0.310484
1041.000000	0.310846
1042.000000	0.311347
1043.000000	0.311638
1044.000000	0.311599
1045.000000	0.311335
1046.000000	0.310814
1047.000000	0.310762
1048.000000	0.310828
1049.000000	0.310924
1050.000000	0.311344
1051.000000	0.311574
1052.000000	0.311390
1053.000000	0.311602
1054.000000	0.312559
1055.000000	0.312917
1056.000000	0.313062
1057.000000	0.313522
1058.000000	0.313479
1059.000000	0.313185
1060.000000	0.313525
1061.000000	0.313760
1062.000000	0.313944
1063.000000	0.314058
1064.000000	0.314376
1065.000000	0.315017
1066.000000	0.315059
1067.000000	0.314765
1068.000000	0.314679
1069.000000	0.313921
1070.000000	0.313855
1071.000000	0.314791
1072.000000	0.315090
1073.000000	0.315255
1074.000000	0.315507
1075.000000	0.315737
1076.000000	0.315463
1077.000000	0.315508
1078.000000	0.315896
1079.000000	0.316119
1080.000000	0.316379
1081.000000	0.316538
1082.000000	0.316707
1083.000000	0.316867
1084.000000	0.316893
1085.000000	0.317179
1086.000000	0.317841
1087.000000	0.318143
1088.000000	0.318083
1089.000000	0.318284
1090.000000	0.318432
1091.000000	0.318550
1092.000000	0.318781
1093.000000	0.319199
1094.000000	0.319557
1095.000000	0.319732
1096.000000	0.319963
1097.000000	0.320415
1098.000000	0.320672
1099.000000	0.320639
1100.000000	0.320819
1101.000000	0.320975
1102.000000	0.321194
1103.000000	0.321513
1104.000000	0.321737
1105.000000	0.321898
1106.000000	0.322163
1107.000000	0.322393
1108.000000	0.322586
1109.000000	0.322909
1110.000000	0.323226
1111.000000	0.323490
1112.000000	0.323792
1113.000000	0.323787
1114.000000	0.323571
1115.000000	0.323575
1116.000000	0.323318
1117.000000	0.323419
1118.000000	0.323900
1119.000000	0.324156
1120.000000	0.324727
1121.000000	0.324692
1122.000000	0.324048
1123.000000	0.324176
1124.000000	0.323999
1125.000000	0.324089
1126.000000	0.324844
1127.000000	0.325286
1128.000000	0.325613
1129.000000	0.325916
1130.000000	0.325897
1131.000000	0.325541
1132.000000	0.325581
1133.000000	0.325626
1134.000000	0.325657
1135.000000	0.325903
1136.000000	0.326007
1137.000000	0.325895
1138.000000	0.325830
1139.000000	0.325996
1140.000000	0.326074
1141.000000	0.325898
1142.000000	0.325886
1143.000000	0.325791
1144.000000	0.325969
1145.000000	0.326281
1146.000000	0.326428
1147.000000	0.326426
1148.000000	0.326226
1149.000000	0.326289
1150.000000	0.326330
1151.000000	0.326338
1152.000000	0.326476
1153.000000	0.326555
1154.000000	0.326325
1155.000000	0.326364
1156.000000	0.326759
1157.000000	0.326853
1158.000000	0.326777
1159.000000	0.326761
1160.000000	0.326573
1161.000000	0.326496
1162.000000	0.326548
1163.000000	0.326771
1164.000000	0.326845
1165.000000	0.326830
1166.000000	0.326928
1167.000000	0.326998
1168.000000	0.326994
1169.000000	0.327075
1170.000000	0.327090
1171.000000	0.327006
1172.000000	0.327039
1173.000000	0.327065
1174.000000	0.327116
1175.000000	0.327235
1176.000000	0.327209
1177.000000	0.327242
1178.000000	0.327242
1179.000000	0.327035
1180.000000	0.326945
1181.000000	0.327116
1182.000000	0.327048
1183.000000	0.327112
1184.000000	0.327339
1185.000000	0.327296
1186.000000	0.327089
1187.000000	0.327049
1188.000000	0.326941
1189.000000	0.326862
1190.000000	0.326915
1191.000000	0.326971
1192.000000	0.327157
1193.000000	0.327299
1194.000000	0.327415
1195.000000	0.327442
1196.000000	0.327214
1197.000000	0.327109
1198.000000	0.327038
1199.000000	0.327012
1200.000000	0.327032
1201.000000	0.327076
1202.000000	0.326997
1203.000000	0.326979
1204.000000	0.326938
1205.000000	0.326885
1206.000000	0.326797
1207.000000	0.326807
1208.000000	0.326760
1209.000000	0.326706
1210.000000	0.326705
1211.000000	0.326801
1212.000000	0.326803
1213.000000	0.326766
1214.000000	0.326790
1215.000000	0.326774
1216.000000	0.326797
1217.000000	0.326954
1218.000000	0.326941
1219.000000	0.326845
1220.000000	0.326777
1221.000000	0.326762
1222.000000	0.326637
1223.000000	0.326597
1224.000000	0.326633
1225.000000	0.326622
1226.000000	0.326581
1227.000000	0.326602
1228.000000	0.326713
1229.000000	0.326686
1230.000000	0.326543
1231.000000	0.326464
1232.000000	0.326503
1233.000000	0.326566
1234.000000	0.326665
1235.000000	0.326692
1236.000000	0.326543
1237.000000	0.326533
1238.000000	0.326538
1239.000000	0.326515
1240.000000	0.326498
1241.000000	0.326538
1242.000000	0.326575
1243.000000	0.326628
1244.000000	0.326820
1245.000000	0.326992
1246.000000	0.326798
1247.000000	0.326700
1248.000000	0.326687
1249.000000	0.326642
1250.000000	0.326820
1251.000000	0.326926
1252.000000	0.326880
1253.000000	0.326644
1254.000000	0.326571
1255.000000	0.326465
1256.000000	0.326442
1257.000000	0.326633
1258.000000	0.326665
1259.000000	0.326493
1260.000000	0.326479
1261.000000	0.326439
1262.000000	0.326377
1263.000000	0.326332
1264.000000	0.326423
1265.000000	0.326431
1266.000000	0.326255
1267.000000	0.326306
1268.000000	0.326379
1269.000000	0.326269
1270.000000	0.326313
1271.000000	0.326274
1272.000000	0.326230
1273.000000	0.326451
1274.000000	0.326594
1275.000000	0.326577
1276.000000	0.326465
1277.000000	0.326542
1278.000000	0.326465
1279.000000	0.326448
1280.000000	0.326560
1281.000000	0.326490
1282.000000	0.326290
1283.000000	0.326298
1284.000000	0.326287
1285.000000	0.326343
1286.000000	0.326502
1287.000000	0.326549
1288.000000	0.326652
1289.000000	0.326611
1290.000000	0.326446
1291.000000	0.326408
1292.000000	0.326399
1293.000000	0.326427
1294.000000	0.326489
1295.000000	0.326430
1296.000000	0.326262
1297.000000	0.326270
1298.000000	0.326284
1299.000000	0.326234
1300.000000	0.326338
1301.000000	0.326186
1302.000000	0.326026
1303.000000	0.325918
1304.000000	0.325873
1305.000000	0.325935
1306.000000	0.325919
1307.000000	0.326023
1308.000000	0.326012
1309.000000	0.325829
1310.000000	0.325725
1311.000000	0.325698
1312.000000	0.325514
1313.000000	0.325376
1314.000000	0.325457
1315.000000	0.325470
1316.000000	0.325444
1317.000000	0.325468
1318.000000	0.325368
1319.000000	0.325112
1320.000000	0.325035
1321.000000	0.325030
1322.000000	0.324931
1323.000000	0.324907
1324.000000	0.324838
1325.000000	0.324570
1326.000000	0.324411
1327.000000	0.324395
1328.000000	0.324401
1329.000000	0.324317
1330.000000	0.324280
1331.000000	0.324209
1332.000000	0.324129
1333.000000	0.324008
1334.000000	0.323923
1335.000000	0.323876
1336.000000	0.323792
1337.000000	0.323675
1338.000000	0.323533
1339.000000	0.323410
1340.000000	0.323289
1341.000000	0.323104
1342.000000	0.322959
1343.000000	0.322818
1344.000000	0.322587
1345.000000	0.322324
1346.000000	0.322179
1347.000000	0.322019
1348.000000	0.321882
1349.000000	0.321710
1350.000000	0.321533
1351.000000	0.321312
1352.000000	0.321130
1353.000000	0.320951
1354.000000	0.320843
1355.000000	0.320760
1356.000000	0.320567
1357.000000	0.320355
1358.000000	0.320271
1359.000000	0.320166
1360.000000	0.320120
1361.000000	0.320353
1362.000000	0.320237
1363.000000	0.319891
1364.000000	0.319722
1365.000000	0.319387
1366.000000	0.319256
1367.000000	0.319316
1368.000000	0.319280
1369.000000	0.319300
1370.000000	0.319134
1371.000000	0.318859
1372.000000	0.318564
1373.000000	0.318202
1374.000000	0.317905
1375.000000	0.317594
1376.000000	0.317436
1377.000000	0.317227
1378.000000	0.316741
1379.000000	0.316230
1380.000000	0.315565
1381.000000	0.314709
1382.000000	0.313947
1383.000000	0.312960
1384.000000	0.311832
1385.000000	0.311024
1386.000000	0.310291
1387.000000	0.309563
1388.000000	0.308959
1389.000000	0.308356
1390.000000	0.307819
1391.000000	0.307407
1392.000000	0.307216
1393.000000	0.307071
1394.000000	0.307080
1395.000000	0.306997
1396.000000	0.307029
1397.000000	0.306871
1398.000000	0.306537
1399.000000	0.306306
1400.000000	0.306190
1401.000000	0.305757
1402.000000	0.305234
1403.000000	0.304592
1404.000000	0.304016
1405.000000	0.303278
1406.000000	0.302755
1407.000000	0.302291
1408.000000	0.301507
1409.000000	0.300982
1410.000000	0.300488
1411.000000	0.299876
1412.000000	0.299398
1413.000000	0.298755
1414.000000	0.298055
1415.000000	0.297530
1416.000000	0.296954
1417.000000	0.296384
1418.000000	0.295918
1419.000000	0.295430
1420.000000	0.294948
1421.000000	0.294634
1422.000000	0.294214
1423.000000	0.293864
1424.000000	0.293430
1425.000000	0.292951
1426.000000	0.292545
1427.000000	0.292113
1428.000000	0.291736
1429.000000	0.291393
1430.000000	0.290953
1431.000000	0.290527
1432.000000	0.290119
1433.000000	0.289702
1434.000000	0.289291
1435.000000	0.288989
1436.000000	0.288709
1437.000000	0.288429
1438.000000	0.288092
1439.000000	0.287831
1440.000000	0.287570
1441.000000	0.287285
1442.000000	0.287036
1443.000000	0.286781
1444.000000	0.286459
1445.000000	0.286323
1446.000000	0.286074
1447.000000	0.285732
1448.000000	0.285524
1449.000000	0.285155
1450.000000	0.284814
1451.000000	0.284666
1452.000000	0.284425
1453.000000	0.284118
1454.000000	0.283794
1455.000000	0.283541
1456.000000	0.283437
1457.000000	0.283433
1458.000000	0.283455
1459.000000	0.283388
1460.000000	0.283321
1461.000000	0.283250
1462.000000	0.283066
1463.000000	0.282900
1464.000000	0.282846
1465.000000	0.282817
1466.000000	0.282735
1467.000000	0.282695
1468.000000	0.282709
1469.000000	0.282749
1470.000000	0.282772
1471.000000	0.282833
1472.000000	0.282861
1473.000000	0.282942
1474.000000	0.283113
1475.000000	0.283398
1476.000000	0.283672
1477.000000	0.283917
1478.000000	0.284102
1479.000000	0.284207
1480.000000	0.284379
1481.000000	0.284582
1482.000000	0.284907
1483.000000	0.285113
1484.000000	0.285279
1485.000000	0.285511
1486.000000	0.285632
1487.000000	0.285895
1488.000000	0.286371
1489.000000	0.286707
1490.000000	0.286941
1491.000000	0.287180
1492.000000	0.287264
1493.000000	0.287508
1494.000000	0.287783
1495.000000	0.288026
1496.000000	0.288331
1497.000000	0.288608
1498.000000	0.288908
1499.000000	0.289087
1500.000000	0.289236
1501.000000	0.289372
1502.000000	0.289325
1503.000000	0.289459
1504.000000	0.289634
1505.000000	0.289809
1506.000000	0.290243
1507.000000	0.290414
1508.000000	0.290462
1509.000000	0.290693
1510.000000	0.290726
1511.000000	0.290775
1512.000000	0.291069
1513.000000	0.291271
1514.000000	0.291470
1515.000000	0.291727
1516.000000	0.291900
1517.000000	0.292005
1518.000000	0.292107
1519.000000	0.292200
1520.000000	0.292291
1521.000000	0.292299
1522.000000	0.292360
1523.000000	0.292434
1524.000000	0.292483
1525.000000	0.292673
1526.000000	0.292784
1527.000000	0.292896
1528.000000	0.293089
1529.000000	0.293093
1530.000000	0.293020
1531.000000	0.293064
1532.000000	0.293066
1533.000000	0.293075
1534.000000	0.293181
1535.000000	0.293263
1536.000000	0.293210
1537.000000	0.293238
1538.000000	0.293316
1539.000000	0.293263
1540.000000	0.293367
1541.000000	0.293609
1542.000000	0.293794
1543.000000	0.294004
1544.000000	0.294037
1545.000000	0.294038
1546.000000	0.294089
1547.000000	0.294066
1548.000000	0.294174
1549.000000	0.294247
1550.000000	0.294218
1551.000000	0.294275
1552.000000	0.294309
1553.000000	0.294389
1554.000000	0.294592
1555.000000	0.294677
1556.000000	0.294622
1557.000000	0.294584
1558.000000	0.294580
1559.000000	0.294416
1560.000000	0.294432
1561.000000	0.294662
1562.000000	0.294668
1563.000000	0.294696
1564.000000	0.294667
1565.000000	0.294476
1566.000000	0.294418
1567.000000	0.294490
1568.000000	0.294479
1569.000000	0.294575
1570.000000	0.294609
1571.000000	0.294560
1572.000000	0.294556
1573.000000	0.294603
1574.000000	0.294579
1575.000000	0.294484
1576.000000	0.294528
1577.000000	0.294653
1578.000000	0.294671
1579.000000	0.294761
1580.000000	0.294780
1581.000000	0.294713
1582.000000	0.294694
1583.000000	0.294729
1584.000000	0.294703
1585.000000	0.294696
1586.000000	0.294773
1587.000000	0.294931
1588.000000	0.294972
1589.000000	0.294999
1590.000000	0.294985
1591.000000	0.294875
1592.000000	0.294854
1593.000000	0.294893
1594.000000	0.294935
1595.000000	0.295086
1596.000000	0.295102
1597.000000	0.295071
1598.000000	0.295099
1599.000000	0.295150
1600.000000	0.295103
1601.000000	0.295129
1602.000000	0.295128
1603.000000	0.294985
1604.000000	0.295002
1605.000000	0.295244
1606.000000	0.295268
1607.000000	0.295283
1608.000000	0.295286
1609.000000	0.295195
1610.000000	0.295122
1611.000000	0.295112
1612.000000	0.295086
1613.000000	0.295106
1614.000000	0.295129
1615.000000	0.295232
1616.000000	0.295347
1617.000000	0.295399
1618.000000	0.295465
1619.000000	0.295611
1620.000000	0.295643
1621.000000	0.295593
1622.000000	0.295732
1623.000000	0.295856
1624.000000	0.295967
1625.000000	0.296080
1626.000000	0.296106
1627.000000	0.296004
1628.000000	0.296139
1629.000000	0.296429
1630.000000	0.296579
1631.000000	0.296732
1632.000000	0.296780
1633.000000	0.296680
1634.000000	0.296680
1635.000000	0.296712
1636.000000	0.296747
1637.000000	0.296845
1638.000000	0.296838
1639.000000	0.296826
1640.000000	0.296880
1641.000000	0.296974
1642.000000	0.297033
1643.000000	0.297157
1644.000000	0.297284
1645.000000	0.297413
1646.000000	0.297453
1647.000000	0.297504
1648.000000	0.297541
1649.000000	0.297556
1650.000000	0.297623
1651.000000	0.297825
1652.000000	0.298018
1653.000000	0.298135
1654.000000	0.298263
1655.000000	0.298370
1656.000000	0.298361
1657.000000	0.298306
1658.000000	0.298428
1659.000000	0.298724
1660.000000	0.298913
1661.000000	0.299078
1662.000000	0.299237
1663.000000	0.299239
1664.000000	0.299432
1665.000000	0.299778
1666.000000	0.300041
1667.000000	0.300283
1668.000000	0.300408
1669.000000	0.300416
1670.000000	0.300474
1671.000000	0.300587
1672.000000	0.300657
1673.000000	0.300724
1674.000000	0.300576
1675.000000	0.300604
1676.000000	0.300757
1677.000000	0.300764
1678.000000	0.300790
1679.000000	0.300799
1680.000000	0.300562
1681.000000	0.300484
1682.000000	0.300550
1683.000000	0.300593
1684.000000	0.300601
1685.000000	0.300593
1686.000000	0.300688
1687.000000	0.300770
1688.000000	0.300833
1689.000000	0.300988
1690.000000	0.301087
1691.000000	0.301090
1692.000000	0.300983
1693.000000	0.301080
1694.000000	0.301089
1695.000000	0.301076
1696.000000	0.301211
1697.000000	0.301264
1698.000000	0.301279
1699.000000	0.301379
1700.000000	0.301542
1701.000000	0.301776
1702.000000	0.301987
1703.000000	0.302003
1704.000000	0.301952
1705.000000	0.301977
1706.000000	0.301963
1707.000000	0.301968
1708.000000	0.302069
1709.000000	0.302027
1710.000000	0.301890
1711.000000	0.301909
1712.000000	0.302045
1713.000000	0.302092
1714.000000	0.302232
1715.000000	0.302300
1716.000000	0.302281
1717.000000	0.302280
1718.000000	0.302234
1719.000000	0.302204
1720.000000	0.302208
1721.000000	0.302225
1722.000000	0.302261
1723.000000	0.302319
1724.000000	0.302433
1725.000000	0.302519
1726.000000	0.302514
1727.000000	0.302587
1728.000000	0.302683
1729.000000	0.302589
1730.000000	0.302521
1731.000000	0.302536
1732.000000	0.302461
1733.000000	0.302542
1734.000000	0.302689
1735.000000	0.302778
1736.000000	0.302844
1737.000000	0.302803
1738.000000	0.302758
1739.000000	0.302664
1740.000000	0.302374
1741.000000	0.302333
1742.000000	0.302402
1743.000000	0.302514
1744.000000	0.302742
1745.000000	0.302820
1746.000000	0.302828
1747.000000	0.303037
1748.000000	0.303126
1749.000000	0.303354
1750.000000	0.303396
1751.000000	0.303316
1752.000000	0.303343
1753.000000	0.303068
1754.000000	0.303058
1755.000000	0.303205
1756.000000	0.303318
1757.000000	0.303691
1758.000000	0.303846
1759.000000	0.303707
1760.000000	0.303798
1761.000000	0.303985
1762.000000	0.303991
1763.000000	0.304084
1764.000000	0.304067
1765.000000	0.303696
1766.000000	0.303581
1767.000000	0.303529
1768.000000	0.303461
1769.000000	0.303594
1770.000000	0.303610
1771.000000	0.303523
1772.000000	0.303474
1773.000000	0.303275
1774.000000	0.303278
1775.000000	0.303469
1776.000000	0.303599
1777.000000	0.303791
1778.000000	0.303889
1779.000000	0.303917
1780.000000	0.303977
1781.000000	0.303981
1782.000000	0.304036
1783.000000	0.304125
1784.000000	0.304332
1785.000000	0.304455
1786.000000	0.304431
1787.000000	0.304592
1788.000000	0.304677
1789.000000	0.304633
1790.000000	0.304863
1791.000000	0.304873
1792.000000	0.304773
1793.000000	0.304745
1794.000000	0.304531
1795.000000	0.304604
1796.000000	0.305031
1797.000000	0.305230
1798.000000	0.305496
1799.000000	0.305627
1800.000000	0.305490
1801.000000	0.305018
1802.000000	0.305401
1803.000000	0.306194
1804.000000	0.306792
1805.000000	0.307946
1806.000000	0.308229
1807.000000	0.308008
1808.000000	0.308005
1809.000000	0.307771
1810.000000	0.307078
1811.000000	0.307049
1812.000000	0.307375
1813.000000	0.307446
1814.000000	0.307894
1815.000000	0.307982
1816.000000	0.307795
1817.000000	0.307575
1818.000000	0.307338
1819.000000	0.307095
1820.000000	0.306226
1821.000000	0.305523
1822.000000	0.305403
1823.000000	0.305098
1824.000000	0.305256
1825.000000	0.306654
1826.000000	0.307191
1827.000000	0.307463
1828.000000	0.307485
1829.000000	0.307323
1830.000000	0.306650
1831.000000	0.306381
1832.000000	0.306065
1833.000000	0.305892
1834.000000	0.305642
1835.000000	0.305856
1836.000000	0.306817
1837.000000	0.306929
1838.000000	0.306800
1839.000000	0.306750
1840.000000	0.306029
1841.000000	0.304599
1842.000000	0.303726
1843.000000	0.302598
1844.000000	0.302437
1845.000000	0.302911
1846.000000	0.303060
1847.000000	0.303780
1848.000000	0.303898
1849.000000	0.303675
1850.000000	0.303413
1851.000000	0.302983
1852.000000	0.302202
1853.000000	0.302045
1854.000000	0.301930
1855.000000	0.301484
1856.000000	0.301156
1857.000000	0.300859
1858.000000	0.299953
1859.000000	0.298893
1860.000000	0.298128
1861.000000	0.297478
1862.000000	0.296811
1863.000000	0.296181
1864.000000	0.295734
1865.000000	0.295556
1866.000000	0.295146
1867.000000	0.294828
1868.000000	0.293986
1869.000000	0.293436
1870.000000	0.292972
1871.000000	0.292426
1872.000000	0.291861
1873.000000	0.290909
1874.000000	0.289694
1875.000000	0.288242
1876.000000	0.286293
1877.000000	0.283920
1878.000000	0.281801
1879.000000	0.279329
1880.000000	0.277176
1881.000000	0.275682
1882.000000	0.273846
1883.000000	0.271496
1884.000000	0.269569
1885.000000	0.267594
1886.000000	0.265330
1887.000000	0.262904
1888.000000	0.261009
1889.000000	0.258580
1890.000000	0.255832
1891.000000	0.253204
1892.000000	0.250163
1893.000000	0.247183
1894.000000	0.244643
1895.000000	0.241775
1896.000000	0.239073
1897.000000	0.236363
1898.000000	0.233460
1899.000000	0.230905
1900.000000	0.228810
1901.000000	0.226730
1902.000000	0.224643
1903.000000	0.221988
1904.000000	0.219111
1905.000000	0.216878
1906.000000	0.215074
1907.000000	0.213693
1908.000000	0.212764
1909.000000	0.212252
1910.000000	0.211233
1911.000000	0.209662
1912.000000	0.208285
1913.000000	0.207251
1914.000000	0.206463
1915.000000	0.206041
1916.000000	0.205731
1917.000000	0.205159
1918.000000	0.204578
1919.000000	0.203735
1920.000000	0.202434
1921.000000	0.201502
1922.000000	0.200433
1923.000000	0.199444
1924.000000	0.199422
1925.000000	0.199194
1926.000000	0.198577
1927.000000	0.198455
1928.000000	0.198331
1929.000000	0.198183
1930.000000	0.198098
1931.000000	0.198394
1932.000000	0.198183
1933.000000	0.197893
1934.000000	0.197832
1935.000000	0.198062
1936.000000	0.198843
1937.000000	0.199427
1938.000000	0.199940
1939.000000	0.200058
1940.000000	0.199631
1941.000000	0.199258
1942.000000	0.199637
1943.000000	0.199311
1944.000000	0.199632
1945.000000	0.200165
1946.000000	0.199711
1947.000000	0.199535
1948.000000	0.199521
1949.000000	0.199152
1950.000000	0.198736
1951.000000	0.198518
1952.000000	0.198725
1953.000000	0.198348
1954.000000	0.197688
1955.000000	0.197570
1956.000000	0.196980
1957.000000	0.196708
1958.000000	0.197190
1959.000000	0.197395
1960.000000	0.197487
1961.000000	0.197276
1962.000000	0.196981
1963.000000	0.196261
1964.000000	0.195968
1965.000000	0.195845
1966.000000	0.196243
1967.000000	0.196859
1968.000000	0.196769
1969.000000	0.196599
1970.000000	0.196308
1971.000000	0.196087
1972.000000	0.196140
1973.000000	0.196141
1974.000000	0.196384
1975.000000	0.196633
1976.000000	0.196777
1977.000000	0.197244
1978.000000	0.197886
1979.000000	0.198826
1980.000000	0.199588
1981.000000	0.199947
1982.000000	0.200308
1983.000000	0.200402
1984.000000	0.200473
1985.000000	0.200599
1986.000000	0.200593
1987.000000	0.200570
1988.000000	0.200157
1989.000000	0.199905
1990.000000	0.200246
1991.000000	0.200619
1992.000000	0.201505
1993.000000	0.202878
1994.000000	0.203611
1995.000000	0.204350
1996.000000	0.205166
1997.000000	0.205687
1998.000000	0.205843
1999.000000	0.206185
2000.000000	0.206378
2001.000000	0.206763
2002.000000	0.207357
2003.000000	0.208232
2004.000000	0.209134
2005.000000	0.209888
2006.000000	0.210184
2007.000000	0.210145
2008.000000	0.210622
2009.000000	0.211123
2010.000000	0.211727
2011.000000	0.212608
2012.000000	0.213599
2013.000000	0.214754
2014.000000	0.215411
2015.000000	0.216125
2016.000000	0.217397
2017.000000	0.218328
2018.000000	0.219388
2019.000000	0.220592
2020.000000	0.221398
2021.000000	0.222177
2022.000000	0.222332
2023.000000	0.222940
2024.000000	0.224044
2025.000000	0.224759
2026.000000	0.225184
2027.000000	0.226017
2028.000000	0.226060
2029.000000	0.225897
2030.000000	0.226085
2031.000000	0.226651
2032.000000	0.227636
2033.000000	0.228908
2034.000000	0.229612
2035.000000	0.229983
2036.000000	0.230141
2037.000000	0.229944
2038.000000	0.230127
2039.000000	0.229853
2040.000000	0.231026
2041.000000	0.232626
2042.000000	0.233695
2043.000000	0.235010
2044.000000	0.235554
2045.000000	0.235419
2046.000000	0.235205
2047.000000	0.235456
2048.000000	0.235769
2049.000000	0.236435
2050.000000	0.237417
2051.000000	0.238108
2052.000000	0.238785
2053.000000	0.239205
2054.000000	0.239495
2055.000000	0.240001
2056.000000	0.240745
2057.000000	0.240745
2058.000000	0.241367
2059.000000	0.241783
2060.000000	0.241838
2061.000000	0.241415
2062.000000	0.241726
2063.000000	0.242071
2064.000000	0.242330
2065.000000	0.243489
2066.000000	0.243928
2067.000000	0.243815
2068.000000	0.244380
2069.000000	0.244789
2070.000000	0.245095
2071.000000	0.245670
2072.000000	0.246018
2073.000000	0.246583
2074.000000	0.247245
2075.000000	0.247632
2076.000000	0.247776
2077.000000	0.247996
2078.000000	0.248108
2079.000000	0.248267
2080.000000	0.248433
2081.000000	0.248996
2082.000000	0.249873
2083.000000	0.250363
2084.000000	0.251239
2085.000000	0.251674
2086.000000	0.252313
2087.000000	0.252564
2088.000000	0.252691
2089.000000	0.253595
2090.000000	0.253986
2091.000000	0.254026
2092.000000	0.254390
2093.000000	0.254844
2094.000000	0.255291
2095.000000	0.256118
2096.000000	0.256554
2097.000000	0.256880
2098.000000	0.256670
2099.000000	0.256274
2100.000000	0.256818
2101.000000	0.257768
2102.000000	0.258228
2103.000000	0.259540
2104.000000	0.260202
2105.000000	0.260783
2106.000000	0.261465
2107.000000	0.261829
2108.000000	0.261573
2109.000000	0.261670
2110.000000	0.261478
2111.000000	0.261484
2112.000000	0.261464
2113.000000	0.261690
2114.000000	0.261847
2115.000000	0.261861
2116.000000	0.262212
2117.000000	0.262532
2118.000000	0.263426
2119.000000	0.264073
2120.000000	0.264375
2121.000000	0.264463
2122.000000	0.264657
2123.000000	0.264420
2124.000000	0.264522
2125.000000	0.264862
2126.000000	0.265094
2127.000000	0.265463
2128.000000	0.265818
2129.000000	0.265956
2130.000000	0.266523
2131.000000	0.266902
2132.000000	0.266522
2133.000000	0.266836
2134.000000	0.267581
2135.000000	0.268119
2136.000000	0.268674
2137.000000	0.268892
2138.000000	0.268836
2139.000000	0.268557
2140.000000	0.267780
2141.000000	0.267473
2142.000000	0.266652
2143.000000	0.266633
2144.000000	0.267945
2145.000000	0.268523
2146.000000	0.269097
2147.000000	0.270279
2148.000000	0.270778
2149.000000	0.270386
2150.000000	0.270704
2151.000000	0.270511
2152.000000	0.269543
2153.000000	0.269241
2154.000000	0.268623
2155.000000	0.267486
2156.000000	0.267168
2157.000000	0.267259
2158.000000	0.267182
2159.000000	0.267737
2160.000000	0.267890
2161.000000	0.267660
2162.000000	0.267759
2163.000000	0.268071
2164.000000	0.268051
2165.000000	0.267972
2166.000000	0.267482
2167.000000	0.267804
2168.000000	0.266991
2169.000000	0.267243
2170.000000	0.268300
2171.000000	0.268483
2172.000000	0.268569
2173.000000	0.268850
2174.000000	0.268659
2175.000000	0.268764
2176.000000	0.269225
2177.000000	0.269397
2178.000000	0.269529
2179.000000	0.269863
2180.000000	0.270303
2181.000000	0.270814
2182.000000	0.271379
2183.000000	0.270648
2184.000000	0.270203
2185.000000	0.270134
2186.000000	0.269761
2187.000000	0.269758
2188.000000	0.269456
2189.000000	0.268997
2190.000000	0.268873
2191.000000	0.269637
2192.000000	0.269893
2193.000000	0.270381
2194.000000	0.270634
2195.000000	0.270663
2196.000000	0.270631
2197.000000	0.270609
2198.000000	0.270944
2199.000000	0.270523
2200.000000	0.271237
2201.000000	0.273990
2202.000000	0.275029
2203.000000	0.275492
2204.000000	0.276315
2205.000000	0.275742
2206.000000	0.274413
2207.000000	0.273998
2208.000000	0.274775
2209.000000	0.273782
2210.000000	0.272932
2211.000000	0.271711
2212.000000	0.270742
2213.000000	0.270577
2214.000000	0.271977
2215.000000	0.271724
2216.000000	0.270703
2217.000000	0.270641
2218.000000	0.269802
2219.000000	0.269607
2220.000000	0.271146
2221.000000	0.271834
2222.000000	0.271972
2223.000000	0.272646
2224.000000	0.273572
2225.000000	0.274353
2226.000000	0.274592
2227.000000	0.274259
2228.000000	0.274691
2229.000000	0.272161
2230.000000	0.268284
2231.000000	0.267498
2232.000000	0.267069
2233.000000	0.264860
2234.000000	0.265777
2235.000000	0.268658
2236.000000	0.269178
2237.000000	0.268421
2238.000000	0.270220
2239.000000	0.271907
2240.000000	0.273259
2241.000000	0.277133
2242.000000	0.278089
2243.000000	0.277158
2244.000000	0.277168
2245.000000	0.276813
2246.000000	0.276067
2247.000000	0.274392
2248.000000	0.272883
2249.000000	0.270948
2250.000000	0.269130
2251.000000	0.268568
2252.000000	0.268325
2253.000000	0.266324
2254.000000	0.266061
2255.000000	0.266529
2256.000000	0.264687
2257.000000	0.264656
2258.000000	0.265822
2259.000000	0.265637
2260.000000	0.268347
2261.000000	0.269332
2262.000000	0.269877
2263.000000	0.270633
2264.000000	0.270254
2265.000000	0.270719
2266.000000	0.273706
2267.000000	0.272876
2268.000000	0.270307
2269.000000	0.268804
2270.000000	0.264364
2271.000000	0.262854
2272.000000	0.264112
2273.000000	0.263650
2274.000000	0.263038
2275.000000	0.262403
2276.000000	0.261017
2277.000000	0.260049
2278.000000	0.260916
2279.000000	0.260572
2280.000000	0.260496
2281.000000	0.262562
2282.000000	0.261503
2283.000000	0.260979
2284.000000	0.260264
2285.000000	0.257916
2286.000000	0.256309
2287.000000	0.255249
2288.000000	0.254690
2289.000000	0.251761
2290.000000	0.250147
2291.000000	0.251309
2292.000000	0.252415
2293.000000	0.253710
2294.000000	0.254327
2295.000000	0.255098
2296.000000	0.255019
2297.000000	0.253504
2298.000000	0.252849
2299.000000	0.252627
2300.000000	0.251260
2301.000000	0.248929
2302.000000	0.247831
2303.000000	0.245845
2304.000000	0.245436
2305.000000	0.248304
2306.000000	0.248680
2307.000000	0.248095
2308.000000	0.248316
2309.000000	0.247123
2310.000000	0.244053
2311.000000	0.243567
2312.000000	0.243376
2313.000000	0.241902
2314.000000	0.242450
2315.000000	0.243079
2316.000000	0.243072
2317.000000	0.242657
2318.000000	0.240421
2319.000000	0.238312
2320.000000	0.234948
2321.000000	0.233604
2322.000000	0.233331
2323.000000	0.233502
2324.000000	0.234614
2325.000000	0.234601
2326.000000	0.237050
2327.000000	0.237184
2328.000000	0.238581
2329.000000	0.242044
2330.000000	0.240297
2331.000000	0.240755
2332.000000	0.239682
2333.000000	0.234951
2334.000000	0.233569
2335.000000	0.233704
2336.000000	0.235733
2337.000000	0.235400
2338.000000	0.236706
2339.000000	0.236122
2340.000000	0.230742
2341.000000	0.229310
2342.000000	0.230962
2343.000000	0.230736
2344.000000	0.229814
2345.000000	0.230602
2346.000000	0.232617
2347.000000	0.232424
2348.000000	0.231956
2349.000000	0.232838
2350.000000	0.231540
2351.000000	0.227042
2352.000000	0.225417
2353.000000	0.225738
2354.000000	0.222964
2355.000000	0.223773
2356.000000	0.223620
2357.000000	0.223631
2358.000000	0.224746
2359.000000	0.224673
2360.000000	0.226410
2361.000000	0.224152
2362.000000	0.222526
2363.000000	0.221381
2364.000000	0.218448
2365.000000	0.218558
2366.000000	0.218409
2367.000000	0.218708
2368.000000	0.216514
2369.000000	0.210329
2370.000000	0.204058
2371.000000	0.199471
2372.000000	0.200652
2373.000000	0.205395
2374.000000	0.210077
2375.000000	0.213230
2376.000000	0.211981
2377.000000	0.209474
2378.000000	0.209292
2379.000000	0.207180
2380.000000	0.204608
2381.000000	0.203372
2382.000000	0.197633
2383.000000	0.195781
2384.000000	0.199248
2385.000000	0.200436
2386.000000	0.203330
2387.000000	0.203936
2388.000000	0.204161
2389.000000	0.203814
2390.000000	0.202681
2391.000000	0.206614
2392.000000	0.207417
2393.000000	0.207360
2394.000000	0.209227
2395.000000	0.206343
2396.000000	0.205401
2397.000000	0.209216
2398.000000	0.208831
2399.000000	0.211827
2400.000000	0.212594
2401.000000	0.206857
2402.000000	0.208979
2403.000000	0.207946
2404.000000	0.202455
2405.000000	0.201600
2406.000000	0.200390
2407.000000	0.203025
2408.000000	0.207253
2409.000000	0.206606
2410.000000	0.205388
2411.000000	0.199158
2412.000000	0.197914
2413.000000	0.206674
2414.000000	0.207101
2415.000000	0.208097
2416.000000	0.213816
2417.000000	0.208698
2418.000000	0.210011
2419.000000	0.207912
2420.000000	0.199763
2421.000000	0.205368
2422.000000	0.193089
2423.000000	0.184433
2424.000000	0.182962
2425.000000	0.166984
2426.000000	0.167863
2427.000000	0.171360
2428.000000	0.166214
2429.000000	0.173908
2430.000000	0.181993
2431.000000	0.188261
2432.000000	0.200883
2433.000000	0.194562
2434.000000	0.183239
2435.000000	0.173213
2436.000000	0.161984
2437.000000	0.175383
2438.000000	0.193799
2439.000000	0.200894
2440.000000	0.215147
2441.000000	0.216460
2442.000000	0.204564
2443.000000	0.203227
2444.000000	0.192978
2445.000000	0.190701
2446.000000	0.196373
2447.000000	0.188355
2448.000000	0.182638
2449.000000	0.171031
2450.000000	0.153968
2451.000000	0.154584
2452.000000	0.161254
2453.000000	0.163561
2454.000000	0.165940
2455.000000	0.170137
2456.000000	0.178094
2457.000000	0.177477
2458.000000	0.164672
2459.000000	0.140384
2460.000000	0.114320
2461.000000	0.110909
2462.000000	0.140385
2463.000000	0.168492
2464.000000	0.200691
2465.000000	0.232132
2466.000000	0.225496
2467.000000	0.233960
2468.000000	0.233808
2469.000000	0.207321
2470.000000	0.201619
2471.000000	0.186308
2472.000000	0.158792
2473.000000	0.150612
2474.000000	0.151693
2475.000000	0.148800
2476.000000	0.154526
2477.000000	0.154914
2478.000000	0.168902
2479.000000	0.183318
2480.000000	0.198617
2481.000000	0.263999
2482.000000	0.280517
2483.000000	0.242102
2484.000000	0.224593
2485.000000	0.214329
2486.000000	0.187923
2487.000000	0.165003
2488.000000	0.180022
2489.000000	0.071443
2490.000000	-0.014919
2491.000000	0.031605
2492.000000	0.041446
2493.000000	0.130281
2494.000000	0.175743
2495.000000	0.140166
2496.000000	0.129435
2497.000000	0.120439
2498.000000	0.129130
2499.000000	0.148575
2500.000000	0.182439
