# Wavelength	SM1200H-30_HEX-20_FV7-50_00001.asd.rts.txt
350.000000	0.242886
351.000000	0.221629
352.000000	0.236008
353.000000	0.247245
354.000000	0.239029
355.000000	0.234207
356.000000	0.239928
357.000000	0.250377
358.000000	0.245831
359.000000	0.247487
360.000000	0.248845
361.000000	0.240327
362.000000	0.241470
363.000000	0.245038
364.000000	0.244920
365.000000	0.245658
366.000000	0.241510
367.000000	0.236215
368.000000	0.243335
369.000000	0.243749
370.000000	0.243181
371.000000	0.251599
372.000000	0.250422
373.000000	0.249415
374.000000	0.254762
375.000000	0.254060
376.000000	0.250112
377.000000	0.245806
378.000000	0.244666
379.000000	0.244410
380.000000	0.243593
381.000000	0.242553
382.000000	0.247827
383.000000	0.251597
384.000000	0.249779
385.000000	0.250747
386.000000	0.253471
387.000000	0.255940
388.000000	0.254208
389.000000	0.253570
390.000000	0.253690
391.000000	0.252319
392.000000	0.252434
393.000000	0.253448
394.000000	0.254442
395.000000	0.255173
396.000000	0.255830
397.000000	0.256786
398.000000	0.259248
399.000000	0.258844
400.000000	0.257381
401.000000	0.258944
402.000000	0.259433
403.000000	0.259294
404.000000	0.259541
405.000000	0.259196
406.000000	0.259414
407.000000	0.260370
408.000000	0.260385
409.000000	0.260236
410.000000	0.260327
411.000000	0.260885
412.000000	0.261898
413.000000	0.262685
414.000000	0.262774
415.000000	0.263621
416.000000	0.264069
417.000000	0.263594
418.000000	0.263321
419.000000	0.263147
420.000000	0.263253
421.000000	0.264054
422.000000	0.265064
423.000000	0.265859
424.000000	0.266186
425.000000	0.266290
426.000000	0.266581
427.000000	0.267173
428.000000	0.267385
429.000000	0.267333
430.000000	0.267357
431.000000	0.268174
432.000000	0.268911
433.000000	0.269026
434.000000	0.268303
435.000000	0.268216
436.000000	0.268628
437.000000	0.269089
438.000000	0.269593
439.000000	0.269787
440.000000	0.269741
441.000000	0.270005
442.000000	0.270094
443.000000	0.270074
444.000000	0.270563
445.000000	0.270837
446.000000	0.271033
447.000000	0.271308
448.000000	0.271736
449.000000	0.272122
450.000000	0.272368
451.000000	0.272704
452.000000	0.272724
453.000000	0.272505
454.000000	0.272953
455.000000	0.273360
456.000000	0.273620
457.000000	0.273683
458.000000	0.273993
459.000000	0.274247
460.000000	0.274262
461.000000	0.274610
462.000000	0.275232
463.000000	0.275718
464.000000	0.275534
465.000000	0.275621
466.000000	0.275906
467.000000	0.275829
468.000000	0.275974
469.000000	0.276226
470.000000	0.276493
471.000000	0.276734
472.000000	0.277022
473.000000	0.277382
474.000000	0.277539
475.000000	0.277572
476.000000	0.277731
477.000000	0.278125
478.000000	0.278092
479.000000	0.278123
480.000000	0.278705
481.000000	0.278726
482.000000	0.278747
483.000000	0.279144
484.000000	0.279696
485.000000	0.279921
486.000000	0.279921
487.000000	0.280193
488.000000	0.280426
489.000000	0.280642
490.000000	0.281038
491.000000	0.281193
492.000000	0.281249
493.000000	0.281340
494.000000	0.281556
495.000000	0.281925
496.000000	0.282348
497.000000	0.282590
498.000000	0.282843
499.000000	0.283242
500.000000	0.283681
501.000000	0.283803
502.000000	0.283850
503.000000	0.284225
504.000000	0.284482
505.000000	0.284709
506.000000	0.285037
507.000000	0.285228
508.000000	0.285529
509.000000	0.285966
510.000000	0.286230
511.000000	0.286440
512.000000	0.286723
513.000000	0.287186
514.000000	0.287500
515.000000	0.287682
516.000000	0.287810
517.000000	0.288117
518.000000	0.288533
519.000000	0.288873
520.000000	0.289171
521.000000	0.289471
522.000000	0.289748
523.000000	0.289818
524.000000	0.290082
525.000000	0.290451
526.000000	0.290627
527.000000	0.290873
528.000000	0.291160
529.000000	0.291457
530.000000	0.291719
531.000000	0.291955
532.000000	0.292124
533.000000	0.292438
534.000000	0.292722
535.000000	0.292950
536.000000	0.293279
537.000000	0.293636
538.000000	0.293925
539.000000	0.294043
540.000000	0.294271
541.000000	0.294562
542.000000	0.294853
543.000000	0.295037
544.000000	0.295374
545.000000	0.295825
546.000000	0.296024
547.000000	0.296271
548.000000	0.296648
549.000000	0.297005
550.000000	0.297270
551.000000	0.297532
552.000000	0.297850
553.000000	0.298156
554.000000	0.298432
555.000000	0.298697
556.000000	0.299027
557.000000	0.299247
558.000000	0.299483
559.000000	0.299887
560.000000	0.300242
561.000000	0.300560
562.000000	0.300801
563.000000	0.301107
564.000000	0.301453
565.000000	0.301688
566.000000	0.301992
567.000000	0.302314
568.000000	0.302601
569.000000	0.302905
570.000000	0.303177
571.000000	0.303428
572.000000	0.303762
573.000000	0.304057
574.000000	0.304313
575.000000	0.304623
576.000000	0.304929
577.000000	0.305157
578.000000	0.305354
579.000000	0.305670
580.000000	0.305999
581.000000	0.306277
582.000000	0.306500
583.000000	0.306735
584.000000	0.307013
585.000000	0.307345
586.000000	0.307647
587.000000	0.307897
588.000000	0.308114
589.000000	0.308425
590.000000	0.308732
591.000000	0.308985
592.000000	0.309289
593.000000	0.309588
594.000000	0.309856
595.000000	0.310100
596.000000	0.310289
597.000000	0.310463
598.000000	0.310585
599.000000	0.310698
600.000000	0.310881
601.000000	0.311091
602.000000	0.311242
603.000000	0.311447
604.000000	0.311745
605.000000	0.312008
606.000000	0.312179
607.000000	0.312324
608.000000	0.312601
609.000000	0.312831
610.000000	0.313001
611.000000	0.313150
612.000000	0.313320
613.000000	0.313436
614.000000	0.313510
615.000000	0.313655
616.000000	0.313784
617.000000	0.313873
618.000000	0.314077
619.000000	0.314252
620.000000	0.314375
621.000000	0.314525
622.000000	0.314568
623.000000	0.314603
624.000000	0.314716
625.000000	0.314830
626.000000	0.314919
627.000000	0.314999
628.000000	0.315157
629.000000	0.315338
630.000000	0.315434
631.000000	0.315602
632.000000	0.315753
633.000000	0.315889
634.000000	0.316016
635.000000	0.316182
636.000000	0.316360
637.000000	0.316512
638.000000	0.316652
639.000000	0.316838
640.000000	0.317074
641.000000	0.317135
642.000000	0.317189
643.000000	0.317292
644.000000	0.317463
645.000000	0.317627
646.000000	0.317760
647.000000	0.317842
648.000000	0.317972
649.000000	0.318121
650.000000	0.318259
651.000000	0.318426
652.000000	0.318537
653.000000	0.318665
654.000000	0.318855
655.000000	0.319031
656.000000	0.319171
657.000000	0.319238
658.000000	0.319423
659.000000	0.319621
660.000000	0.319772
661.000000	0.319973
662.000000	0.320049
663.000000	0.320097
664.000000	0.320261
665.000000	0.320423
666.000000	0.320595
667.000000	0.320774
668.000000	0.320950
669.000000	0.321094
670.000000	0.321215
671.000000	0.321392
672.000000	0.321586
673.000000	0.321764
674.000000	0.321911
675.000000	0.322076
676.000000	0.322233
677.000000	0.322356
678.000000	0.322461
679.000000	0.322568
680.000000	0.322686
681.000000	0.322747
682.000000	0.322880
683.000000	0.323046
684.000000	0.323284
685.000000	0.323432
686.000000	0.323555
687.000000	0.323739
688.000000	0.323961
689.000000	0.324119
690.000000	0.324198
691.000000	0.324305
692.000000	0.324431
693.000000	0.324618
694.000000	0.324764
695.000000	0.324960
696.000000	0.325165
697.000000	0.325298
698.000000	0.325483
699.000000	0.325678
700.000000	0.325851
701.000000	0.326046
702.000000	0.326265
703.000000	0.326453
704.000000	0.326523
705.000000	0.326605
706.000000	0.326710
707.000000	0.326892
708.000000	0.327085
709.000000	0.327251
710.000000	0.327390
711.000000	0.327501
712.000000	0.327614
713.000000	0.327754
714.000000	0.327870
715.000000	0.327997
716.000000	0.328165
717.000000	0.328367
718.000000	0.328596
719.000000	0.328781
720.000000	0.328902
721.000000	0.329103
722.000000	0.329206
723.000000	0.329234
724.000000	0.329290
725.000000	0.329319
726.000000	0.329407
727.000000	0.329512
728.000000	0.329632
729.000000	0.329793
730.000000	0.329937
731.000000	0.329988
732.000000	0.330047
733.000000	0.330163
734.000000	0.330184
735.000000	0.330140
736.000000	0.330225
737.000000	0.330393
738.000000	0.330405
739.000000	0.330460
740.000000	0.330542
741.000000	0.330641
742.000000	0.330730
743.000000	0.330794
744.000000	0.330921
745.000000	0.330985
746.000000	0.331058
747.000000	0.331152
748.000000	0.331262
749.000000	0.331370
750.000000	0.331431
751.000000	0.331458
752.000000	0.331542
753.000000	0.331678
754.000000	0.331752
755.000000	0.331816
756.000000	0.331867
757.000000	0.331848
758.000000	0.331801
759.000000	0.331843
760.000000	0.331925
761.000000	0.331947
762.000000	0.331994
763.000000	0.332045
764.000000	0.332109
765.000000	0.332194
766.000000	0.332283
767.000000	0.332367
768.000000	0.332533
769.000000	0.332671
770.000000	0.332737
771.000000	0.332770
772.000000	0.332838
773.000000	0.332888
774.000000	0.332957
775.000000	0.332950
776.000000	0.332973
777.000000	0.333069
778.000000	0.333102
779.000000	0.333114
780.000000	0.333139
781.000000	0.333186
782.000000	0.333222
783.000000	0.333303
784.000000	0.333321
785.000000	0.333414
786.000000	0.333474
787.000000	0.333454
788.000000	0.333466
789.000000	0.333539
790.000000	0.333618
791.000000	0.333651
792.000000	0.333739
793.000000	0.333807
794.000000	0.333793
795.000000	0.333744
796.000000	0.333667
797.000000	0.333587
798.000000	0.333561
799.000000	0.333534
800.000000	0.333528
801.000000	0.333580
802.000000	0.333620
803.000000	0.333669
804.000000	0.333758
805.000000	0.333792
806.000000	0.333767
807.000000	0.333751
808.000000	0.333694
809.000000	0.333730
810.000000	0.333764
811.000000	0.333709
812.000000	0.333660
813.000000	0.333602
814.000000	0.333539
815.000000	0.333515
816.000000	0.333493
817.000000	0.333463
818.000000	0.333348
819.000000	0.333288
820.000000	0.333281
821.000000	0.333264
822.000000	0.333266
823.000000	0.333288
824.000000	0.333253
825.000000	0.333208
826.000000	0.333263
827.000000	0.333225
828.000000	0.333103
829.000000	0.333249
830.000000	0.333307
831.000000	0.333322
832.000000	0.333354
833.000000	0.333347
834.000000	0.333290
835.000000	0.333225
836.000000	0.333159
837.000000	0.333063
838.000000	0.332972
839.000000	0.332925
840.000000	0.332906
841.000000	0.332926
842.000000	0.332947
843.000000	0.332962
844.000000	0.333024
845.000000	0.333079
846.000000	0.333040
847.000000	0.333038
848.000000	0.332962
849.000000	0.332738
850.000000	0.332581
851.000000	0.332497
852.000000	0.332483
853.000000	0.332411
854.000000	0.332327
855.000000	0.332346
856.000000	0.332374
857.000000	0.332342
858.000000	0.332393
859.000000	0.332432
860.000000	0.332208
861.000000	0.332022
862.000000	0.331960
863.000000	0.331927
864.000000	0.331867
865.000000	0.331822
866.000000	0.331804
867.000000	0.331655
868.000000	0.331534
869.000000	0.331373
870.000000	0.331163
871.000000	0.331076
872.000000	0.330985
873.000000	0.330786
874.000000	0.330712
875.000000	0.330590
876.000000	0.330447
877.000000	0.330307
878.000000	0.330136
879.000000	0.329992
880.000000	0.329768
881.000000	0.329568
882.000000	0.329317
883.000000	0.329048
884.000000	0.328770
885.000000	0.328569
886.000000	0.328410
887.000000	0.328282
888.000000	0.328139
889.000000	0.328091
890.000000	0.327990
891.000000	0.327850
892.000000	0.327703
893.000000	0.327465
894.000000	0.327263
895.000000	0.327151
896.000000	0.326875
897.000000	0.326627
898.000000	0.326653
899.000000	0.326440
900.000000	0.326309
901.000000	0.326304
902.000000	0.326166
903.000000	0.325955
904.000000	0.325724
905.000000	0.325407
906.000000	0.325060
907.000000	0.324874
908.000000	0.324892
909.000000	0.324814
910.000000	0.324586
911.000000	0.324323
912.000000	0.324155
913.000000	0.324028
914.000000	0.323764
915.000000	0.323428
916.000000	0.323105
917.000000	0.322841
918.000000	0.322605
919.000000	0.322347
920.000000	0.322132
921.000000	0.321835
922.000000	0.321596
923.000000	0.321591
924.000000	0.321331
925.000000	0.321016
926.000000	0.320816
927.000000	0.320569
928.000000	0.320428
929.000000	0.320303
930.000000	0.320064
931.000000	0.319819
932.000000	0.319479
933.000000	0.319109
934.000000	0.318822
935.000000	0.318578
936.000000	0.318382
937.000000	0.318120
938.000000	0.317742
939.000000	0.317588
940.000000	0.317516
941.000000	0.317274
942.000000	0.316965
943.000000	0.316689
944.000000	0.316387
945.000000	0.316186
946.000000	0.315865
947.000000	0.315543
948.000000	0.315340
949.000000	0.315219
950.000000	0.315141
951.000000	0.315009
952.000000	0.314812
953.000000	0.314657
954.000000	0.314454
955.000000	0.314124
956.000000	0.314047
957.000000	0.313676
958.000000	0.313153
959.000000	0.312951
960.000000	0.312552
961.000000	0.312367
962.000000	0.312422
963.000000	0.312290
964.000000	0.312170
965.000000	0.312044
966.000000	0.311767
967.000000	0.311446
968.000000	0.311433
969.000000	0.311432
970.000000	0.311055
971.000000	0.310755
972.000000	0.310405
973.000000	0.309960
974.000000	0.309728
975.000000	0.309475
976.000000	0.309201
977.000000	0.308955
978.000000	0.308808
979.000000	0.308729
980.000000	0.308469
981.000000	0.308234
982.000000	0.308087
983.000000	0.307949
984.000000	0.307852
985.000000	0.307775
986.000000	0.307411
987.000000	0.307168
988.000000	0.307122
989.000000	0.306741
990.000000	0.306376
991.000000	0.306267
992.000000	0.306479
993.000000	0.306241
994.000000	0.306010
995.000000	0.306022
996.000000	0.305883
997.000000	0.305398
998.000000	0.305236
999.000000	0.305616
1000.000000	0.305674
1001.000000	0.305165
1002.000000	0.305667
1003.000000	0.305695
1004.000000	0.305611
1005.000000	0.305772
1006.000000	0.305413
1007.000000	0.304372
1008.000000	0.304059
1009.000000	0.303885
1010.000000	0.302921
1011.000000	0.303032
1012.000000	0.303146
1013.000000	0.302680
1014.000000	0.302702
1015.000000	0.302903
1016.000000	0.303379
1017.000000	0.303418
1018.000000	0.303630
1019.000000	0.303839
1020.000000	0.303869
1021.000000	0.303438
1022.000000	0.303071
1023.000000	0.303094
1024.000000	0.302834
1025.000000	0.302727
1026.000000	0.302851
1027.000000	0.303622
1028.000000	0.303754
1029.000000	0.302884
1030.000000	0.302659
1031.000000	0.302557
1032.000000	0.302147
1033.000000	0.302536
1034.000000	0.302732
1035.000000	0.302826
1036.000000	0.302918
1037.000000	0.303231
1038.000000	0.303204
1039.000000	0.303008
1040.000000	0.303185
1041.000000	0.303053
1042.000000	0.303290
1043.000000	0.303366
1044.000000	0.302944
1045.000000	0.303566
1046.000000	0.304085
1047.000000	0.304215
1048.000000	0.304836
1049.000000	0.304771
1050.000000	0.303401
1051.000000	0.303185
1052.000000	0.303411
1053.000000	0.303436
1054.000000	0.304144
1055.000000	0.304512
1056.000000	0.304840
1057.000000	0.304784
1058.000000	0.304601
1059.000000	0.304074
1060.000000	0.304122
1061.000000	0.304669
1062.000000	0.305305
1063.000000	0.305960
1064.000000	0.306325
1065.000000	0.306234
1066.000000	0.306399
1067.000000	0.306475
1068.000000	0.306685
1069.000000	0.307145
1070.000000	0.307182
1071.000000	0.306943
1072.000000	0.307053
1073.000000	0.307123
1074.000000	0.307234
1075.000000	0.307877
1076.000000	0.308299
1077.000000	0.308548
1078.000000	0.308926
1079.000000	0.309066
1080.000000	0.309217
1081.000000	0.309136
1082.000000	0.308660
1083.000000	0.308614
1084.000000	0.308701
1085.000000	0.308804
1086.000000	0.309136
1087.000000	0.309417
1088.000000	0.309464
1089.000000	0.309667
1090.000000	0.309903
1091.000000	0.310340
1092.000000	0.310756
1093.000000	0.311194
1094.000000	0.311303
1095.000000	0.311018
1096.000000	0.311231
1097.000000	0.311427
1098.000000	0.311757
1099.000000	0.312501
1100.000000	0.312929
1101.000000	0.313063
1102.000000	0.313337
1103.000000	0.313724
1104.000000	0.313929
1105.000000	0.313981
1106.000000	0.314136
1107.000000	0.314005
1108.000000	0.314132
1109.000000	0.314669
1110.000000	0.315075
1111.000000	0.315290
1112.000000	0.315466
1113.000000	0.315712
1114.000000	0.315824
1115.000000	0.315968
1116.000000	0.316329
1117.000000	0.316384
1118.000000	0.316135
1119.000000	0.316013
1120.000000	0.315697
1121.000000	0.315713
1122.000000	0.316127
1123.000000	0.316456
1124.000000	0.316691
1125.000000	0.316938
1126.000000	0.316936
1127.000000	0.317006
1128.000000	0.317113
1129.000000	0.317345
1130.000000	0.317543
1131.000000	0.317821
1132.000000	0.317884
1133.000000	0.317912
1134.000000	0.317997
1135.000000	0.317829
1136.000000	0.317919
1137.000000	0.318230
1138.000000	0.318382
1139.000000	0.318705
1140.000000	0.318918
1141.000000	0.318967
1142.000000	0.319047
1143.000000	0.319000
1144.000000	0.319093
1145.000000	0.319222
1146.000000	0.319003
1147.000000	0.318912
1148.000000	0.318595
1149.000000	0.318709
1150.000000	0.319065
1151.000000	0.319201
1152.000000	0.319501
1153.000000	0.319557
1154.000000	0.319146
1155.000000	0.319135
1156.000000	0.319333
1157.000000	0.319443
1158.000000	0.319686
1159.000000	0.319728
1160.000000	0.319516
1161.000000	0.319456
1162.000000	0.319344
1163.000000	0.319628
1164.000000	0.319601
1165.000000	0.319440
1166.000000	0.319497
1167.000000	0.319437
1168.000000	0.319421
1169.000000	0.319707
1170.000000	0.319735
1171.000000	0.319548
1172.000000	0.319546
1173.000000	0.319534
1174.000000	0.319577
1175.000000	0.319706
1176.000000	0.319731
1177.000000	0.319874
1178.000000	0.319870
1179.000000	0.319644
1180.000000	0.319537
1181.000000	0.319519
1182.000000	0.319480
1183.000000	0.319542
1184.000000	0.319899
1185.000000	0.320028
1186.000000	0.320126
1187.000000	0.320140
1188.000000	0.320035
1189.000000	0.320006
1190.000000	0.320097
1191.000000	0.320045
1192.000000	0.319998
1193.000000	0.320112
1194.000000	0.320028
1195.000000	0.320049
1196.000000	0.320234
1197.000000	0.320314
1198.000000	0.320323
1199.000000	0.320421
1200.000000	0.320642
1201.000000	0.320641
1202.000000	0.320737
1203.000000	0.320781
1204.000000	0.320538
1205.000000	0.320482
1206.000000	0.320402
1207.000000	0.320341
1208.000000	0.320296
1209.000000	0.320458
1210.000000	0.320385
1211.000000	0.320169
1212.000000	0.320076
1213.000000	0.319974
1214.000000	0.319928
1215.000000	0.319959
1216.000000	0.319934
1217.000000	0.319861
1218.000000	0.319795
1219.000000	0.319752
1220.000000	0.319771
1221.000000	0.319651
1222.000000	0.319528
1223.000000	0.319637
1224.000000	0.319761
1225.000000	0.319802
1226.000000	0.319916
1227.000000	0.319844
1228.000000	0.319773
1229.000000	0.319732
1230.000000	0.319767
1231.000000	0.319649
1232.000000	0.319519
1233.000000	0.319573
1234.000000	0.319688
1235.000000	0.319695
1236.000000	0.319648
1237.000000	0.319684
1238.000000	0.319622
1239.000000	0.319574
1240.000000	0.319648
1241.000000	0.319623
1242.000000	0.319459
1243.000000	0.319363
1244.000000	0.319382
1245.000000	0.319486
1246.000000	0.319590
1247.000000	0.319681
1248.000000	0.319682
1249.000000	0.319674
1250.000000	0.319684
1251.000000	0.319703
1252.000000	0.319677
1253.000000	0.319684
1254.000000	0.319623
1255.000000	0.319482
1256.000000	0.319372
1257.000000	0.319204
1258.000000	0.319220
1259.000000	0.319273
1260.000000	0.319364
1261.000000	0.319575
1262.000000	0.319655
1263.000000	0.319736
1264.000000	0.319653
1265.000000	0.319623
1266.000000	0.319669
1267.000000	0.319503
1268.000000	0.319500
1269.000000	0.319494
1270.000000	0.319279
1271.000000	0.319186
1272.000000	0.319180
1273.000000	0.319113
1274.000000	0.319029
1275.000000	0.318961
1276.000000	0.318930
1277.000000	0.318958
1278.000000	0.318919
1279.000000	0.318919
1280.000000	0.318960
1281.000000	0.318894
1282.000000	0.318774
1283.000000	0.318797
1284.000000	0.318774
1285.000000	0.318802
1286.000000	0.318885
1287.000000	0.318991
1288.000000	0.319114
1289.000000	0.319028
1290.000000	0.318772
1291.000000	0.318653
1292.000000	0.318610
1293.000000	0.318544
1294.000000	0.318548
1295.000000	0.318570
1296.000000	0.318480
1297.000000	0.318394
1298.000000	0.318432
1299.000000	0.318445
1300.000000	0.318438
1301.000000	0.318441
1302.000000	0.318406
1303.000000	0.318404
1304.000000	0.318473
1305.000000	0.318803
1306.000000	0.318799
1307.000000	0.318732
1308.000000	0.318747
1309.000000	0.318542
1310.000000	0.318449
1311.000000	0.318566
1312.000000	0.318506
1313.000000	0.318327
1314.000000	0.318247
1315.000000	0.318134
1316.000000	0.318139
1317.000000	0.318236
1318.000000	0.318257
1319.000000	0.318112
1320.000000	0.318036
1321.000000	0.317908
1322.000000	0.317581
1323.000000	0.317485
1324.000000	0.317608
1325.000000	0.317648
1326.000000	0.317667
1327.000000	0.317655
1328.000000	0.317668
1329.000000	0.317521
1330.000000	0.317135
1331.000000	0.317062
1332.000000	0.317185
1333.000000	0.317057
1334.000000	0.317002
1335.000000	0.317000
1336.000000	0.316860
1337.000000	0.316828
1338.000000	0.316870
1339.000000	0.316927
1340.000000	0.316848
1341.000000	0.316659
1342.000000	0.316656
1343.000000	0.316702
1344.000000	0.316689
1345.000000	0.316688
1346.000000	0.316645
1347.000000	0.316395
1348.000000	0.316322
1349.000000	0.316182
1350.000000	0.316044
1351.000000	0.316058
1352.000000	0.315960
1353.000000	0.315829
1354.000000	0.315689
1355.000000	0.315425
1356.000000	0.315386
1357.000000	0.315318
1358.000000	0.315165
1359.000000	0.315215
1360.000000	0.315198
1361.000000	0.315193
1362.000000	0.315114
1363.000000	0.314988
1364.000000	0.314869
1365.000000	0.314678
1366.000000	0.314506
1367.000000	0.314371
1368.000000	0.314157
1369.000000	0.314014
1370.000000	0.313790
1371.000000	0.313573
1372.000000	0.313384
1373.000000	0.313156
1374.000000	0.312937
1375.000000	0.312770
1376.000000	0.312632
1377.000000	0.312279
1378.000000	0.311686
1379.000000	0.310890
1380.000000	0.310092
1381.000000	0.309368
1382.000000	0.308548
1383.000000	0.307658
1384.000000	0.306714
1385.000000	0.305619
1386.000000	0.304711
1387.000000	0.304139
1388.000000	0.303470
1389.000000	0.302949
1390.000000	0.302669
1391.000000	0.302135
1392.000000	0.301783
1393.000000	0.301634
1394.000000	0.301686
1395.000000	0.301749
1396.000000	0.302191
1397.000000	0.302140
1398.000000	0.301782
1399.000000	0.301594
1400.000000	0.301208
1401.000000	0.300954
1402.000000	0.300905
1403.000000	0.300795
1404.000000	0.300532
1405.000000	0.300095
1406.000000	0.299647
1407.000000	0.299176
1408.000000	0.298688
1409.000000	0.298338
1410.000000	0.297962
1411.000000	0.297671
1412.000000	0.297443
1413.000000	0.297214
1414.000000	0.297080
1415.000000	0.296891
1416.000000	0.296711
1417.000000	0.296621
1418.000000	0.296412
1419.000000	0.296314
1420.000000	0.296084
1421.000000	0.295880
1422.000000	0.295862
1423.000000	0.295785
1424.000000	0.295638
1425.000000	0.295522
1426.000000	0.295354
1427.000000	0.295305
1428.000000	0.295295
1429.000000	0.295187
1430.000000	0.295077
1431.000000	0.294916
1432.000000	0.294745
1433.000000	0.294579
1434.000000	0.294487
1435.000000	0.294542
1436.000000	0.294460
1437.000000	0.294310
1438.000000	0.294199
1439.000000	0.294066
1440.000000	0.293961
1441.000000	0.293962
1442.000000	0.293949
1443.000000	0.293880
1444.000000	0.293752
1445.000000	0.293631
1446.000000	0.293561
1447.000000	0.293363
1448.000000	0.293196
1449.000000	0.293117
1450.000000	0.292970
1451.000000	0.292875
1452.000000	0.292798
1453.000000	0.292707
1454.000000	0.292555
1455.000000	0.292428
1456.000000	0.292420
1457.000000	0.292372
1458.000000	0.292338
1459.000000	0.292320
1460.000000	0.292171
1461.000000	0.291989
1462.000000	0.291868
1463.000000	0.291808
1464.000000	0.291772
1465.000000	0.291786
1466.000000	0.291822
1467.000000	0.291800
1468.000000	0.291791
1469.000000	0.291757
1470.000000	0.291689
1471.000000	0.291791
1472.000000	0.291939
1473.000000	0.292246
1474.000000	0.292507
1475.000000	0.292628
1476.000000	0.292770
1477.000000	0.292995
1478.000000	0.293302
1479.000000	0.293584
1480.000000	0.293802
1481.000000	0.293954
1482.000000	0.293991
1483.000000	0.294172
1484.000000	0.294375
1485.000000	0.294606
1486.000000	0.294916
1487.000000	0.295114
1488.000000	0.295299
1489.000000	0.295511
1490.000000	0.295543
1491.000000	0.295717
1492.000000	0.295902
1493.000000	0.296111
1494.000000	0.296405
1495.000000	0.296601
1496.000000	0.296752
1497.000000	0.296921
1498.000000	0.297105
1499.000000	0.297136
1500.000000	0.297239
1501.000000	0.297414
1502.000000	0.297575
1503.000000	0.297772
1504.000000	0.298005
1505.000000	0.298247
1506.000000	0.298476
1507.000000	0.298656
1508.000000	0.298798
1509.000000	0.298854
1510.000000	0.298823
1511.000000	0.298867
1512.000000	0.298925
1513.000000	0.298992
1514.000000	0.299089
1515.000000	0.299108
1516.000000	0.299283
1517.000000	0.299437
1518.000000	0.299515
1519.000000	0.299608
1520.000000	0.299575
1521.000000	0.299438
1522.000000	0.299433
1523.000000	0.299517
1524.000000	0.299605
1525.000000	0.299663
1526.000000	0.299567
1527.000000	0.299541
1528.000000	0.299559
1529.000000	0.299585
1530.000000	0.299726
1531.000000	0.299853
1532.000000	0.299922
1533.000000	0.300095
1534.000000	0.300235
1535.000000	0.300264
1536.000000	0.300262
1537.000000	0.300235
1538.000000	0.300217
1539.000000	0.300181
1540.000000	0.300188
1541.000000	0.300268
1542.000000	0.300309
1543.000000	0.300447
1544.000000	0.300593
1545.000000	0.300722
1546.000000	0.300926
1547.000000	0.301002
1548.000000	0.301047
1549.000000	0.301086
1550.000000	0.301032
1551.000000	0.301074
1552.000000	0.301089
1553.000000	0.301123
1554.000000	0.301247
1555.000000	0.301222
1556.000000	0.301170
1557.000000	0.301082
1558.000000	0.301029
1559.000000	0.300881
1560.000000	0.300820
1561.000000	0.300844
1562.000000	0.300832
1563.000000	0.300853
1564.000000	0.300851
1565.000000	0.300854
1566.000000	0.300827
1567.000000	0.300873
1568.000000	0.300872
1569.000000	0.300914
1570.000000	0.300950
1571.000000	0.300942
1572.000000	0.300972
1573.000000	0.301076
1574.000000	0.301096
1575.000000	0.301073
1576.000000	0.301102
1577.000000	0.301100
1578.000000	0.301101
1579.000000	0.301235
1580.000000	0.301230
1581.000000	0.301199
1582.000000	0.301196
1583.000000	0.301108
1584.000000	0.301079
1585.000000	0.301180
1586.000000	0.301252
1587.000000	0.301380
1588.000000	0.301411
1589.000000	0.301357
1590.000000	0.301376
1591.000000	0.301407
1592.000000	0.301446
1593.000000	0.301635
1594.000000	0.301681
1595.000000	0.301598
1596.000000	0.301656
1597.000000	0.301838
1598.000000	0.301856
1599.000000	0.301905
1600.000000	0.301885
1601.000000	0.301772
1602.000000	0.301681
1603.000000	0.301611
1604.000000	0.301605
1605.000000	0.301666
1606.000000	0.301612
1607.000000	0.301597
1608.000000	0.301645
1609.000000	0.301721
1610.000000	0.301695
1611.000000	0.301723
1612.000000	0.301713
1613.000000	0.301668
1614.000000	0.301600
1615.000000	0.301632
1616.000000	0.301647
1617.000000	0.301531
1618.000000	0.301446
1619.000000	0.301418
1620.000000	0.301392
1621.000000	0.301317
1622.000000	0.301383
1623.000000	0.301548
1624.000000	0.301571
1625.000000	0.301477
1626.000000	0.301337
1627.000000	0.301049
1628.000000	0.301000
1629.000000	0.300987
1630.000000	0.301059
1631.000000	0.301265
1632.000000	0.301351
1633.000000	0.301441
1634.000000	0.301527
1635.000000	0.301627
1636.000000	0.301717
1637.000000	0.301820
1638.000000	0.301868
1639.000000	0.301942
1640.000000	0.301926
1641.000000	0.301905
1642.000000	0.301920
1643.000000	0.301938
1644.000000	0.301925
1645.000000	0.301861
1646.000000	0.301889
1647.000000	0.302007
1648.000000	0.302041
1649.000000	0.302230
1650.000000	0.302308
1651.000000	0.302281
1652.000000	0.302347
1653.000000	0.302408
1654.000000	0.302504
1655.000000	0.302525
1656.000000	0.302570
1657.000000	0.302749
1658.000000	0.302819
1659.000000	0.302981
1660.000000	0.303098
1661.000000	0.303036
1662.000000	0.303125
1663.000000	0.303289
1664.000000	0.303306
1665.000000	0.303295
1666.000000	0.303380
1667.000000	0.303331
1668.000000	0.303373
1669.000000	0.303501
1670.000000	0.303489
1671.000000	0.303457
1672.000000	0.303596
1673.000000	0.303807
1674.000000	0.304042
1675.000000	0.304202
1676.000000	0.304232
1677.000000	0.304204
1678.000000	0.304147
1679.000000	0.304091
1680.000000	0.304118
1681.000000	0.304041
1682.000000	0.304120
1683.000000	0.304361
1684.000000	0.304320
1685.000000	0.304362
1686.000000	0.304402
1687.000000	0.304302
1688.000000	0.304338
1689.000000	0.304426
1690.000000	0.304375
1691.000000	0.304278
1692.000000	0.304161
1693.000000	0.304114
1694.000000	0.303980
1695.000000	0.303913
1696.000000	0.303930
1697.000000	0.303830
1698.000000	0.303757
1699.000000	0.303747
1700.000000	0.303716
1701.000000	0.303724
1702.000000	0.303601
1703.000000	0.303525
1704.000000	0.303543
1705.000000	0.303506
1706.000000	0.303529
1707.000000	0.303563
1708.000000	0.303460
1709.000000	0.303446
1710.000000	0.303695
1711.000000	0.303812
1712.000000	0.303938
1713.000000	0.304000
1714.000000	0.304014
1715.000000	0.304010
1716.000000	0.303968
1717.000000	0.303955
1718.000000	0.303959
1719.000000	0.303832
1720.000000	0.303639
1721.000000	0.303569
1722.000000	0.303472
1723.000000	0.303417
1724.000000	0.303544
1725.000000	0.303570
1726.000000	0.303429
1727.000000	0.303338
1728.000000	0.303190
1729.000000	0.303066
1730.000000	0.303053
1731.000000	0.303039
1732.000000	0.303042
1733.000000	0.303204
1734.000000	0.303365
1735.000000	0.303410
1736.000000	0.303441
1737.000000	0.303532
1738.000000	0.303532
1739.000000	0.303654
1740.000000	0.303992
1741.000000	0.304024
1742.000000	0.303927
1743.000000	0.303883
1744.000000	0.303700
1745.000000	0.303653
1746.000000	0.303680
1747.000000	0.303489
1748.000000	0.303426
1749.000000	0.303466
1750.000000	0.303391
1751.000000	0.303472
1752.000000	0.303645
1753.000000	0.303610
1754.000000	0.303633
1755.000000	0.303788
1756.000000	0.303830
1757.000000	0.303681
1758.000000	0.303734
1759.000000	0.303931
1760.000000	0.303998
1761.000000	0.304100
1762.000000	0.304119
1763.000000	0.303960
1764.000000	0.303910
1765.000000	0.303892
1766.000000	0.303857
1767.000000	0.303754
1768.000000	0.303649
1769.000000	0.303583
1770.000000	0.303622
1771.000000	0.303679
1772.000000	0.303731
1773.000000	0.303803
1774.000000	0.303874
1775.000000	0.304054
1776.000000	0.304029
1777.000000	0.303914
1778.000000	0.303713
1779.000000	0.303257
1780.000000	0.303094
1781.000000	0.302995
1782.000000	0.302857
1783.000000	0.302813
1784.000000	0.302820
1785.000000	0.302872
1786.000000	0.302853
1787.000000	0.303131
1788.000000	0.303284
1789.000000	0.303275
1790.000000	0.303672
1791.000000	0.303832
1792.000000	0.304040
1793.000000	0.304125
1794.000000	0.303965
1795.000000	0.303924
1796.000000	0.303804
1797.000000	0.303804
1798.000000	0.303921
1799.000000	0.304027
1800.000000	0.304292
1801.000000	0.304171
1802.000000	0.304286
1803.000000	0.303782
1804.000000	0.304074
1805.000000	0.305812
1806.000000	0.306293
1807.000000	0.306054
1808.000000	0.306198
1809.000000	0.306553
1810.000000	0.306029
1811.000000	0.306037
1812.000000	0.306330
1813.000000	0.306468
1814.000000	0.306609
1815.000000	0.306626
1816.000000	0.306881
1817.000000	0.306622
1818.000000	0.305478
1819.000000	0.305448
1820.000000	0.305906
1821.000000	0.305163
1822.000000	0.305006
1823.000000	0.305091
1824.000000	0.305092
1825.000000	0.304824
1826.000000	0.304994
1827.000000	0.305427
1828.000000	0.305749
1829.000000	0.306338
1830.000000	0.306764
1831.000000	0.306787
1832.000000	0.306774
1833.000000	0.306266
1834.000000	0.304692
1835.000000	0.304121
1836.000000	0.303689
1837.000000	0.303265
1838.000000	0.302871
1839.000000	0.303284
1840.000000	0.303277
1841.000000	0.302840
1842.000000	0.302572
1843.000000	0.302041
1844.000000	0.302094
1845.000000	0.302612
1846.000000	0.302823
1847.000000	0.303295
1848.000000	0.303271
1849.000000	0.303484
1850.000000	0.302737
1851.000000	0.302204
1852.000000	0.301573
1853.000000	0.301639
1854.000000	0.301725
1855.000000	0.301320
1856.000000	0.301220
1857.000000	0.300737
1858.000000	0.299327
1859.000000	0.298573
1860.000000	0.298609
1861.000000	0.298487
1862.000000	0.298409
1863.000000	0.298590
1864.000000	0.298665
1865.000000	0.298958
1866.000000	0.298823
1867.000000	0.298468
1868.000000	0.298320
1869.000000	0.297077
1870.000000	0.295931
1871.000000	0.295116
1872.000000	0.293594
1873.000000	0.292772
1874.000000	0.292918
1875.000000	0.291941
1876.000000	0.290528
1877.000000	0.288801
1878.000000	0.286344
1879.000000	0.283634
1880.000000	0.281551
1881.000000	0.280138
1882.000000	0.278941
1883.000000	0.277773
1884.000000	0.276305
1885.000000	0.274497
1886.000000	0.272513
1887.000000	0.270237
1888.000000	0.267806
1889.000000	0.265513
1890.000000	0.263410
1891.000000	0.261554
1892.000000	0.259297
1893.000000	0.256868
1894.000000	0.255077
1895.000000	0.253040
1896.000000	0.250977
1897.000000	0.249393
1898.000000	0.247613
1899.000000	0.245256
1900.000000	0.243149
1901.000000	0.241019
1902.000000	0.239112
1903.000000	0.237676
1904.000000	0.236629
1905.000000	0.235651
1906.000000	0.234570
1907.000000	0.233602
1908.000000	0.232759
1909.000000	0.231705
1910.000000	0.231058
1911.000000	0.230852
1912.000000	0.230721
1913.000000	0.230567
1914.000000	0.230022
1915.000000	0.229747
1916.000000	0.229835
1917.000000	0.229730
1918.000000	0.229818
1919.000000	0.230115
1920.000000	0.230605
1921.000000	0.230736
1922.000000	0.231542
1923.000000	0.232601
1924.000000	0.232095
1925.000000	0.231811
1926.000000	0.231921
1927.000000	0.231883
1928.000000	0.231992
1929.000000	0.232891
1930.000000	0.233346
1931.000000	0.232779
1932.000000	0.232461
1933.000000	0.232240
1934.000000	0.232274
1935.000000	0.232344
1936.000000	0.232484
1937.000000	0.232569
1938.000000	0.232098
1939.000000	0.232121
1940.000000	0.232632
1941.000000	0.232658
1942.000000	0.232416
1943.000000	0.232547
1944.000000	0.232377
1945.000000	0.232398
1946.000000	0.232675
1947.000000	0.233213
1948.000000	0.233003
1949.000000	0.232776
1950.000000	0.233067
1951.000000	0.233173
1952.000000	0.233248
1953.000000	0.233622
1954.000000	0.233951
1955.000000	0.233900
1956.000000	0.233196
1957.000000	0.232752
1958.000000	0.232768
1959.000000	0.232566
1960.000000	0.232783
1961.000000	0.233032
1962.000000	0.233063
1963.000000	0.232811
1964.000000	0.232829
1965.000000	0.232922
1966.000000	0.232885
1967.000000	0.233181
1968.000000	0.233579
1969.000000	0.233356
1970.000000	0.233127
1971.000000	0.233306
1972.000000	0.232981
1973.000000	0.232993
1974.000000	0.233894
1975.000000	0.234417
1976.000000	0.234728
1977.000000	0.235093
1978.000000	0.235796
1979.000000	0.236014
1980.000000	0.236179
1981.000000	0.236873
1982.000000	0.237348
1983.000000	0.237284
1984.000000	0.237308
1985.000000	0.237221
1986.000000	0.237208
1987.000000	0.236943
1988.000000	0.237480
1989.000000	0.238339
1990.000000	0.238743
1991.000000	0.239103
1992.000000	0.239329
1993.000000	0.239717
1994.000000	0.240024
1995.000000	0.239993
1996.000000	0.240307
1997.000000	0.240468
1998.000000	0.239974
1999.000000	0.240518
2000.000000	0.242006
2001.000000	0.242513
2002.000000	0.243620
2003.000000	0.244304
2004.000000	0.243980
2005.000000	0.244417
2006.000000	0.244565
2007.000000	0.244687
2008.000000	0.245167
2009.000000	0.246029
2010.000000	0.246552
2011.000000	0.246991
2012.000000	0.247463
2013.000000	0.247709
2014.000000	0.247997
2015.000000	0.248840
2016.000000	0.249630
2017.000000	0.250488
2018.000000	0.251516
2019.000000	0.251921
2020.000000	0.252208
2021.000000	0.252583
2022.000000	0.252749
2023.000000	0.252819
2024.000000	0.253090
2025.000000	0.253232
2026.000000	0.252940
2027.000000	0.252666
2028.000000	0.253025
2029.000000	0.253311
2030.000000	0.253732
2031.000000	0.254494
2032.000000	0.254872
2033.000000	0.254889
2034.000000	0.255352
2035.000000	0.256146
2036.000000	0.256517
2037.000000	0.257390
2038.000000	0.257867
2039.000000	0.257891
2040.000000	0.257835
2041.000000	0.258541
2042.000000	0.258705
2043.000000	0.259431
2044.000000	0.260482
2045.000000	0.260678
2046.000000	0.260718
2047.000000	0.261117
2048.000000	0.261299
2049.000000	0.261842
2050.000000	0.262862
2051.000000	0.263337
2052.000000	0.263353
2053.000000	0.263264
2054.000000	0.263199
2055.000000	0.262978
2056.000000	0.262517
2057.000000	0.263089
2058.000000	0.263842
2059.000000	0.264438
2060.000000	0.264783
2061.000000	0.264981
2062.000000	0.265124
2063.000000	0.264810
2064.000000	0.265102
2065.000000	0.266307
2066.000000	0.266968
2067.000000	0.268071
2068.000000	0.268679
2069.000000	0.268694
2070.000000	0.268047
2071.000000	0.267090
2072.000000	0.266872
2073.000000	0.267216
2074.000000	0.267578
2075.000000	0.267781
2076.000000	0.268056
2077.000000	0.268345
2078.000000	0.268513
2079.000000	0.268901
2080.000000	0.270051
2081.000000	0.270339
2082.000000	0.270497
2083.000000	0.269574
2084.000000	0.268655
2085.000000	0.268545
2086.000000	0.269157
2087.000000	0.270136
2088.000000	0.271016
2089.000000	0.271564
2090.000000	0.271692
2091.000000	0.270819
2092.000000	0.270843
2093.000000	0.271162
2094.000000	0.271408
2095.000000	0.271983
2096.000000	0.272567
2097.000000	0.273257
2098.000000	0.273280
2099.000000	0.273781
2100.000000	0.274615
2101.000000	0.274617
2102.000000	0.274445
2103.000000	0.274913
2104.000000	0.274798
2105.000000	0.274807
2106.000000	0.275435
2107.000000	0.275373
2108.000000	0.274278
2109.000000	0.274090
2110.000000	0.273951
2111.000000	0.273892
2112.000000	0.274060
2113.000000	0.274261
2114.000000	0.274701
2115.000000	0.275055
2116.000000	0.275515
2117.000000	0.276494
2118.000000	0.276538
2119.000000	0.276600
2120.000000	0.276952
2121.000000	0.277251
2122.000000	0.277350
2123.000000	0.277741
2124.000000	0.277813
2125.000000	0.277498
2126.000000	0.277308
2127.000000	0.277094
2128.000000	0.277166
2129.000000	0.277297
2130.000000	0.277040
2131.000000	0.277576
2132.000000	0.277638
2133.000000	0.277336
2134.000000	0.277695
2135.000000	0.277359
2136.000000	0.276826
2137.000000	0.276971
2138.000000	0.277553
2139.000000	0.277601
2140.000000	0.278110
2141.000000	0.278172
2142.000000	0.277205
2143.000000	0.277004
2144.000000	0.277339
2145.000000	0.277624
2146.000000	0.278344
2147.000000	0.279313
2148.000000	0.279277
2149.000000	0.279070
2150.000000	0.278287
2151.000000	0.277422
2152.000000	0.276907
2153.000000	0.276783
2154.000000	0.276771
2155.000000	0.277026
2156.000000	0.277380
2157.000000	0.277977
2158.000000	0.278475
2159.000000	0.279673
2160.000000	0.279955
2161.000000	0.279659
2162.000000	0.279556
2163.000000	0.278607
2164.000000	0.278182
2165.000000	0.277737
2166.000000	0.277985
2167.000000	0.278956
2168.000000	0.279469
2169.000000	0.280190
2170.000000	0.280684
2171.000000	0.280936
2172.000000	0.280472
2173.000000	0.280883
2174.000000	0.281691
2175.000000	0.282287
2176.000000	0.283277
2177.000000	0.283823
2178.000000	0.284395
2179.000000	0.284344
2180.000000	0.283675
2181.000000	0.283361
2182.000000	0.281961
2183.000000	0.281058
2184.000000	0.280234
2185.000000	0.279762
2186.000000	0.279365
2187.000000	0.278452
2188.000000	0.279216
2189.000000	0.280371
2190.000000	0.281146
2191.000000	0.283302
2192.000000	0.283529
2193.000000	0.281753
2194.000000	0.281269
2195.000000	0.280731
2196.000000	0.279952
2197.000000	0.279908
2198.000000	0.279134
2199.000000	0.276688
2200.000000	0.275595
2201.000000	0.274815
2202.000000	0.274466
2203.000000	0.275016
2204.000000	0.275578
2205.000000	0.275433
2206.000000	0.278779
2207.000000	0.279791
2208.000000	0.281029
2209.000000	0.282902
2210.000000	0.281529
2211.000000	0.281933
2212.000000	0.282897
2213.000000	0.283348
2214.000000	0.284195
2215.000000	0.284376
2216.000000	0.283801
2217.000000	0.283005
2218.000000	0.281715
2219.000000	0.280353
2220.000000	0.279015
2221.000000	0.278173
2222.000000	0.276194
2223.000000	0.275865
2224.000000	0.277070
2225.000000	0.277010
2226.000000	0.278336
2227.000000	0.280232
2228.000000	0.280739
2229.000000	0.280078
2230.000000	0.278135
2231.000000	0.277494
2232.000000	0.277086
2233.000000	0.277742
2234.000000	0.278261
2235.000000	0.276771
2236.000000	0.275945
2237.000000	0.273570
2238.000000	0.273263
2239.000000	0.274239
2240.000000	0.275401
2241.000000	0.278177
2242.000000	0.278889
2243.000000	0.278701
2244.000000	0.278676
2245.000000	0.278198
2246.000000	0.277486
2247.000000	0.276023
2248.000000	0.275590
2249.000000	0.275633
2250.000000	0.274242
2251.000000	0.273942
2252.000000	0.276736
2253.000000	0.277864
2254.000000	0.279156
2255.000000	0.283184
2256.000000	0.283692
2257.000000	0.283811
2258.000000	0.283592
2259.000000	0.280676
2260.000000	0.277819
2261.000000	0.275340
2262.000000	0.272121
2263.000000	0.271040
2264.000000	0.271182
2265.000000	0.271791
2266.000000	0.274201
2267.000000	0.275175
2268.000000	0.276599
2269.000000	0.276427
2270.000000	0.274372
2271.000000	0.273525
2272.000000	0.271692
2273.000000	0.270703
2274.000000	0.271441
2275.000000	0.271439
2276.000000	0.271976
2277.000000	0.270936
2278.000000	0.268419
2279.000000	0.267408
2280.000000	0.265834
2281.000000	0.266915
2282.000000	0.269596
2283.000000	0.270150
2284.000000	0.268977
2285.000000	0.266423
2286.000000	0.264683
2287.000000	0.263561
2288.000000	0.264777
2289.000000	0.266365
2290.000000	0.265554
2291.000000	0.264514
2292.000000	0.262735
2293.000000	0.261020
2294.000000	0.260089
2295.000000	0.259677
2296.000000	0.260132
2297.000000	0.261578
2298.000000	0.262131
2299.000000	0.263927
2300.000000	0.264019
2301.000000	0.262125
2302.000000	0.261065
2303.000000	0.259421
2304.000000	0.258499
2305.000000	0.259237
2306.000000	0.258194
2307.000000	0.256370
2308.000000	0.254414
2309.000000	0.252432
2310.000000	0.251231
2311.000000	0.252505
2312.000000	0.252572
2313.000000	0.250497
2314.000000	0.249250
2315.000000	0.248525
2316.000000	0.249843
2317.000000	0.252384
2318.000000	0.254097
2319.000000	0.254499
2320.000000	0.253133
2321.000000	0.253088
2322.000000	0.253666
2323.000000	0.254058
2324.000000	0.254810
2325.000000	0.254089
2326.000000	0.252663
2327.000000	0.251858
2328.000000	0.253569
2329.000000	0.255732
2330.000000	0.256526
2331.000000	0.258211
2332.000000	0.257246
2333.000000	0.255674
2334.000000	0.255468
2335.000000	0.255206
2336.000000	0.254598
2337.000000	0.254714
2338.000000	0.255931
2339.000000	0.255328
2340.000000	0.253424
2341.000000	0.252102
2342.000000	0.250543
2343.000000	0.248911
2344.000000	0.247003
2345.000000	0.246348
2346.000000	0.245835
2347.000000	0.245132
2348.000000	0.244748
2349.000000	0.246551
2350.000000	0.247965
2351.000000	0.247867
2352.000000	0.249375
2353.000000	0.250847
2354.000000	0.251222
2355.000000	0.252109
2356.000000	0.250305
2357.000000	0.247433
2358.000000	0.245572
2359.000000	0.243497
2360.000000	0.245102
2361.000000	0.248338
2362.000000	0.246324
2363.000000	0.245366
2364.000000	0.244948
2365.000000	0.243493
2366.000000	0.246598
2367.000000	0.248777
2368.000000	0.247873
2369.000000	0.246541
2370.000000	0.243327
2371.000000	0.240109
2372.000000	0.238571
2373.000000	0.236798
2374.000000	0.233681
2375.000000	0.233979
2376.000000	0.234547
2377.000000	0.236017
2378.000000	0.245533
2379.000000	0.251144
2380.000000	0.252202
2381.000000	0.253164
2382.000000	0.247503
2383.000000	0.243828
2384.000000	0.242973
2385.000000	0.239680
2386.000000	0.238301
2387.000000	0.236027
2388.000000	0.232825
2389.000000	0.231259
2390.000000	0.228516
2391.000000	0.223121
2392.000000	0.217238
2393.000000	0.214331
2394.000000	0.215264
2395.000000	0.216830
2396.000000	0.218533
2397.000000	0.222126
2398.000000	0.227393
2399.000000	0.230284
2400.000000	0.231093
2401.000000	0.234061
2402.000000	0.235297
2403.000000	0.234031
2404.000000	0.232828
2405.000000	0.230615
2406.000000	0.223062
2407.000000	0.219199
2408.000000	0.221634
2409.000000	0.219640
2410.000000	0.216687
2411.000000	0.218538
2412.000000	0.217575
2413.000000	0.213593
2414.000000	0.219923
2415.000000	0.221975
2416.000000	0.221974
2417.000000	0.232150
2418.000000	0.236196
2419.000000	0.236028
2420.000000	0.232741
2421.000000	0.231350
2422.000000	0.233118
2423.000000	0.233212
2424.000000	0.234523
2425.000000	0.229404
2426.000000	0.217410
2427.000000	0.204773
2428.000000	0.208680
2429.000000	0.212840
2430.000000	0.208900
2431.000000	0.215586
2432.000000	0.221073
2433.000000	0.231723
2434.000000	0.241537
2435.000000	0.243973
2436.000000	0.237951
2437.000000	0.224822
2438.000000	0.216314
2439.000000	0.217918
2440.000000	0.228205
2441.000000	0.224718
2442.000000	0.217822
2443.000000	0.201863
2444.000000	0.178004
2445.000000	0.172395
2446.000000	0.174219
2447.000000	0.187258
2448.000000	0.195247
2449.000000	0.200040
2450.000000	0.211701
2451.000000	0.218528
2452.000000	0.229779
2453.000000	0.233910
2454.000000	0.244819
2455.000000	0.244306
2456.000000	0.227187
2457.000000	0.234119
2458.000000	0.218651
2459.000000	0.193757
2460.000000	0.207802
2461.000000	0.211838
2462.000000	0.211591
2463.000000	0.229810
2464.000000	0.235123
2465.000000	0.246980
2466.000000	0.262142
2467.000000	0.270486
2468.000000	0.275885
2469.000000	0.251718
2470.000000	0.208653
2471.000000	0.180265
2472.000000	0.172740
2473.000000	0.179384
2474.000000	0.205471
2475.000000	0.220391
2476.000000	0.220084
2477.000000	0.206569
2478.000000	0.193125
2479.000000	0.206204
2480.000000	0.195361
2481.000000	0.199289
2482.000000	0.216288
2483.000000	0.224706
2484.000000	0.263680
2485.000000	0.283481
2486.000000	0.301293
2487.000000	0.291133
2488.000000	0.255743
2489.000000	0.224792
2490.000000	0.184816
2491.000000	0.234433
2492.000000	0.235222
2493.000000	0.263812
2494.000000	0.268754
2495.000000	0.199768
2496.000000	0.171283
2497.000000	0.157609
2498.000000	0.143628
2499.000000	0.147153
2500.000000	0.136181
