# Wavelength	SM1200H-10_HEX-70_FV7-20_00001.asd.rts.txt
350.000000	0.302449
351.000000	0.288295
352.000000	0.274239
353.000000	0.274923
354.000000	0.292806
355.000000	0.307926
356.000000	0.316514
357.000000	0.319220
358.000000	0.313608
359.000000	0.309948
360.000000	0.307249
361.000000	0.301735
362.000000	0.293038
363.000000	0.293924
364.000000	0.305859
365.000000	0.304336
366.000000	0.301182
367.000000	0.303111
368.000000	0.314894
369.000000	0.313708
370.000000	0.306676
371.000000	0.307974
372.000000	0.310091
373.000000	0.311082
374.000000	0.311150
375.000000	0.311611
376.000000	0.310181
377.000000	0.308088
378.000000	0.310607
379.000000	0.310296
380.000000	0.309439
381.000000	0.313340
382.000000	0.314659
383.000000	0.313483
384.000000	0.311767
385.000000	0.312555
386.000000	0.313686
387.000000	0.315127
388.000000	0.319176
389.000000	0.317138
390.000000	0.313429
391.000000	0.315851
392.000000	0.317733
393.000000	0.318455
394.000000	0.318472
395.000000	0.318609
396.000000	0.319285
397.000000	0.320025
398.000000	0.319049
399.000000	0.319527
400.000000	0.321075
401.000000	0.321671
402.000000	0.321724
403.000000	0.321791
404.000000	0.322466
405.000000	0.323474
406.000000	0.324067
407.000000	0.324349
408.000000	0.325867
409.000000	0.326023
410.000000	0.325282
411.000000	0.325776
412.000000	0.325429
413.000000	0.325350
414.000000	0.326770
415.000000	0.327378
416.000000	0.327709
417.000000	0.328300
418.000000	0.329321
419.000000	0.329841
420.000000	0.329836
421.000000	0.330021
422.000000	0.330224
423.000000	0.330405
424.000000	0.330676
425.000000	0.331361
426.000000	0.331796
427.000000	0.331588
428.000000	0.331460
429.000000	0.332072
430.000000	0.333147
431.000000	0.333037
432.000000	0.333346
433.000000	0.333878
434.000000	0.333864
435.000000	0.334417
436.000000	0.334830
437.000000	0.334459
438.000000	0.334787
439.000000	0.334995
440.000000	0.334905
441.000000	0.335323
442.000000	0.335814
443.000000	0.336061
444.000000	0.335991
445.000000	0.335853
446.000000	0.335982
447.000000	0.336369
448.000000	0.336365
449.000000	0.336663
450.000000	0.337628
451.000000	0.338447
452.000000	0.338703
453.000000	0.338508
454.000000	0.338927
455.000000	0.339252
456.000000	0.339547
457.000000	0.339894
458.000000	0.340224
459.000000	0.340315
460.000000	0.340199
461.000000	0.340681
462.000000	0.341232
463.000000	0.341367
464.000000	0.341385
465.000000	0.341579
466.000000	0.341892
467.000000	0.342205
468.000000	0.342580
469.000000	0.342862
470.000000	0.343090
471.000000	0.343163
472.000000	0.343220
473.000000	0.343419
474.000000	0.343800
475.000000	0.344013
476.000000	0.344226
477.000000	0.344727
478.000000	0.344915
479.000000	0.345035
480.000000	0.345187
481.000000	0.345353
482.000000	0.345683
483.000000	0.345984
484.000000	0.346206
485.000000	0.346371
486.000000	0.346710
487.000000	0.347061
488.000000	0.347431
489.000000	0.347718
490.000000	0.347711
491.000000	0.347883
492.000000	0.348272
493.000000	0.348613
494.000000	0.349017
495.000000	0.349402
496.000000	0.349686
497.000000	0.350097
498.000000	0.350391
499.000000	0.350607
500.000000	0.350867
501.000000	0.351143
502.000000	0.351437
503.000000	0.351639
504.000000	0.351864
505.000000	0.352063
506.000000	0.352209
507.000000	0.352485
508.000000	0.352806
509.000000	0.353115
510.000000	0.353676
511.000000	0.354128
512.000000	0.354414
513.000000	0.354631
514.000000	0.354889
515.000000	0.355210
516.000000	0.355495
517.000000	0.355808
518.000000	0.356116
519.000000	0.356321
520.000000	0.356712
521.000000	0.357103
522.000000	0.357417
523.000000	0.357704
524.000000	0.358009
525.000000	0.358298
526.000000	0.358558
527.000000	0.358883
528.000000	0.359183
529.000000	0.359418
530.000000	0.359608
531.000000	0.359878
532.000000	0.360174
533.000000	0.360464
534.000000	0.360778
535.000000	0.361108
536.000000	0.361460
537.000000	0.361797
538.000000	0.362099
539.000000	0.362340
540.000000	0.362582
541.000000	0.362830
542.000000	0.363114
543.000000	0.363349
544.000000	0.363595
545.000000	0.363827
546.000000	0.364191
547.000000	0.364554
548.000000	0.364899
549.000000	0.365155
550.000000	0.365481
551.000000	0.365854
552.000000	0.366140
553.000000	0.366439
554.000000	0.366789
555.000000	0.367186
556.000000	0.367528
557.000000	0.367748
558.000000	0.368018
559.000000	0.368346
560.000000	0.368666
561.000000	0.369028
562.000000	0.369336
563.000000	0.369632
564.000000	0.369968
565.000000	0.370255
566.000000	0.370606
567.000000	0.370996
568.000000	0.371361
569.000000	0.371669
570.000000	0.371965
571.000000	0.372267
572.000000	0.372605
573.000000	0.372958
574.000000	0.373271
575.000000	0.373565
576.000000	0.373896
577.000000	0.374181
578.000000	0.374440
579.000000	0.374703
580.000000	0.375016
581.000000	0.375354
582.000000	0.375599
583.000000	0.375812
584.000000	0.376047
585.000000	0.376368
586.000000	0.376740
587.000000	0.377066
588.000000	0.377276
589.000000	0.377574
590.000000	0.377881
591.000000	0.378140
592.000000	0.378406
593.000000	0.378660
594.000000	0.378893
595.000000	0.379120
596.000000	0.379383
597.000000	0.379666
598.000000	0.379810
599.000000	0.379992
600.000000	0.380238
601.000000	0.380445
602.000000	0.380686
603.000000	0.380928
604.000000	0.381157
605.000000	0.381336
606.000000	0.381493
607.000000	0.381655
608.000000	0.381851
609.000000	0.382009
610.000000	0.382174
611.000000	0.382406
612.000000	0.382653
613.000000	0.382880
614.000000	0.383100
615.000000	0.383256
616.000000	0.383377
617.000000	0.383461
618.000000	0.383618
619.000000	0.383807
620.000000	0.383961
621.000000	0.384085
622.000000	0.384212
623.000000	0.384327
624.000000	0.384415
625.000000	0.384531
626.000000	0.384688
627.000000	0.384882
628.000000	0.385076
629.000000	0.385335
630.000000	0.385496
631.000000	0.385647
632.000000	0.385757
633.000000	0.385886
634.000000	0.386062
635.000000	0.386208
636.000000	0.386357
637.000000	0.386515
638.000000	0.386706
639.000000	0.386870
640.000000	0.387040
641.000000	0.387114
642.000000	0.387304
643.000000	0.387565
644.000000	0.387772
645.000000	0.387845
646.000000	0.387961
647.000000	0.388180
648.000000	0.388257
649.000000	0.388407
650.000000	0.388652
651.000000	0.388845
652.000000	0.388966
653.000000	0.389067
654.000000	0.389133
655.000000	0.389268
656.000000	0.389444
657.000000	0.389552
658.000000	0.389674
659.000000	0.389820
660.000000	0.389973
661.000000	0.390146
662.000000	0.390254
663.000000	0.390409
664.000000	0.390706
665.000000	0.390950
666.000000	0.391100
667.000000	0.391155
668.000000	0.391338
669.000000	0.391549
670.000000	0.391718
671.000000	0.391849
672.000000	0.392008
673.000000	0.392192
674.000000	0.392376
675.000000	0.392573
676.000000	0.392743
677.000000	0.392871
678.000000	0.393041
679.000000	0.393192
680.000000	0.393298
681.000000	0.393385
682.000000	0.393563
683.000000	0.393757
684.000000	0.394008
685.000000	0.394135
686.000000	0.394246
687.000000	0.394456
688.000000	0.394600
689.000000	0.394747
690.000000	0.394990
691.000000	0.395199
692.000000	0.395357
693.000000	0.395538
694.000000	0.395687
695.000000	0.395889
696.000000	0.396108
697.000000	0.396271
698.000000	0.396456
699.000000	0.396652
700.000000	0.396837
701.000000	0.396951
702.000000	0.397111
703.000000	0.397301
704.000000	0.397387
705.000000	0.397518
706.000000	0.397656
707.000000	0.397805
708.000000	0.397916
709.000000	0.398017
710.000000	0.398168
711.000000	0.398344
712.000000	0.398509
713.000000	0.398675
714.000000	0.398843
715.000000	0.399021
716.000000	0.399204
717.000000	0.399355
718.000000	0.399548
719.000000	0.399736
720.000000	0.399889
721.000000	0.400029
722.000000	0.400108
723.000000	0.400203
724.000000	0.400324
725.000000	0.400435
726.000000	0.400579
727.000000	0.400632
728.000000	0.400751
729.000000	0.400933
730.000000	0.401082
731.000000	0.401233
732.000000	0.401377
733.000000	0.401540
734.000000	0.401639
735.000000	0.401663
736.000000	0.401795
737.000000	0.401947
738.000000	0.402019
739.000000	0.402135
740.000000	0.402180
741.000000	0.402245
742.000000	0.402342
743.000000	0.402429
744.000000	0.402510
745.000000	0.402524
746.000000	0.402546
747.000000	0.402562
748.000000	0.402568
749.000000	0.402660
750.000000	0.402826
751.000000	0.402938
752.000000	0.403026
753.000000	0.403109
754.000000	0.403165
755.000000	0.403220
756.000000	0.403276
757.000000	0.403274
758.000000	0.403272
759.000000	0.403364
760.000000	0.403499
761.000000	0.403699
762.000000	0.403847
763.000000	0.403932
764.000000	0.404111
765.000000	0.404171
766.000000	0.404208
767.000000	0.404322
768.000000	0.404384
769.000000	0.404447
770.000000	0.404513
771.000000	0.404472
772.000000	0.404531
773.000000	0.404608
774.000000	0.404677
775.000000	0.404680
776.000000	0.404740
777.000000	0.404895
778.000000	0.404968
779.000000	0.405002
780.000000	0.405020
781.000000	0.405006
782.000000	0.404999
783.000000	0.405093
784.000000	0.405150
785.000000	0.405225
786.000000	0.405281
787.000000	0.405300
788.000000	0.405334
789.000000	0.405410
790.000000	0.405485
791.000000	0.405546
792.000000	0.405696
793.000000	0.405815
794.000000	0.405824
795.000000	0.405860
796.000000	0.405911
797.000000	0.405951
798.000000	0.405954
799.000000	0.405922
800.000000	0.405898
801.000000	0.405923
802.000000	0.405885
803.000000	0.405876
804.000000	0.405971
805.000000	0.406021
806.000000	0.405987
807.000000	0.405985
808.000000	0.406003
809.000000	0.405991
810.000000	0.405990
811.000000	0.406002
812.000000	0.405935
813.000000	0.405951
814.000000	0.406051
815.000000	0.406124
816.000000	0.406166
817.000000	0.406188
818.000000	0.406113
819.000000	0.406116
820.000000	0.406181
821.000000	0.406216
822.000000	0.406239
823.000000	0.406284
824.000000	0.406279
825.000000	0.406273
826.000000	0.406156
827.000000	0.406059
828.000000	0.406102
829.000000	0.406130
830.000000	0.406105
831.000000	0.406096
832.000000	0.406026
833.000000	0.406023
834.000000	0.406028
835.000000	0.406025
836.000000	0.406036
837.000000	0.406016
838.000000	0.405969
839.000000	0.405884
840.000000	0.405869
841.000000	0.405889
842.000000	0.405834
843.000000	0.405731
844.000000	0.405663
845.000000	0.405625
846.000000	0.405620
847.000000	0.405608
848.000000	0.405562
849.000000	0.405518
850.000000	0.405493
851.000000	0.405412
852.000000	0.405331
853.000000	0.405352
854.000000	0.405249
855.000000	0.405180
856.000000	0.405146
857.000000	0.405101
858.000000	0.405051
859.000000	0.404901
860.000000	0.404704
861.000000	0.404596
862.000000	0.404589
863.000000	0.404532
864.000000	0.404444
865.000000	0.404315
866.000000	0.404190
867.000000	0.404118
868.000000	0.404035
869.000000	0.403931
870.000000	0.403950
871.000000	0.403939
872.000000	0.403863
873.000000	0.403693
874.000000	0.403679
875.000000	0.403503
876.000000	0.403257
877.000000	0.403094
878.000000	0.402900
879.000000	0.402806
880.000000	0.402683
881.000000	0.402517
882.000000	0.402379
883.000000	0.402299
884.000000	0.402184
885.000000	0.401992
886.000000	0.401782
887.000000	0.401625
888.000000	0.401462
889.000000	0.401391
890.000000	0.401218
891.000000	0.400978
892.000000	0.400823
893.000000	0.400644
894.000000	0.400542
895.000000	0.400491
896.000000	0.400333
897.000000	0.400109
898.000000	0.399923
899.000000	0.399763
900.000000	0.399634
901.000000	0.399476
902.000000	0.399320
903.000000	0.399197
904.000000	0.399052
905.000000	0.398747
906.000000	0.398746
907.000000	0.398613
908.000000	0.398320
909.000000	0.398071
910.000000	0.397829
911.000000	0.397548
912.000000	0.397240
913.000000	0.397032
914.000000	0.396780
915.000000	0.396591
916.000000	0.396521
917.000000	0.396228
918.000000	0.395950
919.000000	0.395833
920.000000	0.395650
921.000000	0.395367
922.000000	0.395149
923.000000	0.395167
924.000000	0.394984
925.000000	0.394679
926.000000	0.394424
927.000000	0.394285
928.000000	0.394159
929.000000	0.393952
930.000000	0.393624
931.000000	0.393322
932.000000	0.393127
933.000000	0.393002
934.000000	0.392659
935.000000	0.392311
936.000000	0.392047
937.000000	0.391757
938.000000	0.391374
939.000000	0.391259
940.000000	0.391269
941.000000	0.391160
942.000000	0.390831
943.000000	0.390568
944.000000	0.390352
945.000000	0.390083
946.000000	0.389792
947.000000	0.389604
948.000000	0.389486
949.000000	0.389030
950.000000	0.388706
951.000000	0.388554
952.000000	0.388338
953.000000	0.388060
954.000000	0.387864
955.000000	0.387678
956.000000	0.387145
957.000000	0.386917
958.000000	0.386833
959.000000	0.386614
960.000000	0.386512
961.000000	0.386258
962.000000	0.385814
963.000000	0.385523
964.000000	0.385192
965.000000	0.384941
966.000000	0.384735
967.000000	0.384598
968.000000	0.384280
969.000000	0.383783
970.000000	0.383430
971.000000	0.383424
972.000000	0.383415
973.000000	0.383125
974.000000	0.382695
975.000000	0.382641
976.000000	0.382539
977.000000	0.382072
978.000000	0.381889
979.000000	0.381807
980.000000	0.381568
981.000000	0.381477
982.000000	0.381258
983.000000	0.380856
984.000000	0.380526
985.000000	0.380573
986.000000	0.380350
987.000000	0.380092
988.000000	0.379913
989.000000	0.379793
990.000000	0.379771
991.000000	0.379695
992.000000	0.379466
993.000000	0.379217
994.000000	0.378994
995.000000	0.378946
996.000000	0.378793
997.000000	0.378810
998.000000	0.378664
999.000000	0.378402
1000.000000	0.378388
1001.000000	0.378764
1002.000000	0.378447
1003.000000	0.378242
1004.000000	0.378021
1005.000000	0.377238
1006.000000	0.377022
1007.000000	0.377335
1008.000000	0.377400
1009.000000	0.377321
1010.000000	0.377072
1011.000000	0.376469
1012.000000	0.375912
1013.000000	0.375599
1014.000000	0.375126
1015.000000	0.375178
1016.000000	0.375883
1017.000000	0.375463
1018.000000	0.375245
1019.000000	0.375307
1020.000000	0.375276
1021.000000	0.374984
1022.000000	0.375373
1023.000000	0.375723
1024.000000	0.375721
1025.000000	0.375931
1026.000000	0.375892
1027.000000	0.375534
1028.000000	0.375768
1029.000000	0.375764
1030.000000	0.375139
1031.000000	0.375033
1032.000000	0.375110
1033.000000	0.375136
1034.000000	0.375288
1035.000000	0.376443
1036.000000	0.376679
1037.000000	0.375922
1038.000000	0.375794
1039.000000	0.375968
1040.000000	0.376249
1041.000000	0.376264
1042.000000	0.376887
1043.000000	0.377065
1044.000000	0.377056
1045.000000	0.377288
1046.000000	0.376819
1047.000000	0.376690
1048.000000	0.376185
1049.000000	0.376296
1050.000000	0.376996
1051.000000	0.377303
1052.000000	0.377795
1053.000000	0.378052
1054.000000	0.378145
1055.000000	0.378326
1056.000000	0.378680
1057.000000	0.378688
1058.000000	0.378849
1059.000000	0.378884
1060.000000	0.378909
1061.000000	0.379207
1062.000000	0.379593
1063.000000	0.379624
1064.000000	0.379702
1065.000000	0.379600
1066.000000	0.379835
1067.000000	0.380128
1068.000000	0.380354
1069.000000	0.380747
1070.000000	0.380981
1071.000000	0.381082
1072.000000	0.381147
1073.000000	0.381029
1074.000000	0.381484
1075.000000	0.381640
1076.000000	0.382187
1077.000000	0.382493
1078.000000	0.382227
1079.000000	0.382378
1080.000000	0.382473
1081.000000	0.382448
1082.000000	0.382724
1083.000000	0.382931
1084.000000	0.382926
1085.000000	0.383005
1086.000000	0.383048
1087.000000	0.383372
1088.000000	0.383781
1089.000000	0.383995
1090.000000	0.384271
1091.000000	0.384692
1092.000000	0.384899
1093.000000	0.384879
1094.000000	0.384920
1095.000000	0.384800
1096.000000	0.385214
1097.000000	0.385923
1098.000000	0.386269
1099.000000	0.386851
1100.000000	0.387147
1101.000000	0.386814
1102.000000	0.386797
1103.000000	0.386777
1104.000000	0.387097
1105.000000	0.387759
1106.000000	0.388063
1107.000000	0.388473
1108.000000	0.388700
1109.000000	0.388759
1110.000000	0.388470
1111.000000	0.388470
1112.000000	0.388491
1113.000000	0.388746
1114.000000	0.389241
1115.000000	0.389432
1116.000000	0.389698
1117.000000	0.389856
1118.000000	0.389717
1119.000000	0.389674
1120.000000	0.389640
1121.000000	0.389734
1122.000000	0.389974
1123.000000	0.390349
1124.000000	0.390727
1125.000000	0.390987
1126.000000	0.390883
1127.000000	0.390987
1128.000000	0.391149
1129.000000	0.391417
1130.000000	0.391608
1131.000000	0.392056
1132.000000	0.391996
1133.000000	0.391578
1134.000000	0.391546
1135.000000	0.391340
1136.000000	0.391329
1137.000000	0.391733
1138.000000	0.391746
1139.000000	0.391720
1140.000000	0.391717
1141.000000	0.391344
1142.000000	0.391318
1143.000000	0.391409
1144.000000	0.391591
1145.000000	0.391738
1146.000000	0.391961
1147.000000	0.391968
1148.000000	0.391702
1149.000000	0.391617
1150.000000	0.391502
1151.000000	0.391494
1152.000000	0.391535
1153.000000	0.391511
1154.000000	0.391500
1155.000000	0.391375
1156.000000	0.391096
1157.000000	0.390981
1158.000000	0.390775
1159.000000	0.390664
1160.000000	0.390606
1161.000000	0.390636
1162.000000	0.390841
1163.000000	0.391254
1164.000000	0.391140
1165.000000	0.391016
1166.000000	0.390934
1167.000000	0.390502
1168.000000	0.390310
1169.000000	0.390350
1170.000000	0.390393
1171.000000	0.390557
1172.000000	0.390556
1173.000000	0.390494
1174.000000	0.390475
1175.000000	0.390248
1176.000000	0.390138
1177.000000	0.390330
1178.000000	0.390384
1179.000000	0.390385
1180.000000	0.390262
1181.000000	0.390046
1182.000000	0.390021
1183.000000	0.390109
1184.000000	0.390150
1185.000000	0.390190
1186.000000	0.390347
1187.000000	0.390385
1188.000000	0.390348
1189.000000	0.390229
1190.000000	0.390136
1191.000000	0.390028
1192.000000	0.389868
1193.000000	0.389932
1194.000000	0.390032
1195.000000	0.390036
1196.000000	0.389996
1197.000000	0.389963
1198.000000	0.389848
1199.000000	0.389815
1200.000000	0.389850
1201.000000	0.389827
1202.000000	0.389851
1203.000000	0.389973
1204.000000	0.390005
1205.000000	0.390020
1206.000000	0.389886
1207.000000	0.389697
1208.000000	0.389583
1209.000000	0.389481
1210.000000	0.389443
1211.000000	0.389499
1212.000000	0.389468
1213.000000	0.389489
1214.000000	0.389472
1215.000000	0.389417
1216.000000	0.389356
1217.000000	0.389128
1218.000000	0.389049
1219.000000	0.389074
1220.000000	0.389175
1221.000000	0.389081
1222.000000	0.389179
1223.000000	0.389220
1224.000000	0.389019
1225.000000	0.389081
1226.000000	0.389131
1227.000000	0.389121
1228.000000	0.389293
1229.000000	0.389266
1230.000000	0.389220
1231.000000	0.388990
1232.000000	0.388599
1233.000000	0.388588
1234.000000	0.388654
1235.000000	0.388662
1236.000000	0.388774
1237.000000	0.388818
1238.000000	0.388688
1239.000000	0.388611
1240.000000	0.388545
1241.000000	0.388538
1242.000000	0.388548
1243.000000	0.388474
1244.000000	0.388539
1245.000000	0.388816
1246.000000	0.388944
1247.000000	0.389080
1248.000000	0.389129
1249.000000	0.388978
1250.000000	0.388891
1251.000000	0.388885
1252.000000	0.388840
1253.000000	0.388861
1254.000000	0.388893
1255.000000	0.388914
1256.000000	0.388928
1257.000000	0.389035
1258.000000	0.389098
1259.000000	0.388965
1260.000000	0.389026
1261.000000	0.389157
1262.000000	0.389196
1263.000000	0.389337
1264.000000	0.389315
1265.000000	0.389148
1266.000000	0.389025
1267.000000	0.388994
1268.000000	0.389063
1269.000000	0.389104
1270.000000	0.389183
1271.000000	0.389093
1272.000000	0.388965
1273.000000	0.388984
1274.000000	0.388913
1275.000000	0.388876
1276.000000	0.388964
1277.000000	0.388990
1278.000000	0.388817
1279.000000	0.388797
1280.000000	0.388787
1281.000000	0.388674
1282.000000	0.388615
1283.000000	0.388682
1284.000000	0.388602
1285.000000	0.388604
1286.000000	0.388749
1287.000000	0.388830
1288.000000	0.388714
1289.000000	0.388684
1290.000000	0.388537
1291.000000	0.388383
1292.000000	0.388450
1293.000000	0.388394
1294.000000	0.388331
1295.000000	0.388367
1296.000000	0.388318
1297.000000	0.388315
1298.000000	0.388391
1299.000000	0.388460
1300.000000	0.388507
1301.000000	0.388502
1302.000000	0.388453
1303.000000	0.388546
1304.000000	0.388457
1305.000000	0.388381
1306.000000	0.388259
1307.000000	0.388079
1308.000000	0.387988
1309.000000	0.387906
1310.000000	0.387811
1311.000000	0.387788
1312.000000	0.387674
1313.000000	0.387561
1314.000000	0.387472
1315.000000	0.387301
1316.000000	0.387072
1317.000000	0.386785
1318.000000	0.386613
1319.000000	0.386566
1320.000000	0.386525
1321.000000	0.386365
1322.000000	0.386128
1323.000000	0.385969
1324.000000	0.385807
1325.000000	0.385563
1326.000000	0.385386
1327.000000	0.385038
1328.000000	0.384737
1329.000000	0.384461
1330.000000	0.384220
1331.000000	0.384078
1332.000000	0.384187
1333.000000	0.384018
1334.000000	0.383889
1335.000000	0.383744
1336.000000	0.383335
1337.000000	0.383076
1338.000000	0.382867
1339.000000	0.382659
1340.000000	0.382402
1341.000000	0.382168
1342.000000	0.381832
1343.000000	0.381524
1344.000000	0.381221
1345.000000	0.380908
1346.000000	0.380783
1347.000000	0.380540
1348.000000	0.380349
1349.000000	0.380054
1350.000000	0.379730
1351.000000	0.379373
1352.000000	0.378894
1353.000000	0.378547
1354.000000	0.378314
1355.000000	0.377985
1356.000000	0.377777
1357.000000	0.377552
1358.000000	0.377209
1359.000000	0.376838
1360.000000	0.376427
1361.000000	0.375904
1362.000000	0.375574
1363.000000	0.375328
1364.000000	0.375053
1365.000000	0.374840
1366.000000	0.374593
1367.000000	0.374312
1368.000000	0.373943
1369.000000	0.373647
1370.000000	0.373306
1371.000000	0.372780
1372.000000	0.372175
1373.000000	0.371667
1374.000000	0.371232
1375.000000	0.370632
1376.000000	0.370154
1377.000000	0.369780
1378.000000	0.369187
1379.000000	0.368484
1380.000000	0.367795
1381.000000	0.366886
1382.000000	0.365706
1383.000000	0.364591
1384.000000	0.363407
1385.000000	0.362126
1386.000000	0.361151
1387.000000	0.360262
1388.000000	0.359270
1389.000000	0.358420
1390.000000	0.357665
1391.000000	0.356866
1392.000000	0.356247
1393.000000	0.355634
1394.000000	0.355176
1395.000000	0.354522
1396.000000	0.353872
1397.000000	0.353060
1398.000000	0.351991
1399.000000	0.351034
1400.000000	0.350121
1401.000000	0.349070
1402.000000	0.348011
1403.000000	0.346928
1404.000000	0.345704
1405.000000	0.344411
1406.000000	0.343128
1407.000000	0.341756
1408.000000	0.340355
1409.000000	0.338892
1410.000000	0.337589
1411.000000	0.336286
1412.000000	0.334718
1413.000000	0.333259
1414.000000	0.331767
1415.000000	0.330233
1416.000000	0.328973
1417.000000	0.327749
1418.000000	0.326318
1419.000000	0.324894
1420.000000	0.323339
1421.000000	0.321888
1422.000000	0.320589
1423.000000	0.319327
1424.000000	0.317985
1425.000000	0.316676
1426.000000	0.315457
1427.000000	0.314329
1428.000000	0.313240
1429.000000	0.312129
1430.000000	0.311036
1431.000000	0.309938
1432.000000	0.308826
1433.000000	0.307741
1434.000000	0.306730
1435.000000	0.305798
1436.000000	0.304902
1437.000000	0.304108
1438.000000	0.303230
1439.000000	0.302371
1440.000000	0.301524
1441.000000	0.300670
1442.000000	0.299905
1443.000000	0.299124
1444.000000	0.298340
1445.000000	0.297723
1446.000000	0.297055
1447.000000	0.296395
1448.000000	0.295729
1449.000000	0.295117
1450.000000	0.294542
1451.000000	0.293979
1452.000000	0.293474
1453.000000	0.292893
1454.000000	0.292383
1455.000000	0.291932
1456.000000	0.291541
1457.000000	0.291319
1458.000000	0.290999
1459.000000	0.290705
1460.000000	0.290559
1461.000000	0.290226
1462.000000	0.289880
1463.000000	0.289663
1464.000000	0.289441
1465.000000	0.289309
1466.000000	0.289167
1467.000000	0.288952
1468.000000	0.288704
1469.000000	0.288564
1470.000000	0.288510
1471.000000	0.288540
1472.000000	0.288626
1473.000000	0.288765
1474.000000	0.288895
1475.000000	0.288999
1476.000000	0.289167
1477.000000	0.289509
1478.000000	0.289839
1479.000000	0.290196
1480.000000	0.290685
1481.000000	0.291076
1482.000000	0.291396
1483.000000	0.291842
1484.000000	0.292326
1485.000000	0.292811
1486.000000	0.293344
1487.000000	0.293877
1488.000000	0.294448
1489.000000	0.294995
1490.000000	0.295438
1491.000000	0.295981
1492.000000	0.296535
1493.000000	0.297007
1494.000000	0.297387
1495.000000	0.297793
1496.000000	0.298151
1497.000000	0.298586
1498.000000	0.299112
1499.000000	0.299596
1500.000000	0.300118
1501.000000	0.300470
1502.000000	0.300836
1503.000000	0.301350
1504.000000	0.301753
1505.000000	0.302144
1506.000000	0.302589
1507.000000	0.302991
1508.000000	0.303480
1509.000000	0.303897
1510.000000	0.304064
1511.000000	0.304285
1512.000000	0.304538
1513.000000	0.304777
1514.000000	0.305185
1515.000000	0.305544
1516.000000	0.305864
1517.000000	0.306171
1518.000000	0.306356
1519.000000	0.306454
1520.000000	0.306548
1521.000000	0.306550
1522.000000	0.306712
1523.000000	0.306976
1524.000000	0.307129
1525.000000	0.307359
1526.000000	0.307500
1527.000000	0.307618
1528.000000	0.307877
1529.000000	0.308068
1530.000000	0.308059
1531.000000	0.308148
1532.000000	0.308298
1533.000000	0.308237
1534.000000	0.308265
1535.000000	0.308392
1536.000000	0.308318
1537.000000	0.308451
1538.000000	0.308764
1539.000000	0.308837
1540.000000	0.308908
1541.000000	0.309055
1542.000000	0.309038
1543.000000	0.309093
1544.000000	0.309232
1545.000000	0.309282
1546.000000	0.309382
1547.000000	0.309538
1548.000000	0.309584
1549.000000	0.309605
1550.000000	0.309620
1551.000000	0.309637
1552.000000	0.309729
1553.000000	0.309772
1554.000000	0.309859
1555.000000	0.309890
1556.000000	0.309852
1557.000000	0.309933
1558.000000	0.309943
1559.000000	0.309828
1560.000000	0.309735
1561.000000	0.309653
1562.000000	0.309575
1563.000000	0.309509
1564.000000	0.309554
1565.000000	0.309712
1566.000000	0.309689
1567.000000	0.309708
1568.000000	0.309696
1569.000000	0.309697
1570.000000	0.309650
1571.000000	0.309561
1572.000000	0.309541
1573.000000	0.309480
1574.000000	0.309471
1575.000000	0.309639
1576.000000	0.309644
1577.000000	0.309507
1578.000000	0.309452
1579.000000	0.309404
1580.000000	0.309397
1581.000000	0.309562
1582.000000	0.309590
1583.000000	0.309560
1584.000000	0.309532
1585.000000	0.309517
1586.000000	0.309540
1587.000000	0.309573
1588.000000	0.309614
1589.000000	0.309726
1590.000000	0.309761
1591.000000	0.309795
1592.000000	0.309793
1593.000000	0.309772
1594.000000	0.309714
1595.000000	0.309609
1596.000000	0.309662
1597.000000	0.309828
1598.000000	0.309867
1599.000000	0.309989
1600.000000	0.310048
1601.000000	0.310033
1602.000000	0.310092
1603.000000	0.310282
1604.000000	0.310359
1605.000000	0.310428
1606.000000	0.310434
1607.000000	0.310417
1608.000000	0.310440
1609.000000	0.310504
1610.000000	0.310493
1611.000000	0.310388
1612.000000	0.310482
1613.000000	0.310746
1614.000000	0.310950
1615.000000	0.311460
1616.000000	0.311695
1617.000000	0.311570
1618.000000	0.311714
1619.000000	0.311919
1620.000000	0.312041
1621.000000	0.312294
1622.000000	0.312501
1623.000000	0.312500
1624.000000	0.312698
1625.000000	0.312962
1626.000000	0.313086
1627.000000	0.313164
1628.000000	0.313332
1629.000000	0.313460
1630.000000	0.313666
1631.000000	0.313927
1632.000000	0.314122
1633.000000	0.314272
1634.000000	0.314462
1635.000000	0.314741
1636.000000	0.314943
1637.000000	0.315151
1638.000000	0.315328
1639.000000	0.315485
1640.000000	0.315686
1641.000000	0.315954
1642.000000	0.316214
1643.000000	0.316539
1644.000000	0.316807
1645.000000	0.317101
1646.000000	0.317292
1647.000000	0.317409
1648.000000	0.317588
1649.000000	0.317837
1650.000000	0.318056
1651.000000	0.318286
1652.000000	0.318673
1653.000000	0.319077
1654.000000	0.319470
1655.000000	0.319980
1656.000000	0.320232
1657.000000	0.320383
1658.000000	0.320605
1659.000000	0.320874
1660.000000	0.321155
1661.000000	0.321360
1662.000000	0.321599
1663.000000	0.321817
1664.000000	0.322053
1665.000000	0.322303
1666.000000	0.322639
1667.000000	0.322949
1668.000000	0.323165
1669.000000	0.323391
1670.000000	0.323520
1671.000000	0.323608
1672.000000	0.323810
1673.000000	0.323990
1674.000000	0.324282
1675.000000	0.324637
1676.000000	0.324773
1677.000000	0.324840
1678.000000	0.324990
1679.000000	0.325135
1680.000000	0.325241
1681.000000	0.325383
1682.000000	0.325453
1683.000000	0.325495
1684.000000	0.325711
1685.000000	0.326066
1686.000000	0.326320
1687.000000	0.326426
1688.000000	0.326432
1689.000000	0.326597
1690.000000	0.326749
1691.000000	0.326942
1692.000000	0.327224
1693.000000	0.327428
1694.000000	0.327545
1695.000000	0.327695
1696.000000	0.327732
1697.000000	0.327827
1698.000000	0.328090
1699.000000	0.328263
1700.000000	0.328419
1701.000000	0.328636
1702.000000	0.328582
1703.000000	0.328623
1704.000000	0.328865
1705.000000	0.329021
1706.000000	0.329239
1707.000000	0.329391
1708.000000	0.329464
1709.000000	0.329435
1710.000000	0.329295
1711.000000	0.329394
1712.000000	0.329607
1713.000000	0.329796
1714.000000	0.330263
1715.000000	0.330506
1716.000000	0.330606
1717.000000	0.330709
1718.000000	0.330667
1719.000000	0.330726
1720.000000	0.330831
1721.000000	0.330973
1722.000000	0.331264
1723.000000	0.331409
1724.000000	0.331466
1725.000000	0.331677
1726.000000	0.331807
1727.000000	0.331968
1728.000000	0.332207
1729.000000	0.332323
1730.000000	0.332458
1731.000000	0.332630
1732.000000	0.332885
1733.000000	0.333055
1734.000000	0.332984
1735.000000	0.333149
1736.000000	0.333322
1737.000000	0.333508
1738.000000	0.333903
1739.000000	0.334051
1740.000000	0.334014
1741.000000	0.334090
1742.000000	0.334131
1743.000000	0.334316
1744.000000	0.334627
1745.000000	0.334650
1746.000000	0.334538
1747.000000	0.334713
1748.000000	0.334830
1749.000000	0.335341
1750.000000	0.335570
1751.000000	0.335575
1752.000000	0.335783
1753.000000	0.335837
1754.000000	0.335961
1755.000000	0.336156
1756.000000	0.336324
1757.000000	0.336494
1758.000000	0.336678
1759.000000	0.336870
1760.000000	0.337034
1761.000000	0.337161
1762.000000	0.337253
1763.000000	0.337335
1764.000000	0.337407
1765.000000	0.337331
1766.000000	0.337437
1767.000000	0.337538
1768.000000	0.337656
1769.000000	0.338097
1770.000000	0.338281
1771.000000	0.338244
1772.000000	0.338327
1773.000000	0.338279
1774.000000	0.338317
1775.000000	0.338499
1776.000000	0.338688
1777.000000	0.338876
1778.000000	0.338956
1779.000000	0.338998
1780.000000	0.339185
1781.000000	0.339314
1782.000000	0.339408
1783.000000	0.339680
1784.000000	0.339779
1785.000000	0.339838
1786.000000	0.339946
1787.000000	0.340100
1788.000000	0.340294
1789.000000	0.340486
1790.000000	0.340643
1791.000000	0.340813
1792.000000	0.340968
1793.000000	0.341123
1794.000000	0.341529
1795.000000	0.341743
1796.000000	0.341650
1797.000000	0.341751
1798.000000	0.341819
1799.000000	0.341978
1800.000000	0.342449
1801.000000	0.341615
1802.000000	0.342283
1803.000000	0.342347
1804.000000	0.343430
1805.000000	0.346316
1806.000000	0.347226
1807.000000	0.347853
1808.000000	0.347924
1809.000000	0.346750
1810.000000	0.345387
1811.000000	0.344691
1812.000000	0.343990
1813.000000	0.343686
1814.000000	0.344055
1815.000000	0.343818
1816.000000	0.343279
1817.000000	0.343075
1818.000000	0.342902
1819.000000	0.343004
1820.000000	0.342975
1821.000000	0.342436
1822.000000	0.342444
1823.000000	0.341839
1824.000000	0.342127
1825.000000	0.343921
1826.000000	0.344433
1827.000000	0.344579
1828.000000	0.344478
1829.000000	0.343557
1830.000000	0.342384
1831.000000	0.342098
1832.000000	0.341805
1833.000000	0.342161
1834.000000	0.344083
1835.000000	0.344305
1836.000000	0.344041
1837.000000	0.343882
1838.000000	0.342863
1839.000000	0.341510
1840.000000	0.341134
1841.000000	0.340735
1842.000000	0.340492
1843.000000	0.340456
1844.000000	0.340244
1845.000000	0.340060
1846.000000	0.339925
1847.000000	0.339532
1848.000000	0.338969
1849.000000	0.339031
1850.000000	0.338920
1851.000000	0.338697
1852.000000	0.338626
1853.000000	0.338072
1854.000000	0.336907
1855.000000	0.335718
1856.000000	0.334080
1857.000000	0.332510
1858.000000	0.331033
1859.000000	0.330446
1860.000000	0.329412
1861.000000	0.328764
1862.000000	0.328051
1863.000000	0.327614
1864.000000	0.326459
1865.000000	0.325414
1866.000000	0.323809
1867.000000	0.321354
1868.000000	0.319037
1869.000000	0.316989
1870.000000	0.314648
1871.000000	0.312094
1872.000000	0.309815
1873.000000	0.307492
1874.000000	0.304890
1875.000000	0.302533
1876.000000	0.300539
1877.000000	0.297409
1878.000000	0.294424
1879.000000	0.291648
1880.000000	0.287996
1881.000000	0.284839
1882.000000	0.281083
1883.000000	0.277236
1884.000000	0.273758
1885.000000	0.270509
1886.000000	0.266507
1887.000000	0.262421
1888.000000	0.258006
1889.000000	0.253075
1890.000000	0.248954
1891.000000	0.245101
1892.000000	0.241118
1893.000000	0.237301
1894.000000	0.232867
1895.000000	0.228684
1896.000000	0.224739
1897.000000	0.221063
1898.000000	0.216594
1899.000000	0.212398
1900.000000	0.208382
1901.000000	0.204533
1902.000000	0.201135
1903.000000	0.197719
1904.000000	0.194361
1905.000000	0.190668
1906.000000	0.186877
1907.000000	0.182658
1908.000000	0.179185
1909.000000	0.176338
1910.000000	0.173299
1911.000000	0.170530
1912.000000	0.168313
1913.000000	0.166275
1914.000000	0.164175
1915.000000	0.161900
1916.000000	0.160355
1917.000000	0.158838
1918.000000	0.157274
1919.000000	0.155889
1920.000000	0.155165
1921.000000	0.154217
1922.000000	0.152865
1923.000000	0.151779
1924.000000	0.151308
1925.000000	0.150551
1926.000000	0.150210
1927.000000	0.150207
1928.000000	0.149795
1929.000000	0.149246
1930.000000	0.148692
1931.000000	0.147605
1932.000000	0.146737
1933.000000	0.145981
1934.000000	0.145429
1935.000000	0.145670
1936.000000	0.145310
1937.000000	0.144890
1938.000000	0.144955
1939.000000	0.144976
1940.000000	0.144955
1941.000000	0.145142
1942.000000	0.145188
1943.000000	0.145132
1944.000000	0.144810
1945.000000	0.144265
1946.000000	0.144097
1947.000000	0.143966
1948.000000	0.143188
1949.000000	0.142657
1950.000000	0.142788
1951.000000	0.142441
1952.000000	0.141802
1953.000000	0.141316
1954.000000	0.141082
1955.000000	0.140189
1956.000000	0.139531
1957.000000	0.139800
1958.000000	0.139457
1959.000000	0.138815
1960.000000	0.138533
1961.000000	0.137324
1962.000000	0.136737
1963.000000	0.136239
1964.000000	0.136779
1965.000000	0.137192
1966.000000	0.137619
1967.000000	0.138126
1968.000000	0.138014
1969.000000	0.137651
1970.000000	0.137851
1971.000000	0.137771
1972.000000	0.137847
1973.000000	0.137982
1974.000000	0.138280
1975.000000	0.138498
1976.000000	0.139052
1977.000000	0.138816
1978.000000	0.138700
1979.000000	0.138696
1980.000000	0.138179
1981.000000	0.138477
1982.000000	0.139310
1983.000000	0.139680
1984.000000	0.140159
1985.000000	0.140987
1986.000000	0.141719
1987.000000	0.142469
1988.000000	0.142893
1989.000000	0.143245
1990.000000	0.143862
1991.000000	0.144227
1992.000000	0.144392
1993.000000	0.144892
1994.000000	0.145621
1995.000000	0.146331
1996.000000	0.146898
1997.000000	0.147534
1998.000000	0.148426
1999.000000	0.149047
2000.000000	0.149050
2001.000000	0.150143
2002.000000	0.151473
2003.000000	0.152788
2004.000000	0.155055
2005.000000	0.156570
2006.000000	0.157619
2007.000000	0.158543
2008.000000	0.159020
2009.000000	0.158280
2010.000000	0.158841
2011.000000	0.159528
2012.000000	0.160501
2013.000000	0.161983
2014.000000	0.164022
2015.000000	0.165126
2016.000000	0.165935
2017.000000	0.166939
2018.000000	0.167324
2019.000000	0.168438
2020.000000	0.169784
2021.000000	0.170963
2022.000000	0.172406
2023.000000	0.173506
2024.000000	0.174349
2025.000000	0.175297
2026.000000	0.175990
2027.000000	0.176639
2028.000000	0.177913
2029.000000	0.179354
2030.000000	0.181027
2031.000000	0.182466
2032.000000	0.183728
2033.000000	0.185041
2034.000000	0.185959
2035.000000	0.186634
2036.000000	0.187372
2037.000000	0.187836
2038.000000	0.188490
2039.000000	0.189111
2040.000000	0.190279
2041.000000	0.191758
2042.000000	0.192850
2043.000000	0.193818
2044.000000	0.194470
2045.000000	0.194728
2046.000000	0.195251
2047.000000	0.195971
2048.000000	0.196826
2049.000000	0.198047
2050.000000	0.199755
2051.000000	0.200720
2052.000000	0.201469
2053.000000	0.202289
2054.000000	0.203020
2055.000000	0.203143
2056.000000	0.204047
2057.000000	0.205263
2058.000000	0.206260
2059.000000	0.207160
2060.000000	0.207803
2061.000000	0.208224
2062.000000	0.208663
2063.000000	0.208696
2064.000000	0.209297
2065.000000	0.210264
2066.000000	0.211250
2067.000000	0.212953
2068.000000	0.214294
2069.000000	0.215157
2070.000000	0.215749
2071.000000	0.215889
2072.000000	0.216247
2073.000000	0.216768
2074.000000	0.217541
2075.000000	0.218381
2076.000000	0.219531
2077.000000	0.220302
2078.000000	0.220853
2079.000000	0.221774
2080.000000	0.222845
2081.000000	0.223782
2082.000000	0.225066
2083.000000	0.225972
2084.000000	0.226432
2085.000000	0.226861
2086.000000	0.227676
2087.000000	0.228708
2088.000000	0.229681
2089.000000	0.230672
2090.000000	0.231661
2091.000000	0.232479
2092.000000	0.233591
2093.000000	0.235136
2094.000000	0.236227
2095.000000	0.237199
2096.000000	0.238070
2097.000000	0.238617
2098.000000	0.239140
2099.000000	0.239819
2100.000000	0.241097
2101.000000	0.241888
2102.000000	0.242495
2103.000000	0.243068
2104.000000	0.243000
2105.000000	0.243399
2106.000000	0.243782
2107.000000	0.244663
2108.000000	0.246163
2109.000000	0.247041
2110.000000	0.247916
2111.000000	0.248454
2112.000000	0.248402
2113.000000	0.248257
2114.000000	0.248026
2115.000000	0.248214
2116.000000	0.248713
2117.000000	0.249450
2118.000000	0.250611
2119.000000	0.251490
2120.000000	0.252014
2121.000000	0.252081
2122.000000	0.252311
2123.000000	0.252090
2124.000000	0.252395
2125.000000	0.253189
2126.000000	0.253497
2127.000000	0.253519
2128.000000	0.254277
2129.000000	0.255224
2130.000000	0.255990
2131.000000	0.257060
2132.000000	0.257806
2133.000000	0.258120
2134.000000	0.258446
2135.000000	0.259318
2136.000000	0.260457
2137.000000	0.260918
2138.000000	0.261267
2139.000000	0.261218
2140.000000	0.259988
2141.000000	0.259957
2142.000000	0.260452
2143.000000	0.260483
2144.000000	0.261121
2145.000000	0.261554
2146.000000	0.261954
2147.000000	0.261904
2148.000000	0.261733
2149.000000	0.262308
2150.000000	0.262197
2151.000000	0.262547
2152.000000	0.263769
2153.000000	0.264225
2154.000000	0.264050
2155.000000	0.263258
2156.000000	0.262730
2157.000000	0.261050
2158.000000	0.260970
2159.000000	0.262143
2160.000000	0.262811
2161.000000	0.264429
2162.000000	0.265083
2163.000000	0.264807
2164.000000	0.264897
2165.000000	0.265009
2166.000000	0.264411
2167.000000	0.264161
2168.000000	0.264269
2169.000000	0.264013
2170.000000	0.263836
2171.000000	0.263621
2172.000000	0.263198
2173.000000	0.263171
2174.000000	0.263288
2175.000000	0.263493
2176.000000	0.264498
2177.000000	0.264526
2178.000000	0.263737
2179.000000	0.263760
2180.000000	0.263286
2181.000000	0.263834
2182.000000	0.265165
2183.000000	0.266361
2184.000000	0.266919
2185.000000	0.266312
2186.000000	0.264527
2187.000000	0.263249
2188.000000	0.262697
2189.000000	0.262316
2190.000000	0.262649
2191.000000	0.263710
2192.000000	0.263635
2193.000000	0.262903
2194.000000	0.262270
2195.000000	0.260524
2196.000000	0.259866
2197.000000	0.259302
2198.000000	0.260049
2199.000000	0.263236
2200.000000	0.264711
2201.000000	0.266425
2202.000000	0.267837
2203.000000	0.268073
2204.000000	0.267574
2205.000000	0.267783
2206.000000	0.266876
2207.000000	0.266124
2208.000000	0.264799
2209.000000	0.264469
2210.000000	0.264757
2211.000000	0.263723
2212.000000	0.263959
2213.000000	0.264001
2214.000000	0.263766
2215.000000	0.264279
2216.000000	0.265513
2217.000000	0.266163
2218.000000	0.267380
2219.000000	0.268137
2220.000000	0.268342
2221.000000	0.269019
2222.000000	0.270401
2223.000000	0.270057
2224.000000	0.268718
2225.000000	0.267816
2226.000000	0.265234
2227.000000	0.263768
2228.000000	0.265519
2229.000000	0.266065
2230.000000	0.266786
2231.000000	0.268338
2232.000000	0.269061
2233.000000	0.269803
2234.000000	0.270262
2235.000000	0.271064
2236.000000	0.271724
2237.000000	0.271917
2238.000000	0.272028
2239.000000	0.272482
2240.000000	0.272427
2241.000000	0.271888
2242.000000	0.270754
2243.000000	0.268834
2244.000000	0.268076
2245.000000	0.266746
2246.000000	0.266389
2247.000000	0.267588
2248.000000	0.267934
2249.000000	0.268227
2250.000000	0.268747
2251.000000	0.268337
2252.000000	0.267994
2253.000000	0.265837
2254.000000	0.264807
2255.000000	0.264499
2256.000000	0.262971
2257.000000	0.264148
2258.000000	0.264947
2259.000000	0.265097
2260.000000	0.264621
2261.000000	0.263762
2262.000000	0.261676
2263.000000	0.261208
2264.000000	0.261590
2265.000000	0.262152
2266.000000	0.263844
2267.000000	0.263480
2268.000000	0.260817
2269.000000	0.260555
2270.000000	0.261431
2271.000000	0.261463
2272.000000	0.262949
2273.000000	0.263176
2274.000000	0.260447
2275.000000	0.260487
2276.000000	0.262881
2277.000000	0.263310
2278.000000	0.262972
2279.000000	0.261798
2280.000000	0.256334
2281.000000	0.251532
2282.000000	0.249815
2283.000000	0.248559
2284.000000	0.249616
2285.000000	0.251405
2286.000000	0.252698
2287.000000	0.253203
2288.000000	0.252217
2289.000000	0.254077
2290.000000	0.253811
2291.000000	0.249785
2292.000000	0.246814
2293.000000	0.241702
2294.000000	0.239357
2295.000000	0.239176
2296.000000	0.238249
2297.000000	0.238435
2298.000000	0.238477
2299.000000	0.237126
2300.000000	0.237222
2301.000000	0.240024
2302.000000	0.239153
2303.000000	0.236823
2304.000000	0.235111
2305.000000	0.230408
2306.000000	0.228645
2307.000000	0.228788
2308.000000	0.229117
2309.000000	0.228683
2310.000000	0.228736
2311.000000	0.227517
2312.000000	0.225257
2313.000000	0.224238
2314.000000	0.222955
2315.000000	0.222436
2316.000000	0.223014
2317.000000	0.224054
2318.000000	0.224613
2319.000000	0.225710
2320.000000	0.225387
2321.000000	0.222487
2322.000000	0.222479
2323.000000	0.222097
2324.000000	0.220305
2325.000000	0.220116
2326.000000	0.219941
2327.000000	0.218574
2328.000000	0.216945
2329.000000	0.215971
2330.000000	0.213354
2331.000000	0.211228
2332.000000	0.212188
2333.000000	0.213875
2334.000000	0.214109
2335.000000	0.214492
2336.000000	0.214531
2337.000000	0.212883
2338.000000	0.210555
2339.000000	0.208730
2340.000000	0.203903
2341.000000	0.203526
2342.000000	0.206972
2343.000000	0.206471
2344.000000	0.207508
2345.000000	0.206138
2346.000000	0.199719
2347.000000	0.197220
2348.000000	0.196138
2349.000000	0.194650
2350.000000	0.194864
2351.000000	0.192016
2352.000000	0.189678
2353.000000	0.187618
2354.000000	0.182789
2355.000000	0.181928
2356.000000	0.181375
2357.000000	0.180628
2358.000000	0.181075
2359.000000	0.180441
2360.000000	0.176206
2361.000000	0.171840
2362.000000	0.170199
2363.000000	0.168708
2364.000000	0.169936
2365.000000	0.170948
2366.000000	0.172512
2367.000000	0.172385
2368.000000	0.171610
2369.000000	0.171697
2370.000000	0.167004
2371.000000	0.163822
2372.000000	0.161783
2373.000000	0.162716
2374.000000	0.166823
2375.000000	0.167937
2376.000000	0.166185
2377.000000	0.161332
2378.000000	0.158499
2379.000000	0.156461
2380.000000	0.155441
2381.000000	0.154667
2382.000000	0.150301
2383.000000	0.146308
2384.000000	0.144744
2385.000000	0.147140
2386.000000	0.151186
2387.000000	0.156343
2388.000000	0.160583
2389.000000	0.161063
2390.000000	0.158159
2391.000000	0.154899
2392.000000	0.154653
2393.000000	0.153858
2394.000000	0.150698
2395.000000	0.150493
2396.000000	0.147805
2397.000000	0.144296
2398.000000	0.149968
2399.000000	0.148897
2400.000000	0.148545
2401.000000	0.151957
2402.000000	0.150868
2403.000000	0.152809
2404.000000	0.148986
2405.000000	0.142994
2406.000000	0.136708
2407.000000	0.127810
2408.000000	0.129657
2409.000000	0.141366
2410.000000	0.146311
2411.000000	0.150201
2412.000000	0.149412
2413.000000	0.132933
2414.000000	0.121840
2415.000000	0.122725
2416.000000	0.124759
2417.000000	0.127560
2418.000000	0.133068
2419.000000	0.129791
2420.000000	0.118516
2421.000000	0.118423
2422.000000	0.123179
2423.000000	0.123556
2424.000000	0.125925
2425.000000	0.126829
2426.000000	0.125893
2427.000000	0.135547
2428.000000	0.149028
2429.000000	0.152826
2430.000000	0.157028
2431.000000	0.152156
2432.000000	0.137736
2433.000000	0.137751
2434.000000	0.134533
2435.000000	0.118385
2436.000000	0.120819
2437.000000	0.133599
2438.000000	0.126364
2439.000000	0.124041
2440.000000	0.121817
2441.000000	0.100493
2442.000000	0.099515
2443.000000	0.116207
2444.000000	0.124536
2445.000000	0.129870
2446.000000	0.132905
2447.000000	0.123030
2448.000000	0.101818
2449.000000	0.095648
2450.000000	0.101732
2451.000000	0.108909
2452.000000	0.127243
2453.000000	0.136073
2454.000000	0.132079
2455.000000	0.125703
2456.000000	0.116017
2457.000000	0.121312
2458.000000	0.128276
2459.000000	0.126045
2460.000000	0.124699
2461.000000	0.116037
2462.000000	0.106843
2463.000000	0.099455
2464.000000	0.095575
2465.000000	0.097037
2466.000000	0.097431
2467.000000	0.088424
2468.000000	0.089353
2469.000000	0.099478
2470.000000	0.089322
2471.000000	0.116389
2472.000000	0.152449
2473.000000	0.157340
2474.000000	0.168524
2475.000000	0.157351
2476.000000	0.126621
2477.000000	0.091422
2478.000000	0.087353
2479.000000	0.089052
2480.000000	0.078820
2481.000000	0.097845
2482.000000	0.107179
2483.000000	0.123655
2484.000000	0.134318
2485.000000	0.127361
2486.000000	0.126810
2487.000000	0.101237
2488.000000	0.094144
2489.000000	0.094571
2490.000000	0.053702
2491.000000	-0.016950
2492.000000	-0.039464
2493.000000	-0.042384
2494.000000	-0.026168
2495.000000	0.058678
2496.000000	0.098047
2497.000000	0.123474
2498.000000	0.129031
2499.000000	0.091087
2500.000000	0.075697
