# Wavelength	SM1200H-40_FV7-60_00003.asd.rts.txt
350.000000	0.240429
351.000000	0.232963
352.000000	0.232484
353.000000	0.235723
354.000000	0.239558
355.000000	0.233554
356.000000	0.235652
357.000000	0.243852
358.000000	0.238032
359.000000	0.238386
360.000000	0.243577
361.000000	0.246798
362.000000	0.244139
363.000000	0.243009
364.000000	0.246189
365.000000	0.246103
366.000000	0.247031
367.000000	0.248320
368.000000	0.245726
369.000000	0.246671
370.000000	0.249806
371.000000	0.251378
372.000000	0.251598
373.000000	0.251759
374.000000	0.253008
375.000000	0.253954
376.000000	0.252929
377.000000	0.250896
378.000000	0.251779
379.000000	0.252721
380.000000	0.253080
381.000000	0.253698
382.000000	0.253148
383.000000	0.252566
384.000000	0.253285
385.000000	0.255819
386.000000	0.257181
387.000000	0.257294
388.000000	0.258808
389.000000	0.259157
390.000000	0.259473
391.000000	0.261443
392.000000	0.261785
393.000000	0.261282
394.000000	0.260974
395.000000	0.260628
396.000000	0.261099
397.000000	0.262138
398.000000	0.262126
399.000000	0.262017
400.000000	0.262389
401.000000	0.263494
402.000000	0.264007
403.000000	0.264546
404.000000	0.265737
405.000000	0.265955
406.000000	0.265904
407.000000	0.266113
408.000000	0.266611
409.000000	0.266993
410.000000	0.267278
411.000000	0.267683
412.000000	0.267874
413.000000	0.268026
414.000000	0.268396
415.000000	0.268882
416.000000	0.269375
417.000000	0.269811
418.000000	0.270255
419.000000	0.270278
420.000000	0.270159
421.000000	0.270824
422.000000	0.271228
423.000000	0.271479
424.000000	0.272056
425.000000	0.272478
426.000000	0.272597
427.000000	0.272477
428.000000	0.272793
429.000000	0.273070
430.000000	0.273213
431.000000	0.273629
432.000000	0.273780
433.000000	0.273878
434.000000	0.274546
435.000000	0.274751
436.000000	0.274683
437.000000	0.274711
438.000000	0.274980
439.000000	0.275304
440.000000	0.275608
441.000000	0.275631
442.000000	0.275791
443.000000	0.276017
444.000000	0.276088
445.000000	0.276180
446.000000	0.276444
447.000000	0.276770
448.000000	0.276969
449.000000	0.277126
450.000000	0.277328
451.000000	0.277500
452.000000	0.277832
453.000000	0.278250
454.000000	0.278640
455.000000	0.278859
456.000000	0.279064
457.000000	0.279333
458.000000	0.279666
459.000000	0.279895
460.000000	0.279989
461.000000	0.280279
462.000000	0.280512
463.000000	0.280490
464.000000	0.280756
465.000000	0.281016
466.000000	0.281178
467.000000	0.281411
468.000000	0.281734
469.000000	0.281933
470.000000	0.281997
471.000000	0.282215
472.000000	0.282481
473.000000	0.282719
474.000000	0.282925
475.000000	0.282970
476.000000	0.283052
477.000000	0.283347
478.000000	0.283471
479.000000	0.283685
480.000000	0.284067
481.000000	0.284256
482.000000	0.284479
483.000000	0.284711
484.000000	0.284880
485.000000	0.285018
486.000000	0.285309
487.000000	0.285533
488.000000	0.285757
489.000000	0.286002
490.000000	0.286244
491.000000	0.286466
492.000000	0.286757
493.000000	0.287051
494.000000	0.287232
495.000000	0.287491
496.000000	0.287856
497.000000	0.288017
498.000000	0.288212
499.000000	0.288547
500.000000	0.288741
501.000000	0.288989
502.000000	0.289330
503.000000	0.289637
504.000000	0.289892
505.000000	0.290115
506.000000	0.290329
507.000000	0.290482
508.000000	0.290706
509.000000	0.291006
510.000000	0.291287
511.000000	0.291592
512.000000	0.291924
513.000000	0.292192
514.000000	0.292516
515.000000	0.292856
516.000000	0.293062
517.000000	0.293315
518.000000	0.293613
519.000000	0.293844
520.000000	0.294068
521.000000	0.294291
522.000000	0.294546
523.000000	0.294907
524.000000	0.295210
525.000000	0.295461
526.000000	0.295808
527.000000	0.296055
528.000000	0.296226
529.000000	0.296454
530.000000	0.296728
531.000000	0.297046
532.000000	0.297304
533.000000	0.297546
534.000000	0.297831
535.000000	0.298140
536.000000	0.298433
537.000000	0.298702
538.000000	0.298942
539.000000	0.299137
540.000000	0.299345
541.000000	0.299563
542.000000	0.299817
543.000000	0.300080
544.000000	0.300371
545.000000	0.300626
546.000000	0.300877
547.000000	0.301162
548.000000	0.301499
549.000000	0.301778
550.000000	0.302024
551.000000	0.302267
552.000000	0.302487
553.000000	0.302763
554.000000	0.303071
555.000000	0.303390
556.000000	0.303723
557.000000	0.304007
558.000000	0.304344
559.000000	0.304626
560.000000	0.304859
561.000000	0.305136
562.000000	0.305420
563.000000	0.305672
564.000000	0.305945
565.000000	0.306189
566.000000	0.306523
567.000000	0.306872
568.000000	0.307176
569.000000	0.307534
570.000000	0.307869
571.000000	0.308154
572.000000	0.308429
573.000000	0.308760
574.000000	0.309082
575.000000	0.309356
576.000000	0.309653
577.000000	0.309927
578.000000	0.310205
579.000000	0.310497
580.000000	0.310780
581.000000	0.311048
582.000000	0.311321
583.000000	0.311582
584.000000	0.311841
585.000000	0.312127
586.000000	0.312415
587.000000	0.312694
588.000000	0.312959
589.000000	0.313206
590.000000	0.313409
591.000000	0.313563
592.000000	0.313703
593.000000	0.313887
594.000000	0.314106
595.000000	0.314279
596.000000	0.314446
597.000000	0.314650
598.000000	0.314823
599.000000	0.314976
600.000000	0.315184
601.000000	0.315418
602.000000	0.315664
603.000000	0.315901
604.000000	0.316114
605.000000	0.316266
606.000000	0.316338
607.000000	0.316395
608.000000	0.316558
609.000000	0.316748
610.000000	0.316947
611.000000	0.317144
612.000000	0.317315
613.000000	0.317485
614.000000	0.317696
615.000000	0.317849
616.000000	0.317970
617.000000	0.318063
618.000000	0.318231
619.000000	0.318448
620.000000	0.318638
621.000000	0.318780
622.000000	0.318935
623.000000	0.319112
624.000000	0.319288
625.000000	0.319352
626.000000	0.319416
627.000000	0.319554
628.000000	0.319774
629.000000	0.320032
630.000000	0.320219
631.000000	0.320510
632.000000	0.320810
633.000000	0.321084
634.000000	0.321292
635.000000	0.321421
636.000000	0.321530
637.000000	0.321624
638.000000	0.321665
639.000000	0.321719
640.000000	0.321835
641.000000	0.321862
642.000000	0.321864
643.000000	0.321855
644.000000	0.321845
645.000000	0.321863
646.000000	0.321926
647.000000	0.322001
648.000000	0.322040
649.000000	0.322156
650.000000	0.322329
651.000000	0.322429
652.000000	0.322526
653.000000	0.322676
654.000000	0.322829
655.000000	0.322948
656.000000	0.323084
657.000000	0.323231
658.000000	0.323405
659.000000	0.323584
660.000000	0.323732
661.000000	0.323844
662.000000	0.323925
663.000000	0.324037
664.000000	0.324159
665.000000	0.324295
666.000000	0.324432
667.000000	0.324535
668.000000	0.324692
669.000000	0.324888
670.000000	0.325103
671.000000	0.325308
672.000000	0.325515
673.000000	0.325709
674.000000	0.325880
675.000000	0.326037
676.000000	0.326179
677.000000	0.326325
678.000000	0.326481
679.000000	0.326630
680.000000	0.326767
681.000000	0.326890
682.000000	0.327062
683.000000	0.327204
684.000000	0.327350
685.000000	0.327473
686.000000	0.327597
687.000000	0.327696
688.000000	0.327780
689.000000	0.327848
690.000000	0.327938
691.000000	0.328039
692.000000	0.328134
693.000000	0.328287
694.000000	0.328455
695.000000	0.328637
696.000000	0.328812
697.000000	0.328959
698.000000	0.329094
699.000000	0.329244
700.000000	0.329424
701.000000	0.329547
702.000000	0.329689
703.000000	0.329852
704.000000	0.329992
705.000000	0.330158
706.000000	0.330312
707.000000	0.330484
708.000000	0.330631
709.000000	0.330760
710.000000	0.330907
711.000000	0.331072
712.000000	0.331231
713.000000	0.331383
714.000000	0.331476
715.000000	0.331568
716.000000	0.331674
717.000000	0.331764
718.000000	0.331896
719.000000	0.332030
720.000000	0.332146
721.000000	0.332296
722.000000	0.332432
723.000000	0.332592
724.000000	0.332728
725.000000	0.332770
726.000000	0.332815
727.000000	0.332852
728.000000	0.332943
729.000000	0.333081
730.000000	0.333188
731.000000	0.333296
732.000000	0.333483
733.000000	0.333757
734.000000	0.333902
735.000000	0.333921
736.000000	0.333995
737.000000	0.334084
738.000000	0.334070
739.000000	0.334087
740.000000	0.334069
741.000000	0.334119
742.000000	0.334176
743.000000	0.334204
744.000000	0.334291
745.000000	0.334289
746.000000	0.334272
747.000000	0.334266
748.000000	0.334280
749.000000	0.334337
750.000000	0.334424
751.000000	0.334609
752.000000	0.334758
753.000000	0.334859
754.000000	0.334973
755.000000	0.335087
756.000000	0.335212
757.000000	0.335312
758.000000	0.335400
759.000000	0.335490
760.000000	0.335526
761.000000	0.335622
762.000000	0.335673
763.000000	0.335674
764.000000	0.335770
765.000000	0.335864
766.000000	0.335951
767.000000	0.336032
768.000000	0.336090
769.000000	0.336121
770.000000	0.336113
771.000000	0.336013
772.000000	0.336038
773.000000	0.336105
774.000000	0.336152
775.000000	0.336189
776.000000	0.336240
777.000000	0.336301
778.000000	0.336356
779.000000	0.336433
780.000000	0.336533
781.000000	0.336605
782.000000	0.336646
783.000000	0.336727
784.000000	0.336736
785.000000	0.336765
786.000000	0.336799
787.000000	0.336813
788.000000	0.336794
789.000000	0.336740
790.000000	0.336696
791.000000	0.336776
792.000000	0.336799
793.000000	0.336766
794.000000	0.336726
795.000000	0.336748
796.000000	0.336785
797.000000	0.336819
798.000000	0.336871
799.000000	0.336870
800.000000	0.336856
801.000000	0.336895
802.000000	0.336947
803.000000	0.337028
804.000000	0.337136
805.000000	0.337088
806.000000	0.336944
807.000000	0.336829
808.000000	0.336731
809.000000	0.336708
810.000000	0.336785
811.000000	0.336920
812.000000	0.336972
813.000000	0.336976
814.000000	0.336971
815.000000	0.337024
816.000000	0.336968
817.000000	0.336902
818.000000	0.336862
819.000000	0.336874
820.000000	0.336842
821.000000	0.336703
822.000000	0.336604
823.000000	0.336684
824.000000	0.336785
825.000000	0.336792
826.000000	0.336808
827.000000	0.336748
828.000000	0.336622
829.000000	0.336477
830.000000	0.336348
831.000000	0.336345
832.000000	0.336415
833.000000	0.336531
834.000000	0.336590
835.000000	0.336560
836.000000	0.336472
837.000000	0.336334
838.000000	0.336238
839.000000	0.336287
840.000000	0.336356
841.000000	0.336404
842.000000	0.336360
843.000000	0.336218
844.000000	0.336064
845.000000	0.335921
846.000000	0.335831
847.000000	0.335716
848.000000	0.335630
849.000000	0.335663
850.000000	0.335657
851.000000	0.335631
852.000000	0.335636
853.000000	0.335626
854.000000	0.335501
855.000000	0.335416
856.000000	0.335362
857.000000	0.335238
858.000000	0.335102
859.000000	0.334901
860.000000	0.334644
861.000000	0.334505
862.000000	0.334465
863.000000	0.334347
864.000000	0.334186
865.000000	0.334093
866.000000	0.334097
867.000000	0.333992
868.000000	0.333897
869.000000	0.333751
870.000000	0.333569
871.000000	0.333354
872.000000	0.333157
873.000000	0.332953
874.000000	0.332793
875.000000	0.332707
876.000000	0.332685
877.000000	0.332613
878.000000	0.332477
879.000000	0.332290
880.000000	0.331962
881.000000	0.331764
882.000000	0.331516
883.000000	0.331272
884.000000	0.331096
885.000000	0.330999
886.000000	0.330968
887.000000	0.330977
888.000000	0.330892
889.000000	0.330746
890.000000	0.330504
891.000000	0.330362
892.000000	0.330264
893.000000	0.330109
894.000000	0.329945
895.000000	0.329608
896.000000	0.329152
897.000000	0.328762
898.000000	0.328618
899.000000	0.328523
900.000000	0.328394
901.000000	0.328179
902.000000	0.328005
903.000000	0.327858
904.000000	0.327789
905.000000	0.327715
906.000000	0.327607
907.000000	0.327338
908.000000	0.327003
909.000000	0.326741
910.000000	0.326492
911.000000	0.326267
912.000000	0.326087
913.000000	0.325866
914.000000	0.325605
915.000000	0.325415
916.000000	0.325287
917.000000	0.325087
918.000000	0.324891
919.000000	0.324708
920.000000	0.324352
921.000000	0.324159
922.000000	0.324069
923.000000	0.323802
924.000000	0.323511
925.000000	0.323133
926.000000	0.322717
927.000000	0.322407
928.000000	0.322095
929.000000	0.321787
930.000000	0.321531
931.000000	0.321399
932.000000	0.321196
933.000000	0.320889
934.000000	0.320525
935.000000	0.320237
936.000000	0.320011
937.000000	0.319706
938.000000	0.319432
939.000000	0.319279
940.000000	0.319152
941.000000	0.319020
942.000000	0.318776
943.000000	0.318537
944.000000	0.318242
945.000000	0.317924
946.000000	0.317648
947.000000	0.317425
948.000000	0.317167
949.000000	0.316888
950.000000	0.316756
951.000000	0.316662
952.000000	0.316376
953.000000	0.315989
954.000000	0.315688
955.000000	0.315504
956.000000	0.315347
957.000000	0.315206
958.000000	0.315004
959.000000	0.314801
960.000000	0.314622
961.000000	0.314485
962.000000	0.314336
963.000000	0.314110
964.000000	0.313766
965.000000	0.313434
966.000000	0.313111
967.000000	0.312835
968.000000	0.312723
969.000000	0.312623
970.000000	0.312402
971.000000	0.311992
972.000000	0.311699
973.000000	0.311494
974.000000	0.311124
975.000000	0.310857
976.000000	0.310617
977.000000	0.310317
978.000000	0.310054
979.000000	0.310021
980.000000	0.309823
981.000000	0.309426
982.000000	0.309140
983.000000	0.308965
984.000000	0.308904
985.000000	0.308808
986.000000	0.308498
987.000000	0.308200
988.000000	0.307981
989.000000	0.307838
990.000000	0.307594
991.000000	0.307351
992.000000	0.307291
993.000000	0.307168
994.000000	0.307027
995.000000	0.306953
996.000000	0.306657
997.000000	0.306506
998.000000	0.306497
999.000000	0.306556
1000.000000	0.306319
1001.000000	0.306548
1002.000000	0.306621
1003.000000	0.306203
1004.000000	0.305846
1005.000000	0.305324
1006.000000	0.305008
1007.000000	0.304677
1008.000000	0.304619
1009.000000	0.304598
1010.000000	0.304254
1011.000000	0.304203
1012.000000	0.304258
1013.000000	0.304070
1014.000000	0.303928
1015.000000	0.303811
1016.000000	0.303791
1017.000000	0.303752
1018.000000	0.303850
1019.000000	0.303963
1020.000000	0.304216
1021.000000	0.304000
1022.000000	0.303936
1023.000000	0.303989
1024.000000	0.303734
1025.000000	0.303591
1026.000000	0.303626
1027.000000	0.303452
1028.000000	0.303186
1029.000000	0.303127
1030.000000	0.303109
1031.000000	0.302666
1032.000000	0.302705
1033.000000	0.302914
1034.000000	0.302930
1035.000000	0.302945
1036.000000	0.303230
1037.000000	0.303624
1038.000000	0.303605
1039.000000	0.303704
1040.000000	0.303713
1041.000000	0.303529
1042.000000	0.303639
1043.000000	0.303872
1044.000000	0.304017
1045.000000	0.304004
1046.000000	0.303833
1047.000000	0.303770
1048.000000	0.303694
1049.000000	0.303737
1050.000000	0.303749
1051.000000	0.303852
1052.000000	0.304122
1053.000000	0.304276
1054.000000	0.304622
1055.000000	0.304858
1056.000000	0.305075
1057.000000	0.305281
1058.000000	0.305354
1059.000000	0.305242
1060.000000	0.305326
1061.000000	0.305330
1062.000000	0.305307
1063.000000	0.305660
1064.000000	0.305934
1065.000000	0.306288
1066.000000	0.306533
1067.000000	0.306776
1068.000000	0.306895
1069.000000	0.306668
1070.000000	0.306813
1071.000000	0.307291
1072.000000	0.307511
1073.000000	0.307751
1074.000000	0.308213
1075.000000	0.308363
1076.000000	0.308324
1077.000000	0.308417
1078.000000	0.308603
1079.000000	0.308757
1080.000000	0.308930
1081.000000	0.309063
1082.000000	0.309276
1083.000000	0.309469
1084.000000	0.309676
1085.000000	0.309879
1086.000000	0.310160
1087.000000	0.310334
1088.000000	0.310203
1089.000000	0.310269
1090.000000	0.310385
1091.000000	0.310399
1092.000000	0.310660
1093.000000	0.311317
1094.000000	0.311582
1095.000000	0.311716
1096.000000	0.311986
1097.000000	0.312189
1098.000000	0.312381
1099.000000	0.312610
1100.000000	0.312869
1101.000000	0.312984
1102.000000	0.313140
1103.000000	0.313402
1104.000000	0.313618
1105.000000	0.313759
1106.000000	0.313897
1107.000000	0.313968
1108.000000	0.314077
1109.000000	0.314289
1110.000000	0.314363
1111.000000	0.314520
1112.000000	0.314739
1113.000000	0.314940
1114.000000	0.315096
1115.000000	0.315360
1116.000000	0.315761
1117.000000	0.316001
1118.000000	0.316317
1119.000000	0.316350
1120.000000	0.315981
1121.000000	0.315987
1122.000000	0.316098
1123.000000	0.316416
1124.000000	0.316927
1125.000000	0.317256
1126.000000	0.317510
1127.000000	0.317586
1128.000000	0.317537
1129.000000	0.317329
1130.000000	0.317314
1131.000000	0.317155
1132.000000	0.317277
1133.000000	0.317746
1134.000000	0.317987
1135.000000	0.318227
1136.000000	0.318377
1137.000000	0.318417
1138.000000	0.318422
1139.000000	0.318445
1140.000000	0.318551
1141.000000	0.318596
1142.000000	0.318658
1143.000000	0.318663
1144.000000	0.318835
1145.000000	0.318905
1146.000000	0.318931
1147.000000	0.318991
1148.000000	0.319021
1149.000000	0.319067
1150.000000	0.319075
1151.000000	0.319200
1152.000000	0.319371
1153.000000	0.319488
1154.000000	0.319610
1155.000000	0.319669
1156.000000	0.319643
1157.000000	0.319679
1158.000000	0.319695
1159.000000	0.319706
1160.000000	0.319724
1161.000000	0.319706
1162.000000	0.319662
1163.000000	0.319826
1164.000000	0.319787
1165.000000	0.319777
1166.000000	0.319869
1167.000000	0.319953
1168.000000	0.319999
1169.000000	0.320167
1170.000000	0.320259
1171.000000	0.320317
1172.000000	0.320401
1173.000000	0.320469
1174.000000	0.320509
1175.000000	0.320480
1176.000000	0.320471
1177.000000	0.320579
1178.000000	0.320588
1179.000000	0.320542
1180.000000	0.320453
1181.000000	0.320335
1182.000000	0.320270
1183.000000	0.320330
1184.000000	0.320418
1185.000000	0.320466
1186.000000	0.320556
1187.000000	0.320594
1188.000000	0.320617
1189.000000	0.320550
1190.000000	0.320448
1191.000000	0.320419
1192.000000	0.320399
1193.000000	0.320544
1194.000000	0.320766
1195.000000	0.320894
1196.000000	0.320990
1197.000000	0.321046
1198.000000	0.321037
1199.000000	0.321054
1200.000000	0.321056
1201.000000	0.321059
1202.000000	0.321020
1203.000000	0.321082
1204.000000	0.321085
1205.000000	0.321062
1206.000000	0.320962
1207.000000	0.320899
1208.000000	0.320752
1209.000000	0.320552
1210.000000	0.320444
1211.000000	0.320399
1212.000000	0.320287
1213.000000	0.320169
1214.000000	0.320134
1215.000000	0.320066
1216.000000	0.320032
1217.000000	0.320122
1218.000000	0.320106
1219.000000	0.320073
1220.000000	0.320013
1221.000000	0.319919
1222.000000	0.319863
1223.000000	0.319905
1224.000000	0.319926
1225.000000	0.319938
1226.000000	0.319964
1227.000000	0.319911
1228.000000	0.319901
1229.000000	0.319869
1230.000000	0.319856
1231.000000	0.319757
1232.000000	0.319712
1233.000000	0.319754
1234.000000	0.319781
1235.000000	0.319763
1236.000000	0.319695
1237.000000	0.319686
1238.000000	0.319589
1239.000000	0.319537
1240.000000	0.319550
1241.000000	0.319517
1242.000000	0.319496
1243.000000	0.319514
1244.000000	0.319588
1245.000000	0.319705
1246.000000	0.319734
1247.000000	0.319852
1248.000000	0.319974
1249.000000	0.320034
1250.000000	0.320148
1251.000000	0.320233
1252.000000	0.320259
1253.000000	0.320286
1254.000000	0.320251
1255.000000	0.320116
1256.000000	0.320057
1257.000000	0.319988
1258.000000	0.319998
1259.000000	0.320032
1260.000000	0.320050
1261.000000	0.320040
1262.000000	0.319999
1263.000000	0.319971
1264.000000	0.319876
1265.000000	0.319715
1266.000000	0.319555
1267.000000	0.319428
1268.000000	0.319371
1269.000000	0.319374
1270.000000	0.319442
1271.000000	0.319473
1272.000000	0.319473
1273.000000	0.319495
1274.000000	0.319458
1275.000000	0.319400
1276.000000	0.319295
1277.000000	0.319367
1278.000000	0.319440
1279.000000	0.319444
1280.000000	0.319436
1281.000000	0.319373
1282.000000	0.319249
1283.000000	0.319275
1284.000000	0.319353
1285.000000	0.319358
1286.000000	0.319343
1287.000000	0.319275
1288.000000	0.319219
1289.000000	0.319161
1290.000000	0.319101
1291.000000	0.319045
1292.000000	0.319067
1293.000000	0.319130
1294.000000	0.319115
1295.000000	0.319126
1296.000000	0.319105
1297.000000	0.319034
1298.000000	0.319108
1299.000000	0.319216
1300.000000	0.319253
1301.000000	0.319218
1302.000000	0.319118
1303.000000	0.319004
1304.000000	0.318919
1305.000000	0.318920
1306.000000	0.318905
1307.000000	0.318985
1308.000000	0.319023
1309.000000	0.319020
1310.000000	0.319026
1311.000000	0.319065
1312.000000	0.319039
1313.000000	0.319024
1314.000000	0.318944
1315.000000	0.318745
1316.000000	0.318719
1317.000000	0.318729
1318.000000	0.318689
1319.000000	0.318734
1320.000000	0.318716
1321.000000	0.318597
1322.000000	0.318581
1323.000000	0.318580
1324.000000	0.318560
1325.000000	0.318591
1326.000000	0.318573
1327.000000	0.318490
1328.000000	0.318497
1329.000000	0.318398
1330.000000	0.318210
1331.000000	0.318122
1332.000000	0.318100
1333.000000	0.318044
1334.000000	0.318091
1335.000000	0.318111
1336.000000	0.318093
1337.000000	0.318072
1338.000000	0.317991
1339.000000	0.317928
1340.000000	0.317920
1341.000000	0.317877
1342.000000	0.317816
1343.000000	0.317736
1344.000000	0.317573
1345.000000	0.317453
1346.000000	0.317468
1347.000000	0.317331
1348.000000	0.317265
1349.000000	0.317184
1350.000000	0.317053
1351.000000	0.316982
1352.000000	0.316905
1353.000000	0.316799
1354.000000	0.316787
1355.000000	0.316799
1356.000000	0.316835
1357.000000	0.316837
1358.000000	0.316826
1359.000000	0.316805
1360.000000	0.316802
1361.000000	0.316884
1362.000000	0.316860
1363.000000	0.316771
1364.000000	0.316718
1365.000000	0.316567
1366.000000	0.316519
1367.000000	0.316554
1368.000000	0.316507
1369.000000	0.316474
1370.000000	0.316381
1371.000000	0.316148
1372.000000	0.315855
1373.000000	0.315653
1374.000000	0.315419
1375.000000	0.315090
1376.000000	0.314860
1377.000000	0.314512
1378.000000	0.313977
1379.000000	0.313357
1380.000000	0.312646
1381.000000	0.311853
1382.000000	0.311005
1383.000000	0.310117
1384.000000	0.309111
1385.000000	0.308025
1386.000000	0.307061
1387.000000	0.306241
1388.000000	0.305493
1389.000000	0.304976
1390.000000	0.304704
1391.000000	0.304497
1392.000000	0.304519
1393.000000	0.304628
1394.000000	0.304951
1395.000000	0.305223
1396.000000	0.305635
1397.000000	0.305891
1398.000000	0.306096
1399.000000	0.306266
1400.000000	0.306382
1401.000000	0.306374
1402.000000	0.306364
1403.000000	0.306201
1404.000000	0.305943
1405.000000	0.305668
1406.000000	0.305462
1407.000000	0.305305
1408.000000	0.305109
1409.000000	0.305104
1410.000000	0.305189
1411.000000	0.305154
1412.000000	0.305220
1413.000000	0.305378
1414.000000	0.305489
1415.000000	0.305642
1416.000000	0.305833
1417.000000	0.306009
1418.000000	0.306060
1419.000000	0.306230
1420.000000	0.306379
1421.000000	0.306558
1422.000000	0.306825
1423.000000	0.307037
1424.000000	0.307184
1425.000000	0.307391
1426.000000	0.307440
1427.000000	0.307511
1428.000000	0.307654
1429.000000	0.307719
1430.000000	0.307860
1431.000000	0.308055
1432.000000	0.308174
1433.000000	0.308270
1434.000000	0.308387
1435.000000	0.308557
1436.000000	0.308719
1437.000000	0.308915
1438.000000	0.309041
1439.000000	0.309162
1440.000000	0.309307
1441.000000	0.309461
1442.000000	0.309615
1443.000000	0.309730
1444.000000	0.309832
1445.000000	0.309910
1446.000000	0.309980
1447.000000	0.310005
1448.000000	0.310012
1449.000000	0.309978
1450.000000	0.309859
1451.000000	0.309772
1452.000000	0.309644
1453.000000	0.309532
1454.000000	0.309455
1455.000000	0.309391
1456.000000	0.309447
1457.000000	0.309492
1458.000000	0.309543
1459.000000	0.309577
1460.000000	0.309541
1461.000000	0.309531
1462.000000	0.309493
1463.000000	0.309439
1464.000000	0.309459
1465.000000	0.309546
1466.000000	0.309631
1467.000000	0.309678
1468.000000	0.309698
1469.000000	0.309716
1470.000000	0.309651
1471.000000	0.309683
1472.000000	0.309712
1473.000000	0.309820
1474.000000	0.309925
1475.000000	0.309962
1476.000000	0.310097
1477.000000	0.310222
1478.000000	0.310306
1479.000000	0.310467
1480.000000	0.310623
1481.000000	0.310760
1482.000000	0.310926
1483.000000	0.311140
1484.000000	0.311405
1485.000000	0.311596
1486.000000	0.311749
1487.000000	0.311907
1488.000000	0.312044
1489.000000	0.312213
1490.000000	0.312321
1491.000000	0.312431
1492.000000	0.312461
1493.000000	0.312519
1494.000000	0.312545
1495.000000	0.312569
1496.000000	0.312603
1497.000000	0.312611
1498.000000	0.312605
1499.000000	0.312599
1500.000000	0.312641
1501.000000	0.312676
1502.000000	0.312703
1503.000000	0.312741
1504.000000	0.312736
1505.000000	0.312725
1506.000000	0.312773
1507.000000	0.312788
1508.000000	0.312773
1509.000000	0.312766
1510.000000	0.312734
1511.000000	0.312701
1512.000000	0.312690
1513.000000	0.312697
1514.000000	0.312708
1515.000000	0.312696
1516.000000	0.312732
1517.000000	0.312712
1518.000000	0.312678
1519.000000	0.312671
1520.000000	0.312658
1521.000000	0.312625
1522.000000	0.312762
1523.000000	0.312934
1524.000000	0.312980
1525.000000	0.313105
1526.000000	0.313118
1527.000000	0.313046
1528.000000	0.313102
1529.000000	0.313138
1530.000000	0.313130
1531.000000	0.313190
1532.000000	0.313160
1533.000000	0.313093
1534.000000	0.313072
1535.000000	0.313043
1536.000000	0.312982
1537.000000	0.313007
1538.000000	0.313050
1539.000000	0.313031
1540.000000	0.313105
1541.000000	0.313245
1542.000000	0.313334
1543.000000	0.313395
1544.000000	0.313438
1545.000000	0.313526
1546.000000	0.313627
1547.000000	0.313738
1548.000000	0.313880
1549.000000	0.313983
1550.000000	0.314062
1551.000000	0.314138
1552.000000	0.314262
1553.000000	0.314351
1554.000000	0.314377
1555.000000	0.314441
1556.000000	0.314457
1557.000000	0.314391
1558.000000	0.314372
1559.000000	0.314333
1560.000000	0.314252
1561.000000	0.314187
1562.000000	0.314109
1563.000000	0.314044
1564.000000	0.313932
1565.000000	0.313784
1566.000000	0.313614
1567.000000	0.313471
1568.000000	0.313388
1569.000000	0.313433
1570.000000	0.313408
1571.000000	0.313340
1572.000000	0.313326
1573.000000	0.313350
1574.000000	0.313342
1575.000000	0.313372
1576.000000	0.313406
1577.000000	0.313387
1578.000000	0.313386
1579.000000	0.313477
1580.000000	0.313548
1581.000000	0.313677
1582.000000	0.313757
1583.000000	0.313816
1584.000000	0.313854
1585.000000	0.313966
1586.000000	0.314024
1587.000000	0.314066
1588.000000	0.314057
1589.000000	0.313983
1590.000000	0.313946
1591.000000	0.313937
1592.000000	0.313916
1593.000000	0.313944
1594.000000	0.313880
1595.000000	0.313782
1596.000000	0.313723
1597.000000	0.313662
1598.000000	0.313598
1599.000000	0.313642
1600.000000	0.313540
1601.000000	0.313390
1602.000000	0.313313
1603.000000	0.313223
1604.000000	0.313155
1605.000000	0.313208
1606.000000	0.313166
1607.000000	0.313114
1608.000000	0.313060
1609.000000	0.313011
1610.000000	0.312984
1611.000000	0.312996
1612.000000	0.312997
1613.000000	0.313127
1614.000000	0.313154
1615.000000	0.313203
1616.000000	0.313240
1617.000000	0.313162
1618.000000	0.313163
1619.000000	0.313206
1620.000000	0.313197
1621.000000	0.313230
1622.000000	0.313256
1623.000000	0.313151
1624.000000	0.313143
1625.000000	0.313099
1626.000000	0.313008
1627.000000	0.312932
1628.000000	0.312910
1629.000000	0.312836
1630.000000	0.312836
1631.000000	0.312881
1632.000000	0.312857
1633.000000	0.312804
1634.000000	0.312811
1635.000000	0.312889
1636.000000	0.312881
1637.000000	0.312901
1638.000000	0.312863
1639.000000	0.312781
1640.000000	0.312718
1641.000000	0.312752
1642.000000	0.312715
1643.000000	0.312635
1644.000000	0.312624
1645.000000	0.312619
1646.000000	0.312591
1647.000000	0.312642
1648.000000	0.312603
1649.000000	0.312609
1650.000000	0.312598
1651.000000	0.312561
1652.000000	0.312618
1653.000000	0.312673
1654.000000	0.312702
1655.000000	0.312712
1656.000000	0.312663
1657.000000	0.312607
1658.000000	0.312596
1659.000000	0.312721
1660.000000	0.312817
1661.000000	0.312839
1662.000000	0.312882
1663.000000	0.312897
1664.000000	0.312909
1665.000000	0.312929
1666.000000	0.312970
1667.000000	0.312941
1668.000000	0.312898
1669.000000	0.312808
1670.000000	0.312695
1671.000000	0.312641
1672.000000	0.312669
1673.000000	0.312699
1674.000000	0.312785
1675.000000	0.312873
1676.000000	0.312836
1677.000000	0.312782
1678.000000	0.312620
1679.000000	0.312462
1680.000000	0.312428
1681.000000	0.312417
1682.000000	0.312463
1683.000000	0.312569
1684.000000	0.312630
1685.000000	0.312671
1686.000000	0.312707
1687.000000	0.312756
1688.000000	0.312718
1689.000000	0.312696
1690.000000	0.312663
1691.000000	0.312662
1692.000000	0.312596
1693.000000	0.312521
1694.000000	0.312416
1695.000000	0.312342
1696.000000	0.312370
1697.000000	0.312296
1698.000000	0.312291
1699.000000	0.312276
1700.000000	0.312125
1701.000000	0.312165
1702.000000	0.312189
1703.000000	0.312126
1704.000000	0.312174
1705.000000	0.312189
1706.000000	0.312140
1707.000000	0.312159
1708.000000	0.312247
1709.000000	0.312202
1710.000000	0.312231
1711.000000	0.312195
1712.000000	0.312078
1713.000000	0.311954
1714.000000	0.311825
1715.000000	0.311721
1716.000000	0.311608
1717.000000	0.311517
1718.000000	0.311438
1719.000000	0.311330
1720.000000	0.311258
1721.000000	0.311195
1722.000000	0.311101
1723.000000	0.311088
1724.000000	0.311194
1725.000000	0.311218
1726.000000	0.311146
1727.000000	0.311137
1728.000000	0.311076
1729.000000	0.310937
1730.000000	0.310921
1731.000000	0.310886
1732.000000	0.310796
1733.000000	0.310770
1734.000000	0.310674
1735.000000	0.310627
1736.000000	0.310544
1737.000000	0.310455
1738.000000	0.310406
1739.000000	0.310411
1740.000000	0.310386
1741.000000	0.310370
1742.000000	0.310475
1743.000000	0.310480
1744.000000	0.310381
1745.000000	0.310316
1746.000000	0.310261
1747.000000	0.310059
1748.000000	0.309897
1749.000000	0.309727
1750.000000	0.309562
1751.000000	0.309591
1752.000000	0.309666
1753.000000	0.309583
1754.000000	0.309590
1755.000000	0.309669
1756.000000	0.309672
1757.000000	0.309649
1758.000000	0.309687
1759.000000	0.309681
1760.000000	0.309711
1761.000000	0.309785
1762.000000	0.309837
1763.000000	0.309937
1764.000000	0.309951
1765.000000	0.309877
1766.000000	0.309854
1767.000000	0.309725
1768.000000	0.309569
1769.000000	0.309503
1770.000000	0.309490
1771.000000	0.309388
1772.000000	0.309366
1773.000000	0.309408
1774.000000	0.309410
1775.000000	0.309471
1776.000000	0.309479
1777.000000	0.309474
1778.000000	0.309373
1779.000000	0.309141
1780.000000	0.309053
1781.000000	0.308956
1782.000000	0.308807
1783.000000	0.308754
1784.000000	0.308658
1785.000000	0.308370
1786.000000	0.308321
1787.000000	0.308478
1788.000000	0.308642
1789.000000	0.308830
1790.000000	0.308965
1791.000000	0.309018
1792.000000	0.309112
1793.000000	0.309123
1794.000000	0.309035
1795.000000	0.309021
1796.000000	0.308924
1797.000000	0.308910
1798.000000	0.309062
1799.000000	0.309066
1800.000000	0.309094
1801.000000	0.308899
1802.000000	0.309152
1803.000000	0.309172
1804.000000	0.309319
1805.000000	0.309055
1806.000000	0.309180
1807.000000	0.309786
1808.000000	0.309943
1809.000000	0.309797
1810.000000	0.310152
1811.000000	0.309880
1812.000000	0.309153
1813.000000	0.308752
1814.000000	0.308165
1815.000000	0.307924
1816.000000	0.308071
1817.000000	0.307827
1818.000000	0.307762
1819.000000	0.307351
1820.000000	0.306983
1821.000000	0.306787
1822.000000	0.306867
1823.000000	0.307297
1824.000000	0.307553
1825.000000	0.307991
1826.000000	0.308232
1827.000000	0.308414
1828.000000	0.308214
1829.000000	0.308088
1830.000000	0.307861
1831.000000	0.307683
1832.000000	0.307494
1833.000000	0.307294
1834.000000	0.307046
1835.000000	0.306927
1836.000000	0.306619
1837.000000	0.306526
1838.000000	0.306480
1839.000000	0.306577
1840.000000	0.306438
1841.000000	0.306645
1842.000000	0.306859
1843.000000	0.307125
1844.000000	0.307196
1845.000000	0.307439
1846.000000	0.307433
1847.000000	0.306832
1848.000000	0.306570
1849.000000	0.306687
1850.000000	0.305879
1851.000000	0.305495
1852.000000	0.305109
1853.000000	0.304957
1854.000000	0.304743
1855.000000	0.304563
1856.000000	0.304538
1857.000000	0.304375
1858.000000	0.303795
1859.000000	0.303651
1860.000000	0.303728
1861.000000	0.303610
1862.000000	0.303483
1863.000000	0.303646
1864.000000	0.303420
1865.000000	0.302805
1866.000000	0.302507
1867.000000	0.302254
1868.000000	0.301833
1869.000000	0.301624
1870.000000	0.301261
1871.000000	0.300779
1872.000000	0.300432
1873.000000	0.300046
1874.000000	0.299720
1875.000000	0.299440
1876.000000	0.299143
1877.000000	0.298061
1878.000000	0.297137
1879.000000	0.295897
1880.000000	0.294561
1881.000000	0.293771
1882.000000	0.292729
1883.000000	0.291378
1884.000000	0.290451
1885.000000	0.289567
1886.000000	0.288374
1887.000000	0.287355
1888.000000	0.286092
1889.000000	0.284101
1890.000000	0.282043
1891.000000	0.280329
1892.000000	0.278861
1893.000000	0.277780
1894.000000	0.276374
1895.000000	0.274842
1896.000000	0.273276
1897.000000	0.271967
1898.000000	0.270166
1899.000000	0.268831
1900.000000	0.267752
1901.000000	0.266397
1902.000000	0.265869
1903.000000	0.265712
1904.000000	0.265352
1905.000000	0.265286
1906.000000	0.265221
1907.000000	0.265069
1908.000000	0.265075
1909.000000	0.265619
1910.000000	0.265966
1911.000000	0.266201
1912.000000	0.266527
1913.000000	0.266967
1914.000000	0.267525
1915.000000	0.267967
1916.000000	0.268628
1917.000000	0.269294
1918.000000	0.270022
1919.000000	0.270908
1920.000000	0.271887
1921.000000	0.272802
1922.000000	0.273586
1923.000000	0.274267
1924.000000	0.274928
1925.000000	0.275553
1926.000000	0.276206
1927.000000	0.276643
1928.000000	0.276791
1929.000000	0.276789
1930.000000	0.276668
1931.000000	0.276531
1932.000000	0.276525
1933.000000	0.276820
1934.000000	0.277311
1935.000000	0.277652
1936.000000	0.277941
1937.000000	0.278340
1938.000000	0.278386
1939.000000	0.278444
1940.000000	0.278285
1941.000000	0.278577
1942.000000	0.278923
1943.000000	0.279420
1944.000000	0.280227
1945.000000	0.280544
1946.000000	0.280614
1947.000000	0.280863
1948.000000	0.280976
1949.000000	0.280983
1950.000000	0.281059
1951.000000	0.281097
1952.000000	0.281114
1953.000000	0.280943
1954.000000	0.281130
1955.000000	0.281679
1956.000000	0.282036
1957.000000	0.282465
1958.000000	0.282728
1959.000000	0.282648
1960.000000	0.282819
1961.000000	0.282861
1962.000000	0.282930
1963.000000	0.283087
1964.000000	0.283630
1965.000000	0.283679
1966.000000	0.283658
1967.000000	0.283784
1968.000000	0.283625
1969.000000	0.283404
1970.000000	0.283632
1971.000000	0.283856
1972.000000	0.283874
1973.000000	0.283935
1974.000000	0.284267
1975.000000	0.284372
1976.000000	0.284403
1977.000000	0.284495
1978.000000	0.284371
1979.000000	0.284177
1980.000000	0.284271
1981.000000	0.284800
1982.000000	0.285435
1983.000000	0.285861
1984.000000	0.286167
1985.000000	0.286369
1986.000000	0.286498
1987.000000	0.286442
1988.000000	0.286820
1989.000000	0.287086
1990.000000	0.287129
1991.000000	0.287278
1992.000000	0.287413
1993.000000	0.287619
1994.000000	0.287671
1995.000000	0.287933
1996.000000	0.288140
1997.000000	0.288210
1998.000000	0.288275
1999.000000	0.288492
2000.000000	0.288644
2001.000000	0.288811
2002.000000	0.289125
2003.000000	0.289343
2004.000000	0.289379
2005.000000	0.289126
2006.000000	0.289107
2007.000000	0.289344
2008.000000	0.289582
2009.000000	0.289951
2010.000000	0.290347
2011.000000	0.290708
2012.000000	0.290905
2013.000000	0.291030
2014.000000	0.291051
2015.000000	0.291060
2016.000000	0.290963
2017.000000	0.290822
2018.000000	0.290948
2019.000000	0.290955
2020.000000	0.291093
2021.000000	0.291274
2022.000000	0.291446
2023.000000	0.291702
2024.000000	0.292160
2025.000000	0.292534
2026.000000	0.292837
2027.000000	0.293083
2028.000000	0.293272
2029.000000	0.293468
2030.000000	0.293613
2031.000000	0.293685
2032.000000	0.293604
2033.000000	0.293512
2034.000000	0.293356
2035.000000	0.293081
2036.000000	0.292912
2037.000000	0.293045
2038.000000	0.292980
2039.000000	0.292937
2040.000000	0.292983
2041.000000	0.292839
2042.000000	0.292492
2043.000000	0.292313
2044.000000	0.292414
2045.000000	0.292513
2046.000000	0.292952
2047.000000	0.293316
2048.000000	0.293808
2049.000000	0.294185
2050.000000	0.294101
2051.000000	0.294156
2052.000000	0.294196
2053.000000	0.294015
2054.000000	0.294027
2055.000000	0.293942
2056.000000	0.293800
2057.000000	0.293692
2058.000000	0.293809
2059.000000	0.294374
2060.000000	0.294469
2061.000000	0.294486
2062.000000	0.294391
2063.000000	0.293990
2064.000000	0.293593
2065.000000	0.293446
2066.000000	0.293173
2067.000000	0.292864
2068.000000	0.293054
2069.000000	0.293232
2070.000000	0.293387
2071.000000	0.293411
2072.000000	0.293324
2073.000000	0.293477
2074.000000	0.293381
2075.000000	0.293431
2076.000000	0.293643
2077.000000	0.293837
2078.000000	0.294121
2079.000000	0.294210
2080.000000	0.294437
2081.000000	0.294367
2082.000000	0.294038
2083.000000	0.293429
2084.000000	0.293153
2085.000000	0.293473
2086.000000	0.293918
2087.000000	0.294514
2088.000000	0.294849
2089.000000	0.294870
2090.000000	0.294918
2091.000000	0.294723
2092.000000	0.294708
2093.000000	0.294826
2094.000000	0.294891
2095.000000	0.294956
2096.000000	0.295209
2097.000000	0.295639
2098.000000	0.295669
2099.000000	0.295847
2100.000000	0.295873
2101.000000	0.295577
2102.000000	0.295064
2103.000000	0.294720
2104.000000	0.294492
2105.000000	0.294459
2106.000000	0.294955
2107.000000	0.294931
2108.000000	0.294587
2109.000000	0.294597
2110.000000	0.294168
2111.000000	0.294158
2112.000000	0.294577
2113.000000	0.294835
2114.000000	0.294681
2115.000000	0.294730
2116.000000	0.294741
2117.000000	0.294576
2118.000000	0.295190
2119.000000	0.295560
2120.000000	0.295542
2121.000000	0.295302
2122.000000	0.295137
2123.000000	0.294323
2124.000000	0.294239
2125.000000	0.294680
2126.000000	0.294915
2127.000000	0.295689
2128.000000	0.295941
2129.000000	0.295873
2130.000000	0.295501
2131.000000	0.295175
2132.000000	0.294604
2133.000000	0.294381
2134.000000	0.294891
2135.000000	0.295156
2136.000000	0.295536
2137.000000	0.295610
2138.000000	0.295518
2139.000000	0.295503
2140.000000	0.295054
2141.000000	0.295064
2142.000000	0.295555
2143.000000	0.295507
2144.000000	0.295560
2145.000000	0.295814
2146.000000	0.296129
2147.000000	0.296482
2148.000000	0.296795
2149.000000	0.297217
2150.000000	0.297143
2151.000000	0.296408
2152.000000	0.295607
2153.000000	0.294916
2154.000000	0.294536
2155.000000	0.294139
2156.000000	0.294436
2157.000000	0.295819
2158.000000	0.296070
2159.000000	0.296330
2160.000000	0.296382
2161.000000	0.295264
2162.000000	0.295196
2163.000000	0.296032
2164.000000	0.296072
2165.000000	0.296159
2166.000000	0.295909
2167.000000	0.295133
2168.000000	0.294206
2169.000000	0.293455
2170.000000	0.293408
2171.000000	0.293328
2172.000000	0.293470
2173.000000	0.293520
2174.000000	0.293736
2175.000000	0.293721
2176.000000	0.293463
2177.000000	0.293697
2178.000000	0.294573
2179.000000	0.294872
2180.000000	0.294977
2181.000000	0.295320
2182.000000	0.295051
2183.000000	0.294162
2184.000000	0.294255
2185.000000	0.294436
2186.000000	0.293766
2187.000000	0.293479
2188.000000	0.293094
2189.000000	0.292022
2190.000000	0.291722
2191.000000	0.292526
2192.000000	0.292416
2193.000000	0.292137
2194.000000	0.291875
2195.000000	0.290911
2196.000000	0.290894
2197.000000	0.291372
2198.000000	0.292276
2199.000000	0.294967
2200.000000	0.295652
2201.000000	0.295462
2202.000000	0.295526
2203.000000	0.294243
2204.000000	0.292767
2205.000000	0.292116
2206.000000	0.291149
2207.000000	0.290498
2208.000000	0.290276
2209.000000	0.290281
2210.000000	0.291357
2211.000000	0.292862
2212.000000	0.294017
2213.000000	0.294311
2214.000000	0.294823
2215.000000	0.294252
2216.000000	0.291599
2217.000000	0.290752
2218.000000	0.290151
2219.000000	0.289714
2220.000000	0.290319
2221.000000	0.290189
2222.000000	0.289328
2223.000000	0.289595
2224.000000	0.290134
2225.000000	0.290951
2226.000000	0.292564
2227.000000	0.292713
2228.000000	0.292628
2229.000000	0.291555
2230.000000	0.289767
2231.000000	0.288877
2232.000000	0.286972
2233.000000	0.286309
2234.000000	0.286552
2235.000000	0.286581
2236.000000	0.287168
2237.000000	0.289075
2238.000000	0.289628
2239.000000	0.289559
2240.000000	0.289865
2241.000000	0.289904
2242.000000	0.290042
2243.000000	0.290670
2244.000000	0.290804
2245.000000	0.290705
2246.000000	0.290211
2247.000000	0.288404
2248.000000	0.287709
2249.000000	0.287311
2250.000000	0.287516
2251.000000	0.287684
2252.000000	0.288286
2253.000000	0.287750
2254.000000	0.286602
2255.000000	0.287403
2256.000000	0.289305
2257.000000	0.291389
2258.000000	0.293710
2259.000000	0.294511
2260.000000	0.294227
2261.000000	0.293714
2262.000000	0.292626
2263.000000	0.291652
2264.000000	0.290138
2265.000000	0.288928
2266.000000	0.287799
2267.000000	0.286518
2268.000000	0.284849
2269.000000	0.283947
2270.000000	0.283247
2271.000000	0.282716
2272.000000	0.282820
2273.000000	0.282968
2274.000000	0.283103
2275.000000	0.283608
2276.000000	0.285171
2277.000000	0.284777
2278.000000	0.284651
2279.000000	0.285055
2280.000000	0.283928
2281.000000	0.282422
2282.000000	0.281347
2283.000000	0.279959
2284.000000	0.279430
2285.000000	0.280742
2286.000000	0.280964
2287.000000	0.280038
2288.000000	0.279321
2289.000000	0.277292
2290.000000	0.277008
2291.000000	0.277815
2292.000000	0.277111
2293.000000	0.276293
2294.000000	0.275474
2295.000000	0.273446
2296.000000	0.272745
2297.000000	0.272888
2298.000000	0.273166
2299.000000	0.274600
2300.000000	0.274046
2301.000000	0.272532
2302.000000	0.271819
2303.000000	0.269938
2304.000000	0.268926
2305.000000	0.269609
2306.000000	0.268685
2307.000000	0.266851
2308.000000	0.265102
2309.000000	0.263027
2310.000000	0.262002
2311.000000	0.262534
2312.000000	0.263277
2313.000000	0.263575
2314.000000	0.262854
2315.000000	0.261248
2316.000000	0.260769
2317.000000	0.262008
2318.000000	0.264680
2319.000000	0.266735
2320.000000	0.268105
2321.000000	0.269540
2322.000000	0.269887
2323.000000	0.270819
2324.000000	0.271996
2325.000000	0.271716
2326.000000	0.271813
2327.000000	0.273300
2328.000000	0.275303
2329.000000	0.277103
2330.000000	0.278119
2331.000000	0.278025
2332.000000	0.276583
2333.000000	0.275889
2334.000000	0.275841
2335.000000	0.276140
2336.000000	0.275888
2337.000000	0.277278
2338.000000	0.280890
2339.000000	0.282073
2340.000000	0.283236
2341.000000	0.283785
2342.000000	0.281643
2343.000000	0.281150
2344.000000	0.281840
2345.000000	0.281536
2346.000000	0.281258
2347.000000	0.280514
2348.000000	0.279119
2349.000000	0.278481
2350.000000	0.276600
2351.000000	0.276268
2352.000000	0.276592
2353.000000	0.276868
2354.000000	0.278071
2355.000000	0.278646
2356.000000	0.277942
2357.000000	0.278002
2358.000000	0.277519
2359.000000	0.276945
2360.000000	0.278313
2361.000000	0.278277
2362.000000	0.277128
2363.000000	0.277661
2364.000000	0.277392
2365.000000	0.277088
2366.000000	0.276697
2367.000000	0.274480
2368.000000	0.271793
2369.000000	0.267958
2370.000000	0.265313
2371.000000	0.265868
2372.000000	0.266208
2373.000000	0.268060
2374.000000	0.270628
2375.000000	0.271194
2376.000000	0.272693
2377.000000	0.271705
2378.000000	0.269692
2379.000000	0.268093
2380.000000	0.266538
2381.000000	0.268967
2382.000000	0.268644
2383.000000	0.266947
2384.000000	0.265974
2385.000000	0.260268
2386.000000	0.256343
2387.000000	0.255885
2388.000000	0.254545
2389.000000	0.255768
2390.000000	0.257077
2391.000000	0.257595
2392.000000	0.261495
2393.000000	0.263740
2394.000000	0.266753
2395.000000	0.270487
2396.000000	0.270771
2397.000000	0.273120
2398.000000	0.276748
2399.000000	0.278736
2400.000000	0.280112
2401.000000	0.279476
2402.000000	0.274948
2403.000000	0.269049
2404.000000	0.262274
2405.000000	0.259342
2406.000000	0.261563
2407.000000	0.262762
2408.000000	0.264914
2409.000000	0.265450
2410.000000	0.262642
2411.000000	0.262126
2412.000000	0.265896
2413.000000	0.269104
2414.000000	0.266831
2415.000000	0.261868
2416.000000	0.259864
2417.000000	0.258799
2418.000000	0.255915
2419.000000	0.252687
2420.000000	0.251403
2421.000000	0.249218
2422.000000	0.247006
2423.000000	0.256654
2424.000000	0.266347
2425.000000	0.265927
2426.000000	0.269076
2427.000000	0.268214
2428.000000	0.260088
2429.000000	0.260638
2430.000000	0.258979
2431.000000	0.254499
2432.000000	0.256277
2433.000000	0.251191
2434.000000	0.251453
2435.000000	0.253126
2436.000000	0.248130
2437.000000	0.250708
2438.000000	0.247687
2439.000000	0.243918
2440.000000	0.250286
2441.000000	0.247505
2442.000000	0.248635
2443.000000	0.257994
2444.000000	0.252520
2445.000000	0.252425
2446.000000	0.258255
2447.000000	0.253474
2448.000000	0.252626
2449.000000	0.248978
2450.000000	0.238840
2451.000000	0.237619
2452.000000	0.237392
2453.000000	0.239768
2454.000000	0.244879
2455.000000	0.233897
2456.000000	0.226522
2457.000000	0.228736
2458.000000	0.230907
2459.000000	0.242529
2460.000000	0.249325
2461.000000	0.247250
2462.000000	0.241435
2463.000000	0.232724
2464.000000	0.227251
2465.000000	0.226457
2466.000000	0.228429
2467.000000	0.228391
2468.000000	0.230562
2469.000000	0.224530
2470.000000	0.222898
2471.000000	0.229752
2472.000000	0.230872
2473.000000	0.241210
2474.000000	0.236068
2475.000000	0.227764
2476.000000	0.230635
2477.000000	0.224731
2478.000000	0.235679
2479.000000	0.239907
2480.000000	0.237076
2481.000000	0.260297
2482.000000	0.263480
2483.000000	0.267042
2484.000000	0.268165
2485.000000	0.233939
2486.000000	0.225300
2487.000000	0.235487
2488.000000	0.250200
2489.000000	0.271899
2490.000000	0.283588
2491.000000	0.264744
2492.000000	0.255379
2493.000000	0.259455
2494.000000	0.265138
2495.000000	0.285407
2496.000000	0.281322
2497.000000	0.259929
2498.000000	0.239587
2499.000000	0.196087
2500.000000	0.175673
