# Wavelength	SM1200H-60_FV7-40_00003.asd.rts.txt
350.000000	0.288710
351.000000	0.285601
352.000000	0.289105
353.000000	0.292058
354.000000	0.292829
355.000000	0.289379
356.000000	0.289897
357.000000	0.294714
358.000000	0.293881
359.000000	0.293500
360.000000	0.295871
361.000000	0.300852
362.000000	0.302102
363.000000	0.302395
364.000000	0.302763
365.000000	0.300579
366.000000	0.299551
367.000000	0.299900
368.000000	0.299756
369.000000	0.300930
370.000000	0.302667
371.000000	0.303440
372.000000	0.301182
373.000000	0.301554
374.000000	0.306884
375.000000	0.306420
376.000000	0.305418
377.000000	0.305512
378.000000	0.305411
379.000000	0.305540
380.000000	0.305516
381.000000	0.305971
382.000000	0.308251
383.000000	0.309879
384.000000	0.309643
385.000000	0.309116
386.000000	0.309773
387.000000	0.311437
388.000000	0.311690
389.000000	0.311479
390.000000	0.311744
391.000000	0.312902
392.000000	0.313097
393.000000	0.312993
394.000000	0.313397
395.000000	0.314541
396.000000	0.315288
397.000000	0.315296
398.000000	0.315399
399.000000	0.314913
400.000000	0.314633
401.000000	0.315680
402.000000	0.316342
403.000000	0.316879
404.000000	0.317767
405.000000	0.317816
406.000000	0.317871
407.000000	0.318356
408.000000	0.318759
409.000000	0.319125
410.000000	0.319465
411.000000	0.319738
412.000000	0.319861
413.000000	0.320035
414.000000	0.320491
415.000000	0.321106
416.000000	0.321500
417.000000	0.321566
418.000000	0.321761
419.000000	0.321924
420.000000	0.322150
421.000000	0.322754
422.000000	0.323343
423.000000	0.323805
424.000000	0.324204
425.000000	0.324254
426.000000	0.324252
427.000000	0.324425
428.000000	0.324720
429.000000	0.324928
430.000000	0.325066
431.000000	0.325439
432.000000	0.325782
433.000000	0.326026
434.000000	0.326313
435.000000	0.326459
436.000000	0.326582
437.000000	0.326790
438.000000	0.327046
439.000000	0.327280
440.000000	0.327558
441.000000	0.327770
442.000000	0.327888
443.000000	0.327945
444.000000	0.328245
445.000000	0.328414
446.000000	0.328701
447.000000	0.329179
448.000000	0.329363
449.000000	0.329552
450.000000	0.329906
451.000000	0.329835
452.000000	0.330120
453.000000	0.330724
454.000000	0.330976
455.000000	0.331217
456.000000	0.331505
457.000000	0.331583
458.000000	0.331856
459.000000	0.332116
460.000000	0.332223
461.000000	0.332419
462.000000	0.332721
463.000000	0.332914
464.000000	0.333089
465.000000	0.333157
466.000000	0.333190
467.000000	0.333548
468.000000	0.333844
469.000000	0.333958
470.000000	0.334091
471.000000	0.334292
472.000000	0.334478
473.000000	0.334655
474.000000	0.334975
475.000000	0.335044
476.000000	0.335060
477.000000	0.335425
478.000000	0.335548
479.000000	0.335692
480.000000	0.335961
481.000000	0.336025
482.000000	0.336208
483.000000	0.336494
484.000000	0.336632
485.000000	0.336742
486.000000	0.337068
487.000000	0.337263
488.000000	0.337550
489.000000	0.337915
490.000000	0.338167
491.000000	0.338348
492.000000	0.338584
493.000000	0.338823
494.000000	0.339052
495.000000	0.339326
496.000000	0.339608
497.000000	0.339826
498.000000	0.340020
499.000000	0.340287
500.000000	0.340533
501.000000	0.340779
502.000000	0.341081
503.000000	0.341391
504.000000	0.341702
505.000000	0.341968
506.000000	0.342167
507.000000	0.342346
508.000000	0.342560
509.000000	0.342786
510.000000	0.343035
511.000000	0.343340
512.000000	0.343682
513.000000	0.343911
514.000000	0.344244
515.000000	0.344617
516.000000	0.344819
517.000000	0.345086
518.000000	0.345412
519.000000	0.345670
520.000000	0.345979
521.000000	0.346260
522.000000	0.346490
523.000000	0.346704
524.000000	0.346962
525.000000	0.347222
526.000000	0.347443
527.000000	0.347707
528.000000	0.347959
529.000000	0.348196
530.000000	0.348445
531.000000	0.348778
532.000000	0.349095
533.000000	0.349324
534.000000	0.349579
535.000000	0.349866
536.000000	0.350142
537.000000	0.350361
538.000000	0.350569
539.000000	0.350833
540.000000	0.351104
541.000000	0.351343
542.000000	0.351582
543.000000	0.351878
544.000000	0.352197
545.000000	0.352439
546.000000	0.352696
547.000000	0.352988
548.000000	0.353313
549.000000	0.353525
550.000000	0.353761
551.000000	0.354036
552.000000	0.354264
553.000000	0.354490
554.000000	0.354735
555.000000	0.355034
556.000000	0.355449
557.000000	0.355769
558.000000	0.356083
559.000000	0.356387
560.000000	0.356613
561.000000	0.356885
562.000000	0.357220
563.000000	0.357476
564.000000	0.357769
565.000000	0.358090
566.000000	0.358432
567.000000	0.358780
568.000000	0.359094
569.000000	0.359367
570.000000	0.359647
571.000000	0.359928
572.000000	0.360186
573.000000	0.360453
574.000000	0.360688
575.000000	0.360913
576.000000	0.361205
577.000000	0.361495
578.000000	0.361786
579.000000	0.361998
580.000000	0.362203
581.000000	0.362426
582.000000	0.362627
583.000000	0.362852
584.000000	0.363124
585.000000	0.363459
586.000000	0.363738
587.000000	0.363989
588.000000	0.364268
589.000000	0.364554
590.000000	0.364813
591.000000	0.365030
592.000000	0.365226
593.000000	0.365460
594.000000	0.365713
595.000000	0.365888
596.000000	0.366068
597.000000	0.366299
598.000000	0.366481
599.000000	0.366574
600.000000	0.366715
601.000000	0.366914
602.000000	0.367121
603.000000	0.367343
604.000000	0.367597
605.000000	0.367873
606.000000	0.368109
607.000000	0.368304
608.000000	0.368493
609.000000	0.368678
610.000000	0.368831
611.000000	0.368926
612.000000	0.369015
613.000000	0.369051
614.000000	0.369059
615.000000	0.369078
616.000000	0.369091
617.000000	0.369072
618.000000	0.369120
619.000000	0.369222
620.000000	0.369338
621.000000	0.369492
622.000000	0.369632
623.000000	0.369799
624.000000	0.370023
625.000000	0.370234
626.000000	0.370483
627.000000	0.370765
628.000000	0.370989
629.000000	0.371196
630.000000	0.371269
631.000000	0.371371
632.000000	0.371474
633.000000	0.371577
634.000000	0.371649
635.000000	0.371626
636.000000	0.371598
637.000000	0.371607
638.000000	0.371677
639.000000	0.371751
640.000000	0.371887
641.000000	0.372030
642.000000	0.372188
643.000000	0.372340
644.000000	0.372466
645.000000	0.372572
646.000000	0.372684
647.000000	0.372784
648.000000	0.372865
649.000000	0.372984
650.000000	0.373122
651.000000	0.373232
652.000000	0.373314
653.000000	0.373420
654.000000	0.373525
655.000000	0.373651
656.000000	0.373808
657.000000	0.373933
658.000000	0.374085
659.000000	0.374231
660.000000	0.374325
661.000000	0.374358
662.000000	0.374415
663.000000	0.374552
664.000000	0.374681
665.000000	0.374865
666.000000	0.375051
667.000000	0.375146
668.000000	0.375278
669.000000	0.375433
670.000000	0.375598
671.000000	0.375758
672.000000	0.375860
673.000000	0.375914
674.000000	0.376012
675.000000	0.376088
676.000000	0.376143
677.000000	0.376218
678.000000	0.376337
679.000000	0.376461
680.000000	0.376574
681.000000	0.376667
682.000000	0.376813
683.000000	0.376953
684.000000	0.377177
685.000000	0.377412
686.000000	0.377635
687.000000	0.377777
688.000000	0.377932
689.000000	0.378048
690.000000	0.378132
691.000000	0.378232
692.000000	0.378289
693.000000	0.378392
694.000000	0.378590
695.000000	0.378771
696.000000	0.378920
697.000000	0.379056
698.000000	0.379162
699.000000	0.379282
700.000000	0.379445
701.000000	0.379564
702.000000	0.379700
703.000000	0.379837
704.000000	0.379916
705.000000	0.380055
706.000000	0.380209
707.000000	0.380381
708.000000	0.380556
709.000000	0.380690
710.000000	0.380780
711.000000	0.380855
712.000000	0.380923
713.000000	0.381017
714.000000	0.381126
715.000000	0.381241
716.000000	0.381370
717.000000	0.381491
718.000000	0.381594
719.000000	0.381664
720.000000	0.381715
721.000000	0.381795
722.000000	0.381839
723.000000	0.381909
724.000000	0.382013
725.000000	0.382072
726.000000	0.382172
727.000000	0.382256
728.000000	0.382350
729.000000	0.382485
730.000000	0.382602
731.000000	0.382682
732.000000	0.382750
733.000000	0.382857
734.000000	0.382943
735.000000	0.382979
736.000000	0.383092
737.000000	0.383146
738.000000	0.383088
739.000000	0.383112
740.000000	0.383140
741.000000	0.383172
742.000000	0.383227
743.000000	0.383280
744.000000	0.383366
745.000000	0.383433
746.000000	0.383525
747.000000	0.383588
748.000000	0.383687
749.000000	0.383799
750.000000	0.383859
751.000000	0.383895
752.000000	0.383941
753.000000	0.384025
754.000000	0.384129
755.000000	0.384207
756.000000	0.384288
757.000000	0.384356
758.000000	0.384418
759.000000	0.384470
760.000000	0.384444
761.000000	0.384484
762.000000	0.384541
763.000000	0.384565
764.000000	0.384602
765.000000	0.384622
766.000000	0.384654
767.000000	0.384721
768.000000	0.384817
769.000000	0.384867
770.000000	0.384865
771.000000	0.384881
772.000000	0.384974
773.000000	0.385081
774.000000	0.385246
775.000000	0.385364
776.000000	0.385429
777.000000	0.385420
778.000000	0.385330
779.000000	0.385280
780.000000	0.385303
781.000000	0.385319
782.000000	0.385365
783.000000	0.385501
784.000000	0.385560
785.000000	0.385584
786.000000	0.385584
787.000000	0.385560
788.000000	0.385514
789.000000	0.385497
790.000000	0.385477
791.000000	0.385440
792.000000	0.385458
793.000000	0.385495
794.000000	0.385529
795.000000	0.385618
796.000000	0.385651
797.000000	0.385611
798.000000	0.385600
799.000000	0.385577
800.000000	0.385539
801.000000	0.385501
802.000000	0.385503
803.000000	0.385510
804.000000	0.385529
805.000000	0.385493
806.000000	0.385379
807.000000	0.385289
808.000000	0.385194
809.000000	0.385171
810.000000	0.385216
811.000000	0.385268
812.000000	0.385226
813.000000	0.385162
814.000000	0.385106
815.000000	0.385087
816.000000	0.385125
817.000000	0.385219
818.000000	0.385242
819.000000	0.385208
820.000000	0.385160
821.000000	0.385062
822.000000	0.384960
823.000000	0.384946
824.000000	0.384930
825.000000	0.384916
826.000000	0.384926
827.000000	0.384876
828.000000	0.384775
829.000000	0.384646
830.000000	0.384540
831.000000	0.384551
832.000000	0.384578
833.000000	0.384665
834.000000	0.384726
835.000000	0.384737
836.000000	0.384717
837.000000	0.384680
838.000000	0.384635
839.000000	0.384527
840.000000	0.384409
841.000000	0.384329
842.000000	0.384256
843.000000	0.384128
844.000000	0.384054
845.000000	0.384039
846.000000	0.384075
847.000000	0.384027
848.000000	0.383911
849.000000	0.383832
850.000000	0.383815
851.000000	0.383774
852.000000	0.383720
853.000000	0.383657
854.000000	0.383500
855.000000	0.383390
856.000000	0.383293
857.000000	0.383224
858.000000	0.383208
859.000000	0.383123
860.000000	0.382909
861.000000	0.382687
862.000000	0.382496
863.000000	0.382253
864.000000	0.382083
865.000000	0.382016
866.000000	0.382060
867.000000	0.382103
868.000000	0.382150
869.000000	0.382095
870.000000	0.381952
871.000000	0.381745
872.000000	0.381555
873.000000	0.381357
874.000000	0.381186
875.000000	0.380989
876.000000	0.380787
877.000000	0.380545
878.000000	0.380294
879.000000	0.380131
880.000000	0.379945
881.000000	0.379865
882.000000	0.379732
883.000000	0.379508
884.000000	0.379155
885.000000	0.378920
886.000000	0.378741
887.000000	0.378594
888.000000	0.378471
889.000000	0.378458
890.000000	0.378352
891.000000	0.378172
892.000000	0.378107
893.000000	0.378066
894.000000	0.378061
895.000000	0.377810
896.000000	0.377454
897.000000	0.377130
898.000000	0.376952
899.000000	0.376850
900.000000	0.376748
901.000000	0.376579
902.000000	0.376452
903.000000	0.376312
904.000000	0.376170
905.000000	0.375928
906.000000	0.375740
907.000000	0.375479
908.000000	0.375217
909.000000	0.375021
910.000000	0.374739
911.000000	0.374505
912.000000	0.374416
913.000000	0.374095
914.000000	0.373691
915.000000	0.373388
916.000000	0.373180
917.000000	0.373024
918.000000	0.372905
919.000000	0.372783
920.000000	0.372649
921.000000	0.372497
922.000000	0.372311
923.000000	0.372032
924.000000	0.371674
925.000000	0.371358
926.000000	0.371147
927.000000	0.370827
928.000000	0.370505
929.000000	0.370205
930.000000	0.369946
931.000000	0.369865
932.000000	0.369708
933.000000	0.369402
934.000000	0.368972
935.000000	0.368566
936.000000	0.368304
937.000000	0.368074
938.000000	0.367660
939.000000	0.367387
940.000000	0.367180
941.000000	0.366919
942.000000	0.366553
943.000000	0.366248
944.000000	0.365931
945.000000	0.365586
946.000000	0.365170
947.000000	0.364851
948.000000	0.364697
949.000000	0.364400
950.000000	0.364275
951.000000	0.364309
952.000000	0.364293
953.000000	0.363989
954.000000	0.363676
955.000000	0.363492
956.000000	0.363311
957.000000	0.363067
958.000000	0.362747
959.000000	0.362528
960.000000	0.362448
961.000000	0.362266
962.000000	0.361946
963.000000	0.361782
964.000000	0.361554
965.000000	0.361289
966.000000	0.360932
967.000000	0.360680
968.000000	0.360427
969.000000	0.360093
970.000000	0.359786
971.000000	0.359562
972.000000	0.359499
973.000000	0.359420
974.000000	0.359095
975.000000	0.358927
976.000000	0.358834
977.000000	0.358652
978.000000	0.358348
979.000000	0.358150
980.000000	0.357847
981.000000	0.357636
982.000000	0.357439
983.000000	0.357188
984.000000	0.356962
985.000000	0.356782
986.000000	0.356427
987.000000	0.356147
988.000000	0.356014
989.000000	0.356052
990.000000	0.355752
991.000000	0.355384
992.000000	0.355387
993.000000	0.355199
994.000000	0.355014
995.000000	0.354989
996.000000	0.354770
997.000000	0.354571
998.000000	0.354375
999.000000	0.354254
1000.000000	0.354135
1001.000000	0.354671
1002.000000	0.354004
1003.000000	0.354090
1004.000000	0.353933
1005.000000	0.353459
1006.000000	0.353315
1007.000000	0.353639
1008.000000	0.353477
1009.000000	0.353063
1010.000000	0.352862
1011.000000	0.352951
1012.000000	0.353003
1013.000000	0.352699
1014.000000	0.352343
1015.000000	0.352022
1016.000000	0.351900
1017.000000	0.351823
1018.000000	0.352312
1019.000000	0.352502
1020.000000	0.352765
1021.000000	0.352239
1022.000000	0.351398
1023.000000	0.351261
1024.000000	0.350854
1025.000000	0.350912
1026.000000	0.351202
1027.000000	0.351057
1028.000000	0.350792
1029.000000	0.350639
1030.000000	0.350593
1031.000000	0.350671
1032.000000	0.350911
1033.000000	0.351004
1034.000000	0.351171
1035.000000	0.351528
1036.000000	0.351679
1037.000000	0.351922
1038.000000	0.351774
1039.000000	0.351419
1040.000000	0.351079
1041.000000	0.351038
1042.000000	0.350967
1043.000000	0.351131
1044.000000	0.351787
1045.000000	0.351984
1046.000000	0.351927
1047.000000	0.352042
1048.000000	0.351983
1049.000000	0.352052
1050.000000	0.352361
1051.000000	0.352464
1052.000000	0.352453
1053.000000	0.352515
1054.000000	0.352688
1055.000000	0.352820
1056.000000	0.353022
1057.000000	0.353315
1058.000000	0.353213
1059.000000	0.352977
1060.000000	0.353197
1061.000000	0.353494
1062.000000	0.353607
1063.000000	0.353823
1064.000000	0.354073
1065.000000	0.354093
1066.000000	0.354251
1067.000000	0.354630
1068.000000	0.354799
1069.000000	0.354596
1070.000000	0.354712
1071.000000	0.355096
1072.000000	0.355410
1073.000000	0.355955
1074.000000	0.356377
1075.000000	0.356525
1076.000000	0.356779
1077.000000	0.356858
1078.000000	0.356919
1079.000000	0.357079
1080.000000	0.357351
1081.000000	0.357482
1082.000000	0.357814
1083.000000	0.357874
1084.000000	0.357599
1085.000000	0.357735
1086.000000	0.357909
1087.000000	0.358139
1088.000000	0.358669
1089.000000	0.358921
1090.000000	0.358993
1091.000000	0.358956
1092.000000	0.359033
1093.000000	0.359212
1094.000000	0.359374
1095.000000	0.359488
1096.000000	0.359819
1097.000000	0.360386
1098.000000	0.360580
1099.000000	0.360657
1100.000000	0.360838
1101.000000	0.360629
1102.000000	0.360731
1103.000000	0.361120
1104.000000	0.361456
1105.000000	0.361891
1106.000000	0.362169
1107.000000	0.362314
1108.000000	0.362502
1109.000000	0.362652
1110.000000	0.362798
1111.000000	0.363046
1112.000000	0.363488
1113.000000	0.363697
1114.000000	0.363868
1115.000000	0.363982
1116.000000	0.363990
1117.000000	0.364002
1118.000000	0.363919
1119.000000	0.363892
1120.000000	0.363789
1121.000000	0.363846
1122.000000	0.364209
1123.000000	0.364577
1124.000000	0.364806
1125.000000	0.364989
1126.000000	0.364969
1127.000000	0.364959
1128.000000	0.364925
1129.000000	0.364841
1130.000000	0.364958
1131.000000	0.365192
1132.000000	0.365299
1133.000000	0.365538
1134.000000	0.365717
1135.000000	0.365751
1136.000000	0.365807
1137.000000	0.365918
1138.000000	0.365924
1139.000000	0.365886
1140.000000	0.365994
1141.000000	0.366131
1142.000000	0.366210
1143.000000	0.366182
1144.000000	0.366352
1145.000000	0.366298
1146.000000	0.366312
1147.000000	0.366429
1148.000000	0.366591
1149.000000	0.366688
1150.000000	0.366842
1151.000000	0.366961
1152.000000	0.366958
1153.000000	0.367054
1154.000000	0.367151
1155.000000	0.367210
1156.000000	0.367296
1157.000000	0.367361
1158.000000	0.367339
1159.000000	0.367356
1160.000000	0.367393
1161.000000	0.367364
1162.000000	0.367323
1163.000000	0.367462
1164.000000	0.367505
1165.000000	0.367573
1166.000000	0.367682
1167.000000	0.367834
1168.000000	0.367858
1169.000000	0.367865
1170.000000	0.367910
1171.000000	0.367964
1172.000000	0.368027
1173.000000	0.368081
1174.000000	0.368112
1175.000000	0.368085
1176.000000	0.368046
1177.000000	0.368134
1178.000000	0.368122
1179.000000	0.367994
1180.000000	0.367871
1181.000000	0.367809
1182.000000	0.367714
1183.000000	0.367721
1184.000000	0.367849
1185.000000	0.367881
1186.000000	0.367914
1187.000000	0.367913
1188.000000	0.367873
1189.000000	0.367801
1190.000000	0.367736
1191.000000	0.367749
1192.000000	0.367868
1193.000000	0.368070
1194.000000	0.368244
1195.000000	0.368389
1196.000000	0.368503
1197.000000	0.368582
1198.000000	0.368676
1199.000000	0.368740
1200.000000	0.368742
1201.000000	0.368734
1202.000000	0.368725
1203.000000	0.368706
1204.000000	0.368706
1205.000000	0.368701
1206.000000	0.368618
1207.000000	0.368612
1208.000000	0.368509
1209.000000	0.368362
1210.000000	0.368305
1211.000000	0.368282
1212.000000	0.368222
1213.000000	0.368231
1214.000000	0.368250
1215.000000	0.368210
1216.000000	0.368217
1217.000000	0.368295
1218.000000	0.368248
1219.000000	0.368127
1220.000000	0.368135
1221.000000	0.368142
1222.000000	0.368073
1223.000000	0.368156
1224.000000	0.368199
1225.000000	0.368103
1226.000000	0.368172
1227.000000	0.368223
1228.000000	0.368218
1229.000000	0.368160
1230.000000	0.368060
1231.000000	0.367920
1232.000000	0.367812
1233.000000	0.367848
1234.000000	0.367927
1235.000000	0.367929
1236.000000	0.367841
1237.000000	0.367858
1238.000000	0.367827
1239.000000	0.367801
1240.000000	0.367807
1241.000000	0.367888
1242.000000	0.367861
1243.000000	0.367762
1244.000000	0.367695
1245.000000	0.367618
1246.000000	0.367503
1247.000000	0.367558
1248.000000	0.367614
1249.000000	0.367628
1250.000000	0.367647
1251.000000	0.367635
1252.000000	0.367601
1253.000000	0.367586
1254.000000	0.367538
1255.000000	0.367390
1256.000000	0.367392
1257.000000	0.367523
1258.000000	0.367609
1259.000000	0.367722
1260.000000	0.367792
1261.000000	0.367696
1262.000000	0.367646
1263.000000	0.367627
1264.000000	0.367593
1265.000000	0.367526
1266.000000	0.367430
1267.000000	0.367319
1268.000000	0.367114
1269.000000	0.366938
1270.000000	0.366924
1271.000000	0.366824
1272.000000	0.366774
1273.000000	0.366857
1274.000000	0.366843
1275.000000	0.366792
1276.000000	0.366808
1277.000000	0.366858
1278.000000	0.366706
1279.000000	0.366631
1280.000000	0.366567
1281.000000	0.366494
1282.000000	0.366425
1283.000000	0.366518
1284.000000	0.366695
1285.000000	0.366749
1286.000000	0.366746
1287.000000	0.366791
1288.000000	0.366808
1289.000000	0.366771
1290.000000	0.366704
1291.000000	0.366678
1292.000000	0.366678
1293.000000	0.366571
1294.000000	0.366492
1295.000000	0.366490
1296.000000	0.366383
1297.000000	0.366334
1298.000000	0.366409
1299.000000	0.366421
1300.000000	0.366463
1301.000000	0.366456
1302.000000	0.366371
1303.000000	0.366339
1304.000000	0.366245
1305.000000	0.366180
1306.000000	0.366129
1307.000000	0.366114
1308.000000	0.366130
1309.000000	0.366172
1310.000000	0.366223
1311.000000	0.366353
1312.000000	0.366375
1313.000000	0.366355
1314.000000	0.366314
1315.000000	0.366142
1316.000000	0.366063
1317.000000	0.366084
1318.000000	0.366037
1319.000000	0.365942
1320.000000	0.365872
1321.000000	0.365771
1322.000000	0.365729
1323.000000	0.365724
1324.000000	0.365695
1325.000000	0.365641
1326.000000	0.365535
1327.000000	0.365482
1328.000000	0.365533
1329.000000	0.365442
1330.000000	0.365289
1331.000000	0.365213
1332.000000	0.365204
1333.000000	0.365124
1334.000000	0.365067
1335.000000	0.365069
1336.000000	0.365078
1337.000000	0.365011
1338.000000	0.364884
1339.000000	0.364847
1340.000000	0.364688
1341.000000	0.364466
1342.000000	0.364271
1343.000000	0.364091
1344.000000	0.363978
1345.000000	0.363861
1346.000000	0.363800
1347.000000	0.363687
1348.000000	0.363617
1349.000000	0.363469
1350.000000	0.363375
1351.000000	0.363313
1352.000000	0.363194
1353.000000	0.363045
1354.000000	0.362991
1355.000000	0.362966
1356.000000	0.362921
1357.000000	0.362772
1358.000000	0.362605
1359.000000	0.362401
1360.000000	0.362243
1361.000000	0.362167
1362.000000	0.362078
1363.000000	0.361970
1364.000000	0.361900
1365.000000	0.361829
1366.000000	0.361734
1367.000000	0.361657
1368.000000	0.361510
1369.000000	0.361399
1370.000000	0.361185
1371.000000	0.360819
1372.000000	0.360434
1373.000000	0.360000
1374.000000	0.359480
1375.000000	0.358951
1376.000000	0.358468
1377.000000	0.357831
1378.000000	0.356972
1379.000000	0.355920
1380.000000	0.354624
1381.000000	0.353079
1382.000000	0.351417
1383.000000	0.349667
1384.000000	0.347741
1385.000000	0.345857
1386.000000	0.344165
1387.000000	0.342566
1388.000000	0.341175
1389.000000	0.340173
1390.000000	0.339538
1391.000000	0.339178
1392.000000	0.339208
1393.000000	0.339374
1394.000000	0.339878
1395.000000	0.340361
1396.000000	0.341133
1397.000000	0.341573
1398.000000	0.341905
1399.000000	0.342164
1400.000000	0.342288
1401.000000	0.342273
1402.000000	0.342214
1403.000000	0.342096
1404.000000	0.341891
1405.000000	0.341556
1406.000000	0.341228
1407.000000	0.340932
1408.000000	0.340537
1409.000000	0.340271
1410.000000	0.340191
1411.000000	0.340105
1412.000000	0.340030
1413.000000	0.340058
1414.000000	0.340148
1415.000000	0.340246
1416.000000	0.340366
1417.000000	0.340606
1418.000000	0.340834
1419.000000	0.341101
1420.000000	0.341365
1421.000000	0.341747
1422.000000	0.342110
1423.000000	0.342495
1424.000000	0.342856
1425.000000	0.343165
1426.000000	0.343371
1427.000000	0.343593
1428.000000	0.343829
1429.000000	0.344008
1430.000000	0.344258
1431.000000	0.344556
1432.000000	0.344755
1433.000000	0.344950
1434.000000	0.345153
1435.000000	0.345415
1436.000000	0.345601
1437.000000	0.345757
1438.000000	0.345888
1439.000000	0.345966
1440.000000	0.346127
1441.000000	0.346403
1442.000000	0.346627
1443.000000	0.346790
1444.000000	0.346925
1445.000000	0.347035
1446.000000	0.347167
1447.000000	0.347315
1448.000000	0.347453
1449.000000	0.347562
1450.000000	0.347598
1451.000000	0.347643
1452.000000	0.347650
1453.000000	0.347654
1454.000000	0.347628
1455.000000	0.347573
1456.000000	0.347597
1457.000000	0.347644
1458.000000	0.347673
1459.000000	0.347693
1460.000000	0.347668
1461.000000	0.347608
1462.000000	0.347622
1463.000000	0.347653
1464.000000	0.347738
1465.000000	0.347872
1466.000000	0.347947
1467.000000	0.348090
1468.000000	0.348235
1469.000000	0.348383
1470.000000	0.348483
1471.000000	0.348638
1472.000000	0.348819
1473.000000	0.349069
1474.000000	0.349278
1475.000000	0.349474
1476.000000	0.349679
1477.000000	0.349836
1478.000000	0.350047
1479.000000	0.350290
1480.000000	0.350486
1481.000000	0.350645
1482.000000	0.350852
1483.000000	0.351066
1484.000000	0.351228
1485.000000	0.351417
1486.000000	0.351624
1487.000000	0.351852
1488.000000	0.352139
1489.000000	0.352380
1490.000000	0.352475
1491.000000	0.352656
1492.000000	0.352754
1493.000000	0.352930
1494.000000	0.353156
1495.000000	0.353338
1496.000000	0.353527
1497.000000	0.353672
1498.000000	0.353812
1499.000000	0.353926
1500.000000	0.354004
1501.000000	0.354063
1502.000000	0.354146
1503.000000	0.354267
1504.000000	0.354345
1505.000000	0.354415
1506.000000	0.354502
1507.000000	0.354566
1508.000000	0.354782
1509.000000	0.354997
1510.000000	0.355078
1511.000000	0.355218
1512.000000	0.355272
1513.000000	0.355300
1514.000000	0.355483
1515.000000	0.355561
1516.000000	0.355645
1517.000000	0.355718
1518.000000	0.355696
1519.000000	0.355661
1520.000000	0.355691
1521.000000	0.355690
1522.000000	0.355730
1523.000000	0.355833
1524.000000	0.355812
1525.000000	0.355801
1526.000000	0.355833
1527.000000	0.355826
1528.000000	0.355921
1529.000000	0.356056
1530.000000	0.356038
1531.000000	0.356136
1532.000000	0.356308
1533.000000	0.356374
1534.000000	0.356518
1535.000000	0.356715
1536.000000	0.356771
1537.000000	0.356903
1538.000000	0.357047
1539.000000	0.357102
1540.000000	0.357231
1541.000000	0.357379
1542.000000	0.357491
1543.000000	0.357559
1544.000000	0.357569
1545.000000	0.357657
1546.000000	0.357732
1547.000000	0.357795
1548.000000	0.357902
1549.000000	0.357895
1550.000000	0.357875
1551.000000	0.357950
1552.000000	0.358044
1553.000000	0.358139
1554.000000	0.358212
1555.000000	0.358275
1556.000000	0.358338
1557.000000	0.358325
1558.000000	0.358368
1559.000000	0.358392
1560.000000	0.358392
1561.000000	0.358446
1562.000000	0.358435
1563.000000	0.358404
1564.000000	0.358412
1565.000000	0.358402
1566.000000	0.358331
1567.000000	0.358379
1568.000000	0.358393
1569.000000	0.358452
1570.000000	0.358442
1571.000000	0.358389
1572.000000	0.358361
1573.000000	0.358297
1574.000000	0.358275
1575.000000	0.358344
1576.000000	0.358368
1577.000000	0.358327
1578.000000	0.358314
1579.000000	0.358381
1580.000000	0.358389
1581.000000	0.358475
1582.000000	0.358496
1583.000000	0.358460
1584.000000	0.358390
1585.000000	0.358372
1586.000000	0.358368
1587.000000	0.358335
1588.000000	0.358312
1589.000000	0.358313
1590.000000	0.358318
1591.000000	0.358367
1592.000000	0.358395
1593.000000	0.358453
1594.000000	0.358474
1595.000000	0.358516
1596.000000	0.358550
1597.000000	0.358631
1598.000000	0.358635
1599.000000	0.358661
1600.000000	0.358582
1601.000000	0.358477
1602.000000	0.358420
1603.000000	0.358352
1604.000000	0.358303
1605.000000	0.358341
1606.000000	0.358314
1607.000000	0.358340
1608.000000	0.358285
1609.000000	0.358217
1610.000000	0.358159
1611.000000	0.358065
1612.000000	0.358021
1613.000000	0.358159
1614.000000	0.358168
1615.000000	0.358221
1616.000000	0.358271
1617.000000	0.358194
1618.000000	0.358188
1619.000000	0.358185
1620.000000	0.358209
1621.000000	0.358310
1622.000000	0.358430
1623.000000	0.358546
1624.000000	0.358600
1625.000000	0.358509
1626.000000	0.358389
1627.000000	0.358216
1628.000000	0.358162
1629.000000	0.358107
1630.000000	0.358084
1631.000000	0.358043
1632.000000	0.358003
1633.000000	0.357978
1634.000000	0.357996
1635.000000	0.358117
1636.000000	0.358161
1637.000000	0.358233
1638.000000	0.358222
1639.000000	0.358189
1640.000000	0.358180
1641.000000	0.358241
1642.000000	0.358236
1643.000000	0.358262
1644.000000	0.358220
1645.000000	0.358062
1646.000000	0.357989
1647.000000	0.357983
1648.000000	0.357969
1649.000000	0.358103
1650.000000	0.358169
1651.000000	0.358260
1652.000000	0.358334
1653.000000	0.358361
1654.000000	0.358362
1655.000000	0.358248
1656.000000	0.358110
1657.000000	0.358032
1658.000000	0.357892
1659.000000	0.357801
1660.000000	0.357807
1661.000000	0.357701
1662.000000	0.357715
1663.000000	0.357857
1664.000000	0.357883
1665.000000	0.357863
1666.000000	0.357967
1667.000000	0.357999
1668.000000	0.358032
1669.000000	0.358132
1670.000000	0.358067
1671.000000	0.358012
1672.000000	0.358023
1673.000000	0.357958
1674.000000	0.357944
1675.000000	0.357982
1676.000000	0.357934
1677.000000	0.357893
1678.000000	0.357810
1679.000000	0.357699
1680.000000	0.357630
1681.000000	0.357621
1682.000000	0.357643
1683.000000	0.357734
1684.000000	0.357814
1685.000000	0.357828
1686.000000	0.357792
1687.000000	0.357829
1688.000000	0.357835
1689.000000	0.357857
1690.000000	0.357869
1691.000000	0.357916
1692.000000	0.357898
1693.000000	0.357845
1694.000000	0.357762
1695.000000	0.357682
1696.000000	0.357598
1697.000000	0.357444
1698.000000	0.357303
1699.000000	0.357252
1700.000000	0.357167
1701.000000	0.357234
1702.000000	0.357329
1703.000000	0.357288
1704.000000	0.357286
1705.000000	0.357285
1706.000000	0.357285
1707.000000	0.357256
1708.000000	0.357184
1709.000000	0.357068
1710.000000	0.356980
1711.000000	0.356943
1712.000000	0.357010
1713.000000	0.356976
1714.000000	0.356900
1715.000000	0.356915
1716.000000	0.356958
1717.000000	0.356983
1718.000000	0.357088
1719.000000	0.357065
1720.000000	0.356985
1721.000000	0.356921
1722.000000	0.356803
1723.000000	0.356762
1724.000000	0.356821
1725.000000	0.356793
1726.000000	0.356654
1727.000000	0.356558
1728.000000	0.356365
1729.000000	0.356120
1730.000000	0.356019
1731.000000	0.355874
1732.000000	0.355647
1733.000000	0.355579
1734.000000	0.355452
1735.000000	0.355377
1736.000000	0.355348
1737.000000	0.355234
1738.000000	0.355076
1739.000000	0.355089
1740.000000	0.355115
1741.000000	0.355142
1742.000000	0.355324
1743.000000	0.355451
1744.000000	0.355487
1745.000000	0.355534
1746.000000	0.355630
1747.000000	0.355602
1748.000000	0.355548
1749.000000	0.355566
1750.000000	0.355455
1751.000000	0.355341
1752.000000	0.355377
1753.000000	0.355193
1754.000000	0.355168
1755.000000	0.355340
1756.000000	0.355361
1757.000000	0.355400
1758.000000	0.355384
1759.000000	0.355185
1760.000000	0.355085
1761.000000	0.354940
1762.000000	0.354864
1763.000000	0.354931
1764.000000	0.354899
1765.000000	0.354829
1766.000000	0.354756
1767.000000	0.354496
1768.000000	0.354324
1769.000000	0.354283
1770.000000	0.354297
1771.000000	0.354367
1772.000000	0.354331
1773.000000	0.354201
1774.000000	0.354161
1775.000000	0.354154
1776.000000	0.354168
1777.000000	0.354260
1778.000000	0.354227
1779.000000	0.354122
1780.000000	0.353992
1781.000000	0.353744
1782.000000	0.353616
1783.000000	0.353516
1784.000000	0.353588
1785.000000	0.353590
1786.000000	0.353643
1787.000000	0.353774
1788.000000	0.353769
1789.000000	0.353676
1790.000000	0.353596
1791.000000	0.353468
1792.000000	0.353407
1793.000000	0.353391
1794.000000	0.353414
1795.000000	0.353425
1796.000000	0.353511
1797.000000	0.353493
1798.000000	0.353308
1799.000000	0.353260
1800.000000	0.353348
1801.000000	0.353375
1802.000000	0.353319
1803.000000	0.353222
1804.000000	0.353446
1805.000000	0.353635
1806.000000	0.354001
1807.000000	0.355205
1808.000000	0.355558
1809.000000	0.355434
1810.000000	0.355364
1811.000000	0.355047
1812.000000	0.354161
1813.000000	0.353797
1814.000000	0.353475
1815.000000	0.353326
1816.000000	0.353529
1817.000000	0.353434
1818.000000	0.353388
1819.000000	0.353451
1820.000000	0.353335
1821.000000	0.353102
1822.000000	0.352975
1823.000000	0.352737
1824.000000	0.352524
1825.000000	0.352382
1826.000000	0.352162
1827.000000	0.351677
1828.000000	0.351417
1829.000000	0.350887
1830.000000	0.350442
1831.000000	0.350392
1832.000000	0.350482
1833.000000	0.350784
1834.000000	0.351823
1835.000000	0.352039
1836.000000	0.351861
1837.000000	0.351828
1838.000000	0.351362
1839.000000	0.351021
1840.000000	0.350816
1841.000000	0.350182
1842.000000	0.349909
1843.000000	0.349441
1844.000000	0.349353
1845.000000	0.349738
1846.000000	0.349864
1847.000000	0.349711
1848.000000	0.349711
1849.000000	0.349929
1850.000000	0.349832
1851.000000	0.349793
1852.000000	0.349808
1853.000000	0.349763
1854.000000	0.349269
1855.000000	0.349003
1856.000000	0.348698
1857.000000	0.348588
1858.000000	0.348510
1859.000000	0.348370
1860.000000	0.348175
1861.000000	0.347607
1862.000000	0.347052
1863.000000	0.346163
1864.000000	0.345804
1865.000000	0.345994
1866.000000	0.345714
1867.000000	0.345516
1868.000000	0.344918
1869.000000	0.343768
1870.000000	0.342519
1871.000000	0.341856
1872.000000	0.340926
1873.000000	0.339899
1874.000000	0.338904
1875.000000	0.337796
1876.000000	0.336169
1877.000000	0.334479
1878.000000	0.332773
1879.000000	0.331064
1880.000000	0.329293
1881.000000	0.327352
1882.000000	0.325449
1883.000000	0.323269
1884.000000	0.321096
1885.000000	0.318548
1886.000000	0.316013
1887.000000	0.313567
1888.000000	0.310605
1889.000000	0.307188
1890.000000	0.304052
1891.000000	0.300849
1892.000000	0.297859
1893.000000	0.295321
1894.000000	0.292552
1895.000000	0.289657
1896.000000	0.286738
1897.000000	0.283931
1898.000000	0.281442
1899.000000	0.279283
1900.000000	0.277054
1901.000000	0.275289
1902.000000	0.273669
1903.000000	0.272303
1904.000000	0.272062
1905.000000	0.272017
1906.000000	0.271928
1907.000000	0.272055
1908.000000	0.272607
1909.000000	0.272757
1910.000000	0.273129
1911.000000	0.273931
1912.000000	0.274515
1913.000000	0.275405
1914.000000	0.276447
1915.000000	0.277393
1916.000000	0.278406
1917.000000	0.279428
1918.000000	0.280624
1919.000000	0.281892
1920.000000	0.282967
1921.000000	0.284000
1922.000000	0.284789
1923.000000	0.285685
1924.000000	0.286606
1925.000000	0.287628
1926.000000	0.288817
1927.000000	0.289961
1928.000000	0.290773
1929.000000	0.291539
1930.000000	0.291878
1931.000000	0.292166
1932.000000	0.292405
1933.000000	0.292670
1934.000000	0.293302
1935.000000	0.294194
1936.000000	0.295114
1937.000000	0.295892
1938.000000	0.296262
1939.000000	0.296512
1940.000000	0.296392
1941.000000	0.296274
1942.000000	0.296547
1943.000000	0.297254
1944.000000	0.298119
1945.000000	0.299040
1946.000000	0.299736
1947.000000	0.300045
1948.000000	0.300401
1949.000000	0.300784
1950.000000	0.301064
1951.000000	0.301293
1952.000000	0.301697
1953.000000	0.301897
1954.000000	0.302070
1955.000000	0.302227
1956.000000	0.302233
1957.000000	0.302783
1958.000000	0.303281
1959.000000	0.303630
1960.000000	0.304547
1961.000000	0.304598
1962.000000	0.304655
1963.000000	0.304432
1964.000000	0.304906
1965.000000	0.304788
1966.000000	0.305030
1967.000000	0.305708
1968.000000	0.305886
1969.000000	0.306099
1970.000000	0.306642
1971.000000	0.306771
1972.000000	0.306943
1973.000000	0.307249
1974.000000	0.307839
1975.000000	0.308213
1976.000000	0.308731
1977.000000	0.309222
1978.000000	0.309154
1979.000000	0.309085
1980.000000	0.309834
1981.000000	0.310591
1982.000000	0.311216
1983.000000	0.312285
1984.000000	0.312774
1985.000000	0.312553
1986.000000	0.312646
1987.000000	0.312849
1988.000000	0.313046
1989.000000	0.313019
1990.000000	0.313595
1991.000000	0.314089
1992.000000	0.314308
1993.000000	0.314741
1994.000000	0.315061
1995.000000	0.315589
1996.000000	0.315967
1997.000000	0.316271
1998.000000	0.316498
1999.000000	0.316961
2000.000000	0.317267
2001.000000	0.318114
2002.000000	0.318980
2003.000000	0.319870
2004.000000	0.320598
2005.000000	0.320567
2006.000000	0.320689
2007.000000	0.320960
2008.000000	0.321110
2009.000000	0.321123
2010.000000	0.321317
2011.000000	0.321311
2012.000000	0.321472
2013.000000	0.321680
2014.000000	0.321944
2015.000000	0.322423
2016.000000	0.322581
2017.000000	0.322527
2018.000000	0.322690
2019.000000	0.322422
2020.000000	0.322394
2021.000000	0.322618
2022.000000	0.322922
2023.000000	0.323304
2024.000000	0.324129
2025.000000	0.324698
2026.000000	0.325130
2027.000000	0.325490
2028.000000	0.325672
2029.000000	0.325858
2030.000000	0.325586
2031.000000	0.325375
2032.000000	0.325279
2033.000000	0.325267
2034.000000	0.325405
2035.000000	0.325941
2036.000000	0.326281
2037.000000	0.326911
2038.000000	0.327287
2039.000000	0.327753
2040.000000	0.327998
2041.000000	0.327929
2042.000000	0.327956
2043.000000	0.327964
2044.000000	0.327947
2045.000000	0.328338
2046.000000	0.328751
2047.000000	0.328969
2048.000000	0.329153
2049.000000	0.329426
2050.000000	0.328919
2051.000000	0.329006
2052.000000	0.329405
2053.000000	0.329562
2054.000000	0.329996
2055.000000	0.330773
2056.000000	0.331210
2057.000000	0.331320
2058.000000	0.331429
2059.000000	0.331155
2060.000000	0.331065
2061.000000	0.330856
2062.000000	0.330777
2063.000000	0.330923
2064.000000	0.330860
2065.000000	0.331136
2066.000000	0.330932
2067.000000	0.330732
2068.000000	0.330636
2069.000000	0.330120
2070.000000	0.329680
2071.000000	0.329963
2072.000000	0.329870
2073.000000	0.329679
2074.000000	0.329475
2075.000000	0.329536
2076.000000	0.329529
2077.000000	0.329655
2078.000000	0.330306
2079.000000	0.330558
2080.000000	0.330477
2081.000000	0.330631
2082.000000	0.331011
2083.000000	0.331043
2084.000000	0.331222
2085.000000	0.331169
2086.000000	0.330863
2087.000000	0.330728
2088.000000	0.330743
2089.000000	0.330978
2090.000000	0.331216
2091.000000	0.331882
2092.000000	0.332170
2093.000000	0.332264
2094.000000	0.332413
2095.000000	0.332384
2096.000000	0.332597
2097.000000	0.333007
2098.000000	0.333195
2099.000000	0.333317
2100.000000	0.333412
2101.000000	0.332851
2102.000000	0.332379
2103.000000	0.332314
2104.000000	0.332272
2105.000000	0.332488
2106.000000	0.333364
2107.000000	0.333727
2108.000000	0.333967
2109.000000	0.334175
2110.000000	0.334004
2111.000000	0.333855
2112.000000	0.333638
2113.000000	0.333079
2114.000000	0.332506
2115.000000	0.332208
2116.000000	0.332179
2117.000000	0.332407
2118.000000	0.332476
2119.000000	0.332922
2120.000000	0.333267
2121.000000	0.333476
2122.000000	0.333738
2123.000000	0.334252
2124.000000	0.334417
2125.000000	0.334518
2126.000000	0.334367
2127.000000	0.333897
2128.000000	0.333663
2129.000000	0.332977
2130.000000	0.332813
2131.000000	0.333016
2132.000000	0.333448
2133.000000	0.333732
2134.000000	0.333609
2135.000000	0.333420
2136.000000	0.332632
2137.000000	0.332484
2138.000000	0.332960
2139.000000	0.332945
2140.000000	0.332586
2141.000000	0.332845
2142.000000	0.333268
2143.000000	0.333324
2144.000000	0.334258
2145.000000	0.334556
2146.000000	0.334195
2147.000000	0.334228
2148.000000	0.334323
2149.000000	0.334517
2150.000000	0.335143
2151.000000	0.335055
2152.000000	0.334229
2153.000000	0.333691
2154.000000	0.333372
2155.000000	0.332919
2156.000000	0.332766
2157.000000	0.333257
2158.000000	0.333279
2159.000000	0.332991
2160.000000	0.333191
2161.000000	0.333730
2162.000000	0.334072
2163.000000	0.334548
2164.000000	0.334585
2165.000000	0.334261
2166.000000	0.333838
2167.000000	0.333332
2168.000000	0.333214
2169.000000	0.332735
2170.000000	0.332210
2171.000000	0.331965
2172.000000	0.331676
2173.000000	0.331480
2174.000000	0.331510
2175.000000	0.331703
2176.000000	0.332313
2177.000000	0.332439
2178.000000	0.332653
2179.000000	0.332725
2180.000000	0.331913
2181.000000	0.331818
2182.000000	0.331233
2183.000000	0.331482
2184.000000	0.331991
2185.000000	0.332043
2186.000000	0.332162
2187.000000	0.332590
2188.000000	0.331924
2189.000000	0.331068
2190.000000	0.330811
2191.000000	0.330215
2192.000000	0.329857
2193.000000	0.330073
2194.000000	0.329788
2195.000000	0.329052
2196.000000	0.329142
2197.000000	0.329617
2198.000000	0.329725
2199.000000	0.330585
2200.000000	0.330553
2201.000000	0.329031
2202.000000	0.328929
2203.000000	0.329150
2204.000000	0.329439
2205.000000	0.330615
2206.000000	0.330573
2207.000000	0.329452
2208.000000	0.329469
2209.000000	0.329612
2210.000000	0.330597
2211.000000	0.330746
2212.000000	0.330015
2213.000000	0.329253
2214.000000	0.327008
2215.000000	0.325838
2216.000000	0.325085
2217.000000	0.324882
2218.000000	0.324422
2219.000000	0.325694
2220.000000	0.329953
2221.000000	0.330799
2222.000000	0.330944
2223.000000	0.330852
2224.000000	0.328596
2225.000000	0.326789
2226.000000	0.326471
2227.000000	0.325854
2228.000000	0.325469
2229.000000	0.324294
2230.000000	0.323567
2231.000000	0.324205
2232.000000	0.325287
2233.000000	0.327043
2234.000000	0.329048
2235.000000	0.329825
2236.000000	0.329378
2237.000000	0.326991
2238.000000	0.326175
2239.000000	0.324346
2240.000000	0.323950
2241.000000	0.325451
2242.000000	0.325564
2243.000000	0.325118
2244.000000	0.325486
2245.000000	0.325729
2246.000000	0.326243
2247.000000	0.327219
2248.000000	0.328411
2249.000000	0.330700
2250.000000	0.331277
2251.000000	0.330673
2252.000000	0.330670
2253.000000	0.329155
2254.000000	0.327303
2255.000000	0.326958
2256.000000	0.326205
2257.000000	0.325504
2258.000000	0.325100
2259.000000	0.325205
2260.000000	0.325397
2261.000000	0.323993
2262.000000	0.321108
2263.000000	0.320675
2264.000000	0.319760
2265.000000	0.319964
2266.000000	0.323313
2267.000000	0.323745
2268.000000	0.322599
2269.000000	0.322145
2270.000000	0.321410
2271.000000	0.320091
2272.000000	0.318522
2273.000000	0.317504
2274.000000	0.315803
2275.000000	0.314687
2276.000000	0.314817
2277.000000	0.313399
2278.000000	0.311954
2279.000000	0.311658
2280.000000	0.310566
2281.000000	0.310133
2282.000000	0.309457
2283.000000	0.307571
2284.000000	0.306205
2285.000000	0.305488
2286.000000	0.305058
2287.000000	0.303626
2288.000000	0.302880
2289.000000	0.301711
2290.000000	0.299812
2291.000000	0.299869
2292.000000	0.298734
2293.000000	0.297102
2294.000000	0.296313
2295.000000	0.295056
2296.000000	0.295112
2297.000000	0.297323
2298.000000	0.297481
2299.000000	0.298192
2300.000000	0.296754
2301.000000	0.291610
2302.000000	0.289644
2303.000000	0.287788
2304.000000	0.286567
2305.000000	0.288858
2306.000000	0.288497
2307.000000	0.286216
2308.000000	0.285277
2309.000000	0.283821
2310.000000	0.280600
2311.000000	0.278432
2312.000000	0.276375
2313.000000	0.273638
2314.000000	0.272101
2315.000000	0.272883
2316.000000	0.273972
2317.000000	0.276090
2318.000000	0.279847
2319.000000	0.283123
2320.000000	0.286134
2321.000000	0.289605
2322.000000	0.293359
2323.000000	0.296352
2324.000000	0.298692
2325.000000	0.300432
2326.000000	0.300484
2327.000000	0.300198
2328.000000	0.300401
2329.000000	0.300366
2330.000000	0.300702
2331.000000	0.301587
2332.000000	0.302681
2333.000000	0.303527
2334.000000	0.303422
2335.000000	0.304023
2336.000000	0.303607
2337.000000	0.303920
2338.000000	0.305596
2339.000000	0.305504
2340.000000	0.304705
2341.000000	0.304250
2342.000000	0.302238
2343.000000	0.302255
2344.000000	0.303095
2345.000000	0.303457
2346.000000	0.305618
2347.000000	0.305967
2348.000000	0.305057
2349.000000	0.305666
2350.000000	0.304355
2351.000000	0.302214
2352.000000	0.301277
2353.000000	0.300457
2354.000000	0.299694
2355.000000	0.300612
2356.000000	0.301478
2357.000000	0.301128
2358.000000	0.299228
2359.000000	0.298875
2360.000000	0.299758
2361.000000	0.299626
2362.000000	0.300379
2363.000000	0.299769
2364.000000	0.296412
2365.000000	0.296119
2366.000000	0.298041
2367.000000	0.298680
2368.000000	0.299805
2369.000000	0.297466
2370.000000	0.294281
2371.000000	0.293780
2372.000000	0.294557
2373.000000	0.296774
2374.000000	0.297958
2375.000000	0.298803
2376.000000	0.298799
2377.000000	0.297992
2378.000000	0.297460
2379.000000	0.295970
2380.000000	0.293060
2381.000000	0.289008
2382.000000	0.285855
2383.000000	0.283687
2384.000000	0.281642
2385.000000	0.281640
2386.000000	0.281914
2387.000000	0.280650
2388.000000	0.280775
2389.000000	0.279151
2390.000000	0.275891
2391.000000	0.275932
2392.000000	0.275708
2393.000000	0.278269
2394.000000	0.282329
2395.000000	0.282522
2396.000000	0.284767
2397.000000	0.284644
2398.000000	0.281811
2399.000000	0.282544
2400.000000	0.281149
2401.000000	0.279661
2402.000000	0.282173
2403.000000	0.285768
2404.000000	0.289866
2405.000000	0.291353
2406.000000	0.291606
2407.000000	0.291013
2408.000000	0.287599
2409.000000	0.286368
2410.000000	0.283418
2411.000000	0.276975
2412.000000	0.275142
2413.000000	0.272399
2414.000000	0.270067
2415.000000	0.273706
2416.000000	0.273558
2417.000000	0.277773
2418.000000	0.284414
2419.000000	0.287953
2420.000000	0.295437
2421.000000	0.291955
2422.000000	0.288357
2423.000000	0.286453
2424.000000	0.274873
2425.000000	0.271815
2426.000000	0.272562
2427.000000	0.274114
2428.000000	0.279315
2429.000000	0.278577
2430.000000	0.276424
2431.000000	0.274923
2432.000000	0.272477
2433.000000	0.275160
2434.000000	0.273948
2435.000000	0.267843
2436.000000	0.264993
2437.000000	0.258971
2438.000000	0.260262
2439.000000	0.265057
2440.000000	0.261720
2441.000000	0.263726
2442.000000	0.264498
2443.000000	0.263037
2444.000000	0.265980
2445.000000	0.267922
2446.000000	0.266609
2447.000000	0.263674
2448.000000	0.261349
2449.000000	0.259126
2450.000000	0.256604
2451.000000	0.255593
2452.000000	0.262400
2453.000000	0.264111
2454.000000	0.264421
2455.000000	0.270687
2456.000000	0.266742
2457.000000	0.264432
2458.000000	0.260468
2459.000000	0.249408
2460.000000	0.248355
2461.000000	0.248346
2462.000000	0.248967
2463.000000	0.260610
2464.000000	0.267307
2465.000000	0.266234
2466.000000	0.273034
2467.000000	0.273717
2468.000000	0.262132
2469.000000	0.244225
2470.000000	0.234649
2471.000000	0.230337
2472.000000	0.216641
2473.000000	0.220704
2474.000000	0.226681
2475.000000	0.219560
2476.000000	0.226201
2477.000000	0.231731
2478.000000	0.227139
2479.000000	0.235737
2480.000000	0.244575
2481.000000	0.259455
2482.000000	0.276270
2483.000000	0.283591
2484.000000	0.283241
2485.000000	0.259890
2486.000000	0.237021
2487.000000	0.207938
2488.000000	0.195770
2489.000000	0.198282
2490.000000	0.185776
2491.000000	0.214675
2492.000000	0.216522
2493.000000	0.217997
2494.000000	0.230642
2495.000000	0.232246
2496.000000	0.225161
2497.000000	0.218666
2498.000000	0.219022
2499.000000	0.212963
2500.000000	0.212622
