# Wavelength	SM1200H-40_FV7-60_00001.asd.rts.txt
350.000000	0.249096
351.000000	0.250261
352.000000	0.250583
353.000000	0.246511
354.000000	0.240731
355.000000	0.240663
356.000000	0.241388
357.000000	0.241437
358.000000	0.237233
359.000000	0.236634
360.000000	0.239774
361.000000	0.243989
362.000000	0.244917
363.000000	0.245142
364.000000	0.245940
365.000000	0.245969
366.000000	0.247819
367.000000	0.249767
368.000000	0.246832
369.000000	0.246383
370.000000	0.247291
371.000000	0.246597
372.000000	0.249120
373.000000	0.251406
374.000000	0.251501
375.000000	0.250899
376.000000	0.250903
377.000000	0.251940
378.000000	0.254147
379.000000	0.253258
380.000000	0.251853
381.000000	0.254709
382.000000	0.254861
383.000000	0.254567
384.000000	0.255786
385.000000	0.255496
386.000000	0.255539
387.000000	0.256303
388.000000	0.256235
389.000000	0.256166
390.000000	0.256618
391.000000	0.257638
392.000000	0.258631
393.000000	0.258994
394.000000	0.258590
395.000000	0.258554
396.000000	0.258812
397.000000	0.259322
398.000000	0.260341
399.000000	0.261084
400.000000	0.261440
401.000000	0.261480
402.000000	0.261932
403.000000	0.262554
404.000000	0.263047
405.000000	0.262727
406.000000	0.262935
407.000000	0.264022
408.000000	0.264555
409.000000	0.264874
410.000000	0.265212
411.000000	0.265756
412.000000	0.265653
413.000000	0.265582
414.000000	0.266262
415.000000	0.266343
416.000000	0.266405
417.000000	0.266809
418.000000	0.267155
419.000000	0.267471
420.000000	0.267727
421.000000	0.267822
422.000000	0.268043
423.000000	0.268421
424.000000	0.268935
425.000000	0.269023
426.000000	0.269144
427.000000	0.269576
428.000000	0.269706
429.000000	0.269973
430.000000	0.270403
431.000000	0.270418
432.000000	0.270602
433.000000	0.270914
434.000000	0.271159
435.000000	0.271266
436.000000	0.271371
437.000000	0.271592
438.000000	0.271906
439.000000	0.272069
440.000000	0.272131
441.000000	0.272359
442.000000	0.272581
443.000000	0.272684
444.000000	0.272766
445.000000	0.272928
446.000000	0.273222
447.000000	0.273472
448.000000	0.273720
449.000000	0.274054
450.000000	0.274458
451.000000	0.274530
452.000000	0.274780
453.000000	0.275185
454.000000	0.275357
455.000000	0.275539
456.000000	0.275801
457.000000	0.275958
458.000000	0.276115
459.000000	0.276342
460.000000	0.276705
461.000000	0.277025
462.000000	0.277335
463.000000	0.277515
464.000000	0.277751
465.000000	0.277776
466.000000	0.277730
467.000000	0.278169
468.000000	0.278540
469.000000	0.278702
470.000000	0.278826
471.000000	0.278949
472.000000	0.279038
473.000000	0.279120
474.000000	0.279282
475.000000	0.279436
476.000000	0.279676
477.000000	0.279913
478.000000	0.280010
479.000000	0.280185
480.000000	0.280404
481.000000	0.280619
482.000000	0.280915
483.000000	0.281137
484.000000	0.281414
485.000000	0.281647
486.000000	0.281942
487.000000	0.282133
488.000000	0.282323
489.000000	0.282563
490.000000	0.282854
491.000000	0.283039
492.000000	0.283235
493.000000	0.283461
494.000000	0.283748
495.000000	0.284016
496.000000	0.284197
497.000000	0.284486
498.000000	0.284729
499.000000	0.284966
500.000000	0.285260
501.000000	0.285502
502.000000	0.285755
503.000000	0.286053
504.000000	0.286264
505.000000	0.286471
506.000000	0.286755
507.000000	0.286931
508.000000	0.287114
509.000000	0.287345
510.000000	0.287662
511.000000	0.287941
512.000000	0.288212
513.000000	0.288560
514.000000	0.288875
515.000000	0.289189
516.000000	0.289498
517.000000	0.289772
518.000000	0.290032
519.000000	0.290234
520.000000	0.290571
521.000000	0.290886
522.000000	0.291117
523.000000	0.291314
524.000000	0.291512
525.000000	0.291738
526.000000	0.292064
527.000000	0.292405
528.000000	0.292703
529.000000	0.292974
530.000000	0.293166
531.000000	0.293418
532.000000	0.293697
533.000000	0.293899
534.000000	0.294135
535.000000	0.294414
536.000000	0.294681
537.000000	0.294904
538.000000	0.295111
539.000000	0.295343
540.000000	0.295568
541.000000	0.295810
542.000000	0.296115
543.000000	0.296368
544.000000	0.296651
545.000000	0.296932
546.000000	0.297218
547.000000	0.297509
548.000000	0.297798
549.000000	0.297966
550.000000	0.298210
551.000000	0.298511
552.000000	0.298742
553.000000	0.298986
554.000000	0.299254
555.000000	0.299554
556.000000	0.299886
557.000000	0.300157
558.000000	0.300458
559.000000	0.300711
560.000000	0.300974
561.000000	0.301296
562.000000	0.301551
563.000000	0.301814
564.000000	0.302113
565.000000	0.302360
566.000000	0.302685
567.000000	0.303003
568.000000	0.303260
569.000000	0.303573
570.000000	0.303880
571.000000	0.304160
572.000000	0.304456
573.000000	0.304761
574.000000	0.305037
575.000000	0.305297
576.000000	0.305562
577.000000	0.305801
578.000000	0.306061
579.000000	0.306323
580.000000	0.306621
581.000000	0.306944
582.000000	0.307203
583.000000	0.307490
584.000000	0.307804
585.000000	0.308094
586.000000	0.308356
587.000000	0.308607
588.000000	0.308865
589.000000	0.309100
590.000000	0.309296
591.000000	0.309460
592.000000	0.309652
593.000000	0.309863
594.000000	0.310063
595.000000	0.310199
596.000000	0.310317
597.000000	0.310493
598.000000	0.310705
599.000000	0.310940
600.000000	0.311152
601.000000	0.311251
602.000000	0.311452
603.000000	0.311618
604.000000	0.311731
605.000000	0.311972
606.000000	0.312141
607.000000	0.312254
608.000000	0.312456
609.000000	0.312636
610.000000	0.312794
611.000000	0.312947
612.000000	0.313056
613.000000	0.313163
614.000000	0.313327
615.000000	0.313473
616.000000	0.313647
617.000000	0.313837
618.000000	0.314083
619.000000	0.314380
620.000000	0.314646
621.000000	0.314843
622.000000	0.315084
623.000000	0.315338
624.000000	0.315562
625.000000	0.315773
626.000000	0.315934
627.000000	0.316046
628.000000	0.316165
629.000000	0.316262
630.000000	0.316253
631.000000	0.316331
632.000000	0.316509
633.000000	0.316733
634.000000	0.316917
635.000000	0.317036
636.000000	0.317138
637.000000	0.317226
638.000000	0.317283
639.000000	0.317295
640.000000	0.317338
641.000000	0.317386
642.000000	0.317451
643.000000	0.317542
644.000000	0.317660
645.000000	0.317758
646.000000	0.317855
647.000000	0.317955
648.000000	0.318108
649.000000	0.318308
650.000000	0.318498
651.000000	0.318609
652.000000	0.318723
653.000000	0.318870
654.000000	0.318971
655.000000	0.319093
656.000000	0.319262
657.000000	0.319417
658.000000	0.319522
659.000000	0.319627
660.000000	0.319744
661.000000	0.319893
662.000000	0.319984
663.000000	0.320079
664.000000	0.320214
665.000000	0.320330
666.000000	0.320455
667.000000	0.320597
668.000000	0.320742
669.000000	0.320880
670.000000	0.321021
671.000000	0.321202
672.000000	0.321411
673.000000	0.321618
674.000000	0.321798
675.000000	0.321935
676.000000	0.322054
677.000000	0.322206
678.000000	0.322349
679.000000	0.322473
680.000000	0.322590
681.000000	0.322702
682.000000	0.322849
683.000000	0.322966
684.000000	0.323126
685.000000	0.323308
686.000000	0.323506
687.000000	0.323661
688.000000	0.323746
689.000000	0.323809
690.000000	0.323926
691.000000	0.324070
692.000000	0.324173
693.000000	0.324300
694.000000	0.324485
695.000000	0.324652
696.000000	0.324784
697.000000	0.324901
698.000000	0.325049
699.000000	0.325229
700.000000	0.325421
701.000000	0.325530
702.000000	0.325682
703.000000	0.325879
704.000000	0.326006
705.000000	0.326136
706.000000	0.326265
707.000000	0.326457
708.000000	0.326628
709.000000	0.326743
710.000000	0.326820
711.000000	0.326927
712.000000	0.327022
713.000000	0.327131
714.000000	0.327316
715.000000	0.327482
716.000000	0.327637
717.000000	0.327808
718.000000	0.327976
719.000000	0.328131
720.000000	0.328282
721.000000	0.328424
722.000000	0.328488
723.000000	0.328532
724.000000	0.328582
725.000000	0.328596
726.000000	0.328651
727.000000	0.328692
728.000000	0.328727
729.000000	0.328793
730.000000	0.328860
731.000000	0.328948
732.000000	0.329047
733.000000	0.329202
734.000000	0.329406
735.000000	0.329590
736.000000	0.329845
737.000000	0.330045
738.000000	0.330159
739.000000	0.330309
740.000000	0.330405
741.000000	0.330507
742.000000	0.330583
743.000000	0.330581
744.000000	0.330508
745.000000	0.330427
746.000000	0.330435
747.000000	0.330510
748.000000	0.330635
749.000000	0.330806
750.000000	0.330966
751.000000	0.331073
752.000000	0.331125
753.000000	0.331153
754.000000	0.331186
755.000000	0.331210
756.000000	0.331236
757.000000	0.331229
758.000000	0.331237
759.000000	0.331337
760.000000	0.331462
761.000000	0.331555
762.000000	0.331602
763.000000	0.331606
764.000000	0.331670
765.000000	0.331697
766.000000	0.331743
767.000000	0.331855
768.000000	0.331958
769.000000	0.332040
770.000000	0.332103
771.000000	0.332156
772.000000	0.332224
773.000000	0.332273
774.000000	0.332381
775.000000	0.332445
776.000000	0.332491
777.000000	0.332527
778.000000	0.332535
779.000000	0.332528
780.000000	0.332532
781.000000	0.332559
782.000000	0.332630
783.000000	0.332739
784.000000	0.332701
785.000000	0.332668
786.000000	0.332660
787.000000	0.332659
788.000000	0.332609
789.000000	0.332542
790.000000	0.332480
791.000000	0.332491
792.000000	0.332555
793.000000	0.332631
794.000000	0.332702
795.000000	0.332831
796.000000	0.332960
797.000000	0.333058
798.000000	0.333139
799.000000	0.333149
800.000000	0.333125
801.000000	0.333130
802.000000	0.333162
803.000000	0.333142
804.000000	0.333068
805.000000	0.332951
806.000000	0.332854
807.000000	0.332883
808.000000	0.332980
809.000000	0.333017
810.000000	0.333022
811.000000	0.333029
812.000000	0.333058
813.000000	0.333071
814.000000	0.333079
815.000000	0.333151
816.000000	0.333154
817.000000	0.333132
818.000000	0.333070
819.000000	0.332996
820.000000	0.332936
821.000000	0.332835
822.000000	0.332688
823.000000	0.332646
824.000000	0.332671
825.000000	0.332777
826.000000	0.332880
827.000000	0.332927
828.000000	0.332929
829.000000	0.332831
830.000000	0.332696
831.000000	0.332617
832.000000	0.332519
833.000000	0.332437
834.000000	0.332298
835.000000	0.332112
836.000000	0.332014
837.000000	0.331998
838.000000	0.332037
839.000000	0.332032
840.000000	0.331950
841.000000	0.331857
842.000000	0.331785
843.000000	0.331742
844.000000	0.331714
845.000000	0.331695
846.000000	0.331784
847.000000	0.331821
848.000000	0.331727
849.000000	0.331531
850.000000	0.331380
851.000000	0.331345
852.000000	0.331428
853.000000	0.331424
854.000000	0.331321
855.000000	0.331289
856.000000	0.331306
857.000000	0.331165
858.000000	0.331030
859.000000	0.330902
860.000000	0.330740
861.000000	0.330609
862.000000	0.330564
863.000000	0.330553
864.000000	0.330542
865.000000	0.330459
866.000000	0.330320
867.000000	0.330206
868.000000	0.330184
869.000000	0.330124
870.000000	0.329959
871.000000	0.329842
872.000000	0.329750
873.000000	0.329624
874.000000	0.329608
875.000000	0.329556
876.000000	0.329462
877.000000	0.329292
878.000000	0.328997
879.000000	0.328741
880.000000	0.328497
881.000000	0.328365
882.000000	0.328239
883.000000	0.328078
884.000000	0.327822
885.000000	0.327656
886.000000	0.327474
887.000000	0.327242
888.000000	0.327013
889.000000	0.326817
890.000000	0.326583
891.000000	0.326446
892.000000	0.326372
893.000000	0.326236
894.000000	0.326084
895.000000	0.325803
896.000000	0.325598
897.000000	0.325542
898.000000	0.325602
899.000000	0.325457
900.000000	0.325263
901.000000	0.325068
902.000000	0.324872
903.000000	0.324625
904.000000	0.324371
905.000000	0.324079
906.000000	0.323948
907.000000	0.323804
908.000000	0.323662
909.000000	0.323563
910.000000	0.323380
911.000000	0.323143
912.000000	0.322917
913.000000	0.322641
914.000000	0.322437
915.000000	0.322328
916.000000	0.322090
917.000000	0.321855
918.000000	0.321710
919.000000	0.321629
920.000000	0.321415
921.000000	0.321094
922.000000	0.320772
923.000000	0.320549
924.000000	0.320295
925.000000	0.319981
926.000000	0.319677
927.000000	0.319481
928.000000	0.319406
929.000000	0.319276
930.000000	0.318932
931.000000	0.318643
932.000000	0.318326
933.000000	0.318022
934.000000	0.317805
935.000000	0.317481
936.000000	0.317159
937.000000	0.316855
938.000000	0.316562
939.000000	0.316418
940.000000	0.316274
941.000000	0.316003
942.000000	0.315775
943.000000	0.315564
944.000000	0.315251
945.000000	0.315064
946.000000	0.314681
947.000000	0.314320
948.000000	0.314191
949.000000	0.313980
950.000000	0.313875
951.000000	0.313831
952.000000	0.313693
953.000000	0.313421
954.000000	0.313094
955.000000	0.312732
956.000000	0.312440
957.000000	0.312246
958.000000	0.312092
959.000000	0.311995
960.000000	0.311825
961.000000	0.311568
962.000000	0.311293
963.000000	0.311208
964.000000	0.310934
965.000000	0.310722
966.000000	0.310645
967.000000	0.310392
968.000000	0.310183
969.000000	0.309907
970.000000	0.309491
971.000000	0.309195
972.000000	0.309009
973.000000	0.308830
974.000000	0.308672
975.000000	0.308478
976.000000	0.308275
977.000000	0.308062
978.000000	0.307682
979.000000	0.307618
980.000000	0.307517
981.000000	0.307248
982.000000	0.307144
983.000000	0.306896
984.000000	0.306532
985.000000	0.306302
986.000000	0.306113
987.000000	0.305958
988.000000	0.305723
989.000000	0.305458
990.000000	0.305143
991.000000	0.304906
992.000000	0.304899
993.000000	0.304883
994.000000	0.304773
995.000000	0.304720
996.000000	0.304626
997.000000	0.304457
998.000000	0.304213
999.000000	0.304080
1000.000000	0.304226
1001.000000	0.303978
1002.000000	0.304404
1003.000000	0.304136
1004.000000	0.304007
1005.000000	0.303855
1006.000000	0.303477
1007.000000	0.302805
1008.000000	0.302782
1009.000000	0.302667
1010.000000	0.302147
1011.000000	0.302277
1012.000000	0.302433
1013.000000	0.302193
1014.000000	0.302065
1015.000000	0.301716
1016.000000	0.301554
1017.000000	0.301608
1018.000000	0.301624
1019.000000	0.301677
1020.000000	0.302079
1021.000000	0.301763
1022.000000	0.301293
1023.000000	0.301180
1024.000000	0.300680
1025.000000	0.300623
1026.000000	0.300936
1027.000000	0.300898
1028.000000	0.300904
1029.000000	0.301044
1030.000000	0.300973
1031.000000	0.301044
1032.000000	0.301304
1033.000000	0.301328
1034.000000	0.301387
1035.000000	0.301549
1036.000000	0.301414
1037.000000	0.300986
1038.000000	0.300849
1039.000000	0.300766
1040.000000	0.300762
1041.000000	0.301085
1042.000000	0.301339
1043.000000	0.301395
1044.000000	0.301493
1045.000000	0.301511
1046.000000	0.301508
1047.000000	0.301679
1048.000000	0.301959
1049.000000	0.302054
1050.000000	0.302129
1051.000000	0.302283
1052.000000	0.302326
1053.000000	0.302347
1054.000000	0.302712
1055.000000	0.302964
1056.000000	0.303079
1057.000000	0.303230
1058.000000	0.303599
1059.000000	0.303502
1060.000000	0.303483
1061.000000	0.303722
1062.000000	0.303700
1063.000000	0.303646
1064.000000	0.303769
1065.000000	0.303860
1066.000000	0.304037
1067.000000	0.304462
1068.000000	0.304611
1069.000000	0.304476
1070.000000	0.304551
1071.000000	0.304673
1072.000000	0.304863
1073.000000	0.305236
1074.000000	0.305668
1075.000000	0.305949
1076.000000	0.306064
1077.000000	0.306393
1078.000000	0.306750
1079.000000	0.306922
1080.000000	0.307207
1081.000000	0.307229
1082.000000	0.306908
1083.000000	0.306956
1084.000000	0.307072
1085.000000	0.307316
1086.000000	0.307893
1087.000000	0.308165
1088.000000	0.308181
1089.000000	0.308358
1090.000000	0.308471
1091.000000	0.308564
1092.000000	0.308733
1093.000000	0.308973
1094.000000	0.309184
1095.000000	0.309220
1096.000000	0.309452
1097.000000	0.309892
1098.000000	0.310150
1099.000000	0.310306
1100.000000	0.310526
1101.000000	0.310648
1102.000000	0.310774
1103.000000	0.310854
1104.000000	0.311056
1105.000000	0.311261
1106.000000	0.311527
1107.000000	0.311910
1108.000000	0.312186
1109.000000	0.312488
1110.000000	0.312793
1111.000000	0.312957
1112.000000	0.313022
1113.000000	0.313167
1114.000000	0.313227
1115.000000	0.313396
1116.000000	0.313710
1117.000000	0.313886
1118.000000	0.313930
1119.000000	0.314095
1120.000000	0.314334
1121.000000	0.314480
1122.000000	0.314792
1123.000000	0.315149
1124.000000	0.315182
1125.000000	0.315312
1126.000000	0.315384
1127.000000	0.315478
1128.000000	0.315575
1129.000000	0.315719
1130.000000	0.315831
1131.000000	0.315998
1132.000000	0.316044
1133.000000	0.316017
1134.000000	0.316126
1135.000000	0.316216
1136.000000	0.316284
1137.000000	0.316407
1138.000000	0.316469
1139.000000	0.316546
1140.000000	0.316690
1141.000000	0.316814
1142.000000	0.316951
1143.000000	0.317066
1144.000000	0.317241
1145.000000	0.317273
1146.000000	0.317279
1147.000000	0.317219
1148.000000	0.316945
1149.000000	0.316891
1150.000000	0.316839
1151.000000	0.316928
1152.000000	0.317154
1153.000000	0.317290
1154.000000	0.317455
1155.000000	0.317505
1156.000000	0.317430
1157.000000	0.317462
1158.000000	0.317442
1159.000000	0.317447
1160.000000	0.317514
1161.000000	0.317553
1162.000000	0.317614
1163.000000	0.317811
1164.000000	0.317832
1165.000000	0.317775
1166.000000	0.317853
1167.000000	0.317884
1168.000000	0.317858
1169.000000	0.317962
1170.000000	0.317956
1171.000000	0.317779
1172.000000	0.317824
1173.000000	0.317986
1174.000000	0.318031
1175.000000	0.318094
1176.000000	0.318068
1177.000000	0.317967
1178.000000	0.317950
1179.000000	0.317925
1180.000000	0.317903
1181.000000	0.318002
1182.000000	0.318109
1183.000000	0.318222
1184.000000	0.318364
1185.000000	0.318433
1186.000000	0.318448
1187.000000	0.318479
1188.000000	0.318486
1189.000000	0.318504
1190.000000	0.318615
1191.000000	0.318621
1192.000000	0.318657
1193.000000	0.318766
1194.000000	0.318714
1195.000000	0.318754
1196.000000	0.318874
1197.000000	0.318881
1198.000000	0.318819
1199.000000	0.318828
1200.000000	0.318805
1201.000000	0.318788
1202.000000	0.318849
1203.000000	0.318927
1204.000000	0.318973
1205.000000	0.319071
1206.000000	0.319083
1207.000000	0.319192
1208.000000	0.319186
1209.000000	0.319110
1210.000000	0.319112
1211.000000	0.319162
1212.000000	0.319107
1213.000000	0.319105
1214.000000	0.319062
1215.000000	0.318841
1216.000000	0.318746
1217.000000	0.318655
1218.000000	0.318611
1219.000000	0.318667
1220.000000	0.318756
1221.000000	0.318781
1222.000000	0.318743
1223.000000	0.318671
1224.000000	0.318649
1225.000000	0.318653
1226.000000	0.318727
1227.000000	0.318691
1228.000000	0.318596
1229.000000	0.318515
1230.000000	0.318353
1231.000000	0.318234
1232.000000	0.318284
1233.000000	0.318334
1234.000000	0.318376
1235.000000	0.318376
1236.000000	0.318280
1237.000000	0.318270
1238.000000	0.318228
1239.000000	0.318176
1240.000000	0.318143
1241.000000	0.318091
1242.000000	0.318074
1243.000000	0.318088
1244.000000	0.318162
1245.000000	0.318255
1246.000000	0.318252
1247.000000	0.318352
1248.000000	0.318476
1249.000000	0.318566
1250.000000	0.318621
1251.000000	0.318590
1252.000000	0.318577
1253.000000	0.318536
1254.000000	0.318521
1255.000000	0.318550
1256.000000	0.318523
1257.000000	0.318455
1258.000000	0.318451
1259.000000	0.318407
1260.000000	0.318402
1261.000000	0.318336
1262.000000	0.318319
1263.000000	0.318365
1264.000000	0.318353
1265.000000	0.318358
1266.000000	0.318398
1267.000000	0.318400
1268.000000	0.318346
1269.000000	0.318200
1270.000000	0.318235
1271.000000	0.318210
1272.000000	0.318109
1273.000000	0.318159
1274.000000	0.318087
1275.000000	0.318025
1276.000000	0.317996
1277.000000	0.317985
1278.000000	0.317870
1279.000000	0.317818
1280.000000	0.317714
1281.000000	0.317604
1282.000000	0.317532
1283.000000	0.317557
1284.000000	0.317573
1285.000000	0.317592
1286.000000	0.317648
1287.000000	0.317699
1288.000000	0.317697
1289.000000	0.317605
1290.000000	0.317467
1291.000000	0.317353
1292.000000	0.317329
1293.000000	0.317354
1294.000000	0.317312
1295.000000	0.317301
1296.000000	0.317270
1297.000000	0.317185
1298.000000	0.317223
1299.000000	0.317275
1300.000000	0.317326
1301.000000	0.317313
1302.000000	0.317227
1303.000000	0.317209
1304.000000	0.317165
1305.000000	0.317137
1306.000000	0.317081
1307.000000	0.317107
1308.000000	0.317071
1309.000000	0.316884
1310.000000	0.316884
1311.000000	0.317004
1312.000000	0.317077
1313.000000	0.317206
1314.000000	0.317353
1315.000000	0.317325
1316.000000	0.317346
1317.000000	0.317434
1318.000000	0.317361
1319.000000	0.317272
1320.000000	0.317249
1321.000000	0.317115
1322.000000	0.316986
1323.000000	0.316905
1324.000000	0.316806
1325.000000	0.316687
1326.000000	0.316568
1327.000000	0.316453
1328.000000	0.316427
1329.000000	0.316346
1330.000000	0.316244
1331.000000	0.316235
1332.000000	0.316358
1333.000000	0.316340
1334.000000	0.316358
1335.000000	0.316384
1336.000000	0.316348
1337.000000	0.316315
1338.000000	0.316238
1339.000000	0.316174
1340.000000	0.316155
1341.000000	0.316197
1342.000000	0.316215
1343.000000	0.316176
1344.000000	0.316180
1345.000000	0.316116
1346.000000	0.316151
1347.000000	0.316246
1348.000000	0.316190
1349.000000	0.315965
1350.000000	0.315864
1351.000000	0.315766
1352.000000	0.315683
1353.000000	0.315658
1354.000000	0.315659
1355.000000	0.315602
1356.000000	0.315554
1357.000000	0.315538
1358.000000	0.315541
1359.000000	0.315492
1360.000000	0.315435
1361.000000	0.315445
1362.000000	0.315385
1363.000000	0.315207
1364.000000	0.315168
1365.000000	0.315198
1366.000000	0.315145
1367.000000	0.315118
1368.000000	0.314953
1369.000000	0.314885
1370.000000	0.314741
1371.000000	0.314508
1372.000000	0.314342
1373.000000	0.314105
1374.000000	0.313823
1375.000000	0.313611
1376.000000	0.313453
1377.000000	0.313166
1378.000000	0.312676
1379.000000	0.312000
1380.000000	0.311288
1381.000000	0.310478
1382.000000	0.309566
1383.000000	0.308684
1384.000000	0.307641
1385.000000	0.306576
1386.000000	0.305722
1387.000000	0.304984
1388.000000	0.304362
1389.000000	0.303911
1390.000000	0.303589
1391.000000	0.303353
1392.000000	0.303311
1393.000000	0.303350
1394.000000	0.303558
1395.000000	0.303828
1396.000000	0.304308
1397.000000	0.304574
1398.000000	0.304831
1399.000000	0.304968
1400.000000	0.304877
1401.000000	0.304864
1402.000000	0.304892
1403.000000	0.304871
1404.000000	0.304875
1405.000000	0.304841
1406.000000	0.304781
1407.000000	0.304738
1408.000000	0.304625
1409.000000	0.304613
1410.000000	0.304571
1411.000000	0.304482
1412.000000	0.304429
1413.000000	0.304440
1414.000000	0.304547
1415.000000	0.304609
1416.000000	0.304662
1417.000000	0.304738
1418.000000	0.304702
1419.000000	0.304777
1420.000000	0.304933
1421.000000	0.305155
1422.000000	0.305325
1423.000000	0.305527
1424.000000	0.305624
1425.000000	0.305686
1426.000000	0.305745
1427.000000	0.305798
1428.000000	0.305879
1429.000000	0.305959
1430.000000	0.306085
1431.000000	0.306259
1432.000000	0.306387
1433.000000	0.306559
1434.000000	0.306671
1435.000000	0.306820
1436.000000	0.306919
1437.000000	0.306963
1438.000000	0.307018
1439.000000	0.307094
1440.000000	0.307187
1441.000000	0.307337
1442.000000	0.307447
1443.000000	0.307489
1444.000000	0.307511
1445.000000	0.307496
1446.000000	0.307504
1447.000000	0.307535
1448.000000	0.307541
1449.000000	0.307571
1450.000000	0.307534
1451.000000	0.307457
1452.000000	0.307435
1453.000000	0.307478
1454.000000	0.307564
1455.000000	0.307690
1456.000000	0.307838
1457.000000	0.307916
1458.000000	0.307939
1459.000000	0.307976
1460.000000	0.307979
1461.000000	0.307955
1462.000000	0.307974
1463.000000	0.307941
1464.000000	0.307952
1465.000000	0.308037
1466.000000	0.308061
1467.000000	0.308083
1468.000000	0.308096
1469.000000	0.308147
1470.000000	0.308146
1471.000000	0.308205
1472.000000	0.308283
1473.000000	0.308383
1474.000000	0.308449
1475.000000	0.308501
1476.000000	0.308569
1477.000000	0.308683
1478.000000	0.308858
1479.000000	0.308974
1480.000000	0.309097
1481.000000	0.309202
1482.000000	0.309291
1483.000000	0.309398
1484.000000	0.309547
1485.000000	0.309661
1486.000000	0.309720
1487.000000	0.309838
1488.000000	0.310008
1489.000000	0.310149
1490.000000	0.310143
1491.000000	0.310273
1492.000000	0.310409
1493.000000	0.310549
1494.000000	0.310716
1495.000000	0.310854
1496.000000	0.310958
1497.000000	0.311115
1498.000000	0.311331
1499.000000	0.311493
1500.000000	0.311623
1501.000000	0.311671
1502.000000	0.311739
1503.000000	0.311879
1504.000000	0.311989
1505.000000	0.312028
1506.000000	0.311981
1507.000000	0.311862
1508.000000	0.311869
1509.000000	0.311932
1510.000000	0.311932
1511.000000	0.311987
1512.000000	0.312007
1513.000000	0.311946
1514.000000	0.311970
1515.000000	0.311993
1516.000000	0.311982
1517.000000	0.311995
1518.000000	0.311983
1519.000000	0.311876
1520.000000	0.311821
1521.000000	0.311715
1522.000000	0.311681
1523.000000	0.311775
1524.000000	0.311763
1525.000000	0.311769
1526.000000	0.311746
1527.000000	0.311695
1528.000000	0.311763
1529.000000	0.311852
1530.000000	0.311890
1531.000000	0.311967
1532.000000	0.312038
1533.000000	0.312106
1534.000000	0.312173
1535.000000	0.312241
1536.000000	0.312213
1537.000000	0.312219
1538.000000	0.312274
1539.000000	0.312232
1540.000000	0.312306
1541.000000	0.312475
1542.000000	0.312583
1543.000000	0.312695
1544.000000	0.312683
1545.000000	0.312643
1546.000000	0.312682
1547.000000	0.312698
1548.000000	0.312735
1549.000000	0.312749
1550.000000	0.312687
1551.000000	0.312643
1552.000000	0.312681
1553.000000	0.312767
1554.000000	0.312816
1555.000000	0.312867
1556.000000	0.312937
1557.000000	0.312937
1558.000000	0.312992
1559.000000	0.313042
1560.000000	0.313067
1561.000000	0.313123
1562.000000	0.313142
1563.000000	0.313188
1564.000000	0.313185
1565.000000	0.313139
1566.000000	0.313043
1567.000000	0.312980
1568.000000	0.312941
1569.000000	0.313000
1570.000000	0.312956
1571.000000	0.312831
1572.000000	0.312774
1573.000000	0.312677
1574.000000	0.312647
1575.000000	0.312755
1576.000000	0.312770
1577.000000	0.312735
1578.000000	0.312708
1579.000000	0.312710
1580.000000	0.312706
1581.000000	0.312775
1582.000000	0.312783
1583.000000	0.312756
1584.000000	0.312683
1585.000000	0.312637
1586.000000	0.312638
1587.000000	0.312635
1588.000000	0.312650
1589.000000	0.312727
1590.000000	0.312759
1591.000000	0.312781
1592.000000	0.312836
1593.000000	0.312934
1594.000000	0.312980
1595.000000	0.313083
1596.000000	0.313156
1597.000000	0.313216
1598.000000	0.313235
1599.000000	0.313268
1600.000000	0.313251
1601.000000	0.313257
1602.000000	0.313270
1603.000000	0.313317
1604.000000	0.313306
1605.000000	0.313272
1606.000000	0.313262
1607.000000	0.313316
1608.000000	0.313288
1609.000000	0.313302
1610.000000	0.313253
1611.000000	0.313102
1612.000000	0.313041
1613.000000	0.313122
1614.000000	0.313129
1615.000000	0.313218
1616.000000	0.313278
1617.000000	0.313234
1618.000000	0.313205
1619.000000	0.313173
1620.000000	0.313123
1621.000000	0.313055
1622.000000	0.313092
1623.000000	0.313166
1624.000000	0.313155
1625.000000	0.313000
1626.000000	0.312898
1627.000000	0.312780
1628.000000	0.312709
1629.000000	0.312662
1630.000000	0.312700
1631.000000	0.312688
1632.000000	0.312704
1633.000000	0.312855
1634.000000	0.312926
1635.000000	0.312997
1636.000000	0.313035
1637.000000	0.313065
1638.000000	0.313066
1639.000000	0.313082
1640.000000	0.313078
1641.000000	0.313145
1642.000000	0.313151
1643.000000	0.313166
1644.000000	0.313142
1645.000000	0.313052
1646.000000	0.312941
1647.000000	0.312833
1648.000000	0.312718
1649.000000	0.312679
1650.000000	0.312638
1651.000000	0.312641
1652.000000	0.312641
1653.000000	0.312562
1654.000000	0.312579
1655.000000	0.312587
1656.000000	0.312533
1657.000000	0.312610
1658.000000	0.312568
1659.000000	0.312551
1660.000000	0.312537
1661.000000	0.312364
1662.000000	0.312308
1663.000000	0.312268
1664.000000	0.312254
1665.000000	0.312298
1666.000000	0.312383
1667.000000	0.312431
1668.000000	0.312414
1669.000000	0.312353
1670.000000	0.312313
1671.000000	0.312342
1672.000000	0.312376
1673.000000	0.312442
1674.000000	0.312307
1675.000000	0.312265
1676.000000	0.312166
1677.000000	0.312034
1678.000000	0.312019
1679.000000	0.312034
1680.000000	0.312059
1681.000000	0.312191
1682.000000	0.312303
1683.000000	0.312370
1684.000000	0.312351
1685.000000	0.312346
1686.000000	0.312308
1687.000000	0.312253
1688.000000	0.312229
1689.000000	0.312173
1690.000000	0.312107
1691.000000	0.312085
1692.000000	0.311948
1693.000000	0.311848
1694.000000	0.311722
1695.000000	0.311646
1696.000000	0.311675
1697.000000	0.311604
1698.000000	0.311572
1699.000000	0.311537
1700.000000	0.311444
1701.000000	0.311447
1702.000000	0.311322
1703.000000	0.311193
1704.000000	0.311134
1705.000000	0.311104
1706.000000	0.311151
1707.000000	0.311181
1708.000000	0.311214
1709.000000	0.311180
1710.000000	0.311189
1711.000000	0.311221
1712.000000	0.311301
1713.000000	0.311311
1714.000000	0.311353
1715.000000	0.311344
1716.000000	0.311269
1717.000000	0.311213
1718.000000	0.311116
1719.000000	0.311020
1720.000000	0.310988
1721.000000	0.310892
1722.000000	0.310739
1723.000000	0.310660
1724.000000	0.310626
1725.000000	0.310563
1726.000000	0.310445
1727.000000	0.310346
1728.000000	0.310119
1729.000000	0.309964
1730.000000	0.309999
1731.000000	0.309993
1732.000000	0.310028
1733.000000	0.310078
1734.000000	0.309972
1735.000000	0.310026
1736.000000	0.310136
1737.000000	0.310178
1738.000000	0.310319
1739.000000	0.310331
1740.000000	0.310200
1741.000000	0.310139
1742.000000	0.310094
1743.000000	0.310088
1744.000000	0.310081
1745.000000	0.310031
1746.000000	0.309983
1747.000000	0.309837
1748.000000	0.309716
1749.000000	0.309680
1750.000000	0.309529
1751.000000	0.309444
1752.000000	0.309440
1753.000000	0.309212
1754.000000	0.309097
1755.000000	0.309038
1756.000000	0.308989
1757.000000	0.308984
1758.000000	0.309001
1759.000000	0.309042
1760.000000	0.309083
1761.000000	0.309083
1762.000000	0.309120
1763.000000	0.309222
1764.000000	0.309290
1765.000000	0.309315
1766.000000	0.309398
1767.000000	0.309456
1768.000000	0.309418
1769.000000	0.309483
1770.000000	0.309491
1771.000000	0.309325
1772.000000	0.309239
1773.000000	0.309090
1774.000000	0.309058
1775.000000	0.309171
1776.000000	0.309188
1777.000000	0.309247
1778.000000	0.309158
1779.000000	0.308886
1780.000000	0.308793
1781.000000	0.308685
1782.000000	0.308614
1783.000000	0.308663
1784.000000	0.308748
1785.000000	0.308733
1786.000000	0.308726
1787.000000	0.308792
1788.000000	0.308792
1789.000000	0.308676
1790.000000	0.308552
1791.000000	0.308471
1792.000000	0.308490
1793.000000	0.308466
1794.000000	0.308532
1795.000000	0.308549
1796.000000	0.308449
1797.000000	0.308403
1798.000000	0.308322
1799.000000	0.308340
1800.000000	0.308521
1801.000000	0.308591
1802.000000	0.308415
1803.000000	0.308177
1804.000000	0.308209
1805.000000	0.308542
1806.000000	0.308614
1807.000000	0.308703
1808.000000	0.308721
1809.000000	0.308664
1810.000000	0.308553
1811.000000	0.308197
1812.000000	0.307361
1813.000000	0.307588
1814.000000	0.308330
1815.000000	0.308577
1816.000000	0.309578
1817.000000	0.309775
1818.000000	0.309167
1819.000000	0.308726
1820.000000	0.308576
1821.000000	0.308373
1822.000000	0.308149
1823.000000	0.307738
1824.000000	0.307478
1825.000000	0.307135
1826.000000	0.307102
1827.000000	0.307224
1828.000000	0.307298
1829.000000	0.307414
1830.000000	0.307291
1831.000000	0.307386
1832.000000	0.307319
1833.000000	0.307596
1834.000000	0.308456
1835.000000	0.308623
1836.000000	0.308755
1837.000000	0.308603
1838.000000	0.307730
1839.000000	0.306855
1840.000000	0.306459
1841.000000	0.305979
1842.000000	0.305983
1843.000000	0.306747
1844.000000	0.306983
1845.000000	0.307185
1846.000000	0.307212
1847.000000	0.306951
1848.000000	0.306234
1849.000000	0.305888
1850.000000	0.306247
1851.000000	0.306359
1852.000000	0.306667
1853.000000	0.306783
1854.000000	0.306470
1855.000000	0.306310
1856.000000	0.305926
1857.000000	0.306061
1858.000000	0.305897
1859.000000	0.305994
1860.000000	0.306224
1861.000000	0.306002
1862.000000	0.305705
1863.000000	0.305402
1864.000000	0.305091
1865.000000	0.304529
1866.000000	0.304168
1867.000000	0.303938
1868.000000	0.303611
1869.000000	0.303196
1870.000000	0.302426
1871.000000	0.301950
1872.000000	0.301704
1873.000000	0.301392
1874.000000	0.301473
1875.000000	0.301104
1876.000000	0.300378
1877.000000	0.299032
1878.000000	0.298035
1879.000000	0.296928
1880.000000	0.296113
1881.000000	0.295524
1882.000000	0.294261
1883.000000	0.292986
1884.000000	0.291746
1885.000000	0.290049
1886.000000	0.288519
1887.000000	0.287231
1888.000000	0.285466
1889.000000	0.283856
1890.000000	0.281815
1891.000000	0.279784
1892.000000	0.278294
1893.000000	0.276391
1894.000000	0.275170
1895.000000	0.273795
1896.000000	0.272883
1897.000000	0.271342
1898.000000	0.269851
1899.000000	0.268494
1900.000000	0.267085
1901.000000	0.266127
1902.000000	0.265505
1903.000000	0.264857
1904.000000	0.264227
1905.000000	0.263707
1906.000000	0.263316
1907.000000	0.263021
1908.000000	0.262819
1909.000000	0.263070
1910.000000	0.263678
1911.000000	0.264501
1912.000000	0.265693
1913.000000	0.266828
1914.000000	0.267480
1915.000000	0.267912
1916.000000	0.268278
1917.000000	0.268731
1918.000000	0.269242
1919.000000	0.270198
1920.000000	0.270751
1921.000000	0.271182
1922.000000	0.271737
1923.000000	0.272131
1924.000000	0.272766
1925.000000	0.273584
1926.000000	0.274281
1927.000000	0.274979
1928.000000	0.275448
1929.000000	0.275823
1930.000000	0.276133
1931.000000	0.276436
1932.000000	0.276760
1933.000000	0.277217
1934.000000	0.277484
1935.000000	0.277590
1936.000000	0.277471
1937.000000	0.277365
1938.000000	0.277505
1939.000000	0.277658
1940.000000	0.277960
1941.000000	0.278251
1942.000000	0.278520
1943.000000	0.278643
1944.000000	0.278904
1945.000000	0.279229
1946.000000	0.279332
1947.000000	0.279557
1948.000000	0.279510
1949.000000	0.279565
1950.000000	0.279821
1951.000000	0.279815
1952.000000	0.279724
1953.000000	0.279642
1954.000000	0.279762
1955.000000	0.280021
1956.000000	0.280120
1957.000000	0.280182
1958.000000	0.280007
1959.000000	0.279537
1960.000000	0.279462
1961.000000	0.279990
1962.000000	0.280326
1963.000000	0.280898
1964.000000	0.281386
1965.000000	0.281715
1966.000000	0.281775
1967.000000	0.282094
1968.000000	0.282658
1969.000000	0.283190
1970.000000	0.283789
1971.000000	0.283955
1972.000000	0.283726
1973.000000	0.283572
1974.000000	0.283287
1975.000000	0.283319
1976.000000	0.283427
1977.000000	0.283821
1978.000000	0.284501
1979.000000	0.284860
1980.000000	0.285005
1981.000000	0.285241
1982.000000	0.284846
1983.000000	0.284476
1984.000000	0.284519
1985.000000	0.284715
1986.000000	0.284922
1987.000000	0.285535
1988.000000	0.286284
1989.000000	0.286576
1990.000000	0.286863
1991.000000	0.286847
1992.000000	0.286853
1993.000000	0.287082
1994.000000	0.287213
1995.000000	0.287247
1996.000000	0.287182
1997.000000	0.287167
1998.000000	0.286765
1999.000000	0.287074
2000.000000	0.287867
2001.000000	0.288518
2002.000000	0.289631
2003.000000	0.290268
2004.000000	0.290333
2005.000000	0.290297
2006.000000	0.289875
2007.000000	0.289471
2008.000000	0.289406
2009.000000	0.289578
2010.000000	0.289827
2011.000000	0.290254
2012.000000	0.290463
2013.000000	0.290659
2014.000000	0.290465
2015.000000	0.290418
2016.000000	0.290572
2017.000000	0.290840
2018.000000	0.291302
2019.000000	0.291495
2020.000000	0.291424
2021.000000	0.291497
2022.000000	0.291283
2023.000000	0.291260
2024.000000	0.291554
2025.000000	0.291740
2026.000000	0.291717
2027.000000	0.291834
2028.000000	0.291816
2029.000000	0.291916
2030.000000	0.291928
2031.000000	0.292084
2032.000000	0.292817
2033.000000	0.293195
2034.000000	0.293420
2035.000000	0.293896
2036.000000	0.293822
2037.000000	0.293390
2038.000000	0.293202
2039.000000	0.292979
2040.000000	0.292576
2041.000000	0.292774
2042.000000	0.292839
2043.000000	0.293004
2044.000000	0.293585
2045.000000	0.293835
2046.000000	0.293729
2047.000000	0.293749
2048.000000	0.293480
2049.000000	0.293746
2050.000000	0.294154
2051.000000	0.294079
2052.000000	0.293798
2053.000000	0.293631
2054.000000	0.293269
2055.000000	0.293195
2056.000000	0.293834
2057.000000	0.294380
2058.000000	0.294718
2059.000000	0.294970
2060.000000	0.294838
2061.000000	0.294252
2062.000000	0.293876
2063.000000	0.293079
2064.000000	0.292865
2065.000000	0.293271
2066.000000	0.293400
2067.000000	0.293984
2068.000000	0.294694
2069.000000	0.294865
2070.000000	0.294947
2071.000000	0.294709
2072.000000	0.294046
2073.000000	0.293522
2074.000000	0.293144
2075.000000	0.293039
2076.000000	0.293370
2077.000000	0.293506
2078.000000	0.293845
2079.000000	0.293834
2080.000000	0.293594
2081.000000	0.293512
2082.000000	0.293341
2083.000000	0.293200
2084.000000	0.293395
2085.000000	0.293498
2086.000000	0.293681
2087.000000	0.294273
2088.000000	0.294402
2089.000000	0.294440
2090.000000	0.294580
2091.000000	0.294625
2092.000000	0.294676
2093.000000	0.295021
2094.000000	0.294945
2095.000000	0.294421
2096.000000	0.294326
2097.000000	0.294032
2098.000000	0.294140
2099.000000	0.294406
2100.000000	0.294737
2101.000000	0.295177
2102.000000	0.295203
2103.000000	0.295118
2104.000000	0.294840
2105.000000	0.294659
2106.000000	0.294104
2107.000000	0.294120
2108.000000	0.294598
2109.000000	0.294746
2110.000000	0.294856
2111.000000	0.294748
2112.000000	0.294125
2113.000000	0.293802
2114.000000	0.293692
2115.000000	0.293791
2116.000000	0.293856
2117.000000	0.293714
2118.000000	0.293401
2119.000000	0.293305
2120.000000	0.293519
2121.000000	0.294208
2122.000000	0.294510
2123.000000	0.294904
2124.000000	0.295088
2125.000000	0.295000
2126.000000	0.294951
2127.000000	0.294958
2128.000000	0.295030
2129.000000	0.294883
2130.000000	0.294972
2131.000000	0.294856
2132.000000	0.294548
2133.000000	0.294421
2134.000000	0.294406
2135.000000	0.294684
2136.000000	0.294929
2137.000000	0.294834
2138.000000	0.294379
2139.000000	0.294269
2140.000000	0.293896
2141.000000	0.293954
2142.000000	0.294665
2143.000000	0.294737
2144.000000	0.294765
2145.000000	0.295028
2146.000000	0.295392
2147.000000	0.295764
2148.000000	0.295903
2149.000000	0.295998
2150.000000	0.295458
2151.000000	0.294543
2152.000000	0.293895
2153.000000	0.293138
2154.000000	0.292753
2155.000000	0.292424
2156.000000	0.292612
2157.000000	0.293624
2158.000000	0.294021
2159.000000	0.294700
2160.000000	0.295033
2161.000000	0.295079
2162.000000	0.294710
2163.000000	0.293551
2164.000000	0.292976
2165.000000	0.291960
2166.000000	0.291539
2167.000000	0.292437
2168.000000	0.292984
2169.000000	0.293311
2170.000000	0.293874
2171.000000	0.293885
2172.000000	0.293271
2173.000000	0.293006
2174.000000	0.292559
2175.000000	0.292307
2176.000000	0.292102
2177.000000	0.292357
2178.000000	0.293174
2179.000000	0.293603
2180.000000	0.294137
2181.000000	0.294562
2182.000000	0.294106
2183.000000	0.293824
2184.000000	0.293764
2185.000000	0.293729
2186.000000	0.293420
2187.000000	0.294075
2188.000000	0.294626
2189.000000	0.294247
2190.000000	0.294179
2191.000000	0.294053
2192.000000	0.293917
2193.000000	0.293607
2194.000000	0.293795
2195.000000	0.294376
2196.000000	0.294911
2197.000000	0.295814
2198.000000	0.296190
2199.000000	0.296515
2200.000000	0.296536
2201.000000	0.296279
2202.000000	0.296002
2203.000000	0.295636
2204.000000	0.293913
2205.000000	0.293085
2206.000000	0.292309
2207.000000	0.291403
2208.000000	0.293036
2209.000000	0.294365
2210.000000	0.295182
2211.000000	0.295960
2212.000000	0.296713
2213.000000	0.296981
2214.000000	0.296366
2215.000000	0.296302
2216.000000	0.296450
2217.000000	0.296026
2218.000000	0.295409
2219.000000	0.295254
2220.000000	0.294991
2221.000000	0.294597
2222.000000	0.294246
2223.000000	0.293913
2224.000000	0.292930
2225.000000	0.293140
2226.000000	0.293347
2227.000000	0.293758
2228.000000	0.294153
2229.000000	0.293486
2230.000000	0.291724
2231.000000	0.290452
2232.000000	0.290107
2233.000000	0.288820
2234.000000	0.288082
2235.000000	0.289161
2236.000000	0.289459
2237.000000	0.289678
2238.000000	0.289653
2239.000000	0.289289
2240.000000	0.289304
2241.000000	0.289263
2242.000000	0.289174
2243.000000	0.289594
2244.000000	0.289726
2245.000000	0.289346
2246.000000	0.289246
2247.000000	0.288910
2248.000000	0.289202
2249.000000	0.290566
2250.000000	0.290523
2251.000000	0.289937
2252.000000	0.289943
2253.000000	0.287323
2254.000000	0.285960
2255.000000	0.286982
2256.000000	0.287394
2257.000000	0.288736
2258.000000	0.289428
2259.000000	0.287825
2260.000000	0.286525
2261.000000	0.286292
2262.000000	0.286709
2263.000000	0.286795
2264.000000	0.287691
2265.000000	0.288103
2266.000000	0.288203
2267.000000	0.287776
2268.000000	0.286875
2269.000000	0.286810
2270.000000	0.286670
2271.000000	0.286917
2272.000000	0.288379
2273.000000	0.288605
2274.000000	0.288010
2275.000000	0.287273
2276.000000	0.286040
2277.000000	0.284911
2278.000000	0.283780
2279.000000	0.282513
2280.000000	0.281521
2281.000000	0.281351
2282.000000	0.281149
2283.000000	0.281140
2284.000000	0.280446
2285.000000	0.278674
2286.000000	0.277711
2287.000000	0.277140
2288.000000	0.277875
2289.000000	0.279262
2290.000000	0.279124
2291.000000	0.278755
2292.000000	0.277873
2293.000000	0.276033
2294.000000	0.275393
2295.000000	0.275962
2296.000000	0.275454
2297.000000	0.275238
2298.000000	0.274161
2299.000000	0.271355
2300.000000	0.270252
2301.000000	0.269243
2302.000000	0.269113
2303.000000	0.271222
2304.000000	0.270986
2305.000000	0.269900
2306.000000	0.268998
2307.000000	0.266580
2308.000000	0.265747
2309.000000	0.265386
2310.000000	0.264032
2311.000000	0.262698
2312.000000	0.260467
2313.000000	0.259732
2314.000000	0.260108
2315.000000	0.261083
2316.000000	0.263365
2317.000000	0.264654
2318.000000	0.265397
2319.000000	0.266722
2320.000000	0.267504
2321.000000	0.268812
2322.000000	0.270692
2323.000000	0.271512
2324.000000	0.272754
2325.000000	0.273514
2326.000000	0.273235
2327.000000	0.273427
2328.000000	0.273542
2329.000000	0.274362
2330.000000	0.275681
2331.000000	0.276910
2332.000000	0.278095
2333.000000	0.278919
2334.000000	0.279657
2335.000000	0.280909
2336.000000	0.283362
2337.000000	0.283088
2338.000000	0.280602
2339.000000	0.279476
2340.000000	0.277262
2341.000000	0.276076
2342.000000	0.276333
2343.000000	0.276738
2344.000000	0.276920
2345.000000	0.277102
2346.000000	0.278437
2347.000000	0.279538
2348.000000	0.280967
2349.000000	0.280182
2350.000000	0.279976
2351.000000	0.279143
2352.000000	0.276572
2353.000000	0.276854
2354.000000	0.276913
2355.000000	0.276819
2356.000000	0.276877
2357.000000	0.275914
2358.000000	0.276376
2359.000000	0.275796
2360.000000	0.275739
2361.000000	0.277075
2362.000000	0.276651
2363.000000	0.277427
2364.000000	0.278833
2365.000000	0.277922
2366.000000	0.276500
2367.000000	0.275390
2368.000000	0.274398
2369.000000	0.274234
2370.000000	0.273792
2371.000000	0.273761
2372.000000	0.272310
2373.000000	0.271586
2374.000000	0.274467
2375.000000	0.277282
2376.000000	0.281149
2377.000000	0.283509
2378.000000	0.280629
2379.000000	0.276652
2380.000000	0.274006
2381.000000	0.272171
2382.000000	0.271255
2383.000000	0.271971
2384.000000	0.272498
2385.000000	0.271180
2386.000000	0.271675
2387.000000	0.271860
2388.000000	0.270494
2389.000000	0.270176
2390.000000	0.270100
2391.000000	0.272034
2392.000000	0.273392
2393.000000	0.273749
2394.000000	0.274437
2395.000000	0.273543
2396.000000	0.272735
2397.000000	0.272208
2398.000000	0.271841
2399.000000	0.270454
2400.000000	0.268102
2401.000000	0.268846
2402.000000	0.269973
2403.000000	0.271210
2404.000000	0.274463
2405.000000	0.270959
2406.000000	0.267997
2407.000000	0.266711
2408.000000	0.263598
2409.000000	0.266228
2410.000000	0.265663
2411.000000	0.265099
2412.000000	0.262426
2413.000000	0.258848
2414.000000	0.262957
2415.000000	0.263242
2416.000000	0.265350
2417.000000	0.273177
2418.000000	0.276750
2419.000000	0.279159
2420.000000	0.280277
2421.000000	0.274541
2422.000000	0.269080
2423.000000	0.262282
2424.000000	0.260255
2425.000000	0.260204
2426.000000	0.256141
2427.000000	0.263019
2428.000000	0.269832
2429.000000	0.271408
2430.000000	0.266832
2431.000000	0.258144
2432.000000	0.254172
2433.000000	0.249664
2434.000000	0.250904
2435.000000	0.253444
2436.000000	0.247917
2437.000000	0.246261
2438.000000	0.251905
2439.000000	0.255142
2440.000000	0.254934
2441.000000	0.253169
2442.000000	0.254985
2443.000000	0.255609
2444.000000	0.252777
2445.000000	0.251745
2446.000000	0.240741
2447.000000	0.236276
2448.000000	0.240500
2449.000000	0.238803
2450.000000	0.246048
2451.000000	0.254775
2452.000000	0.259606
2453.000000	0.260114
2454.000000	0.256966
2455.000000	0.256825
2456.000000	0.249328
2457.000000	0.241875
2458.000000	0.249357
2459.000000	0.253540
2460.000000	0.260084
2461.000000	0.282534
2462.000000	0.285933
2463.000000	0.273207
2464.000000	0.269041
2465.000000	0.258645
2466.000000	0.248547
2467.000000	0.250903
2468.000000	0.249296
2469.000000	0.243810
2470.000000	0.239472
2471.000000	0.240748
2472.000000	0.240639
2473.000000	0.246098
2474.000000	0.261368
2475.000000	0.273481
2476.000000	0.290432
2477.000000	0.287473
2478.000000	0.285763
2479.000000	0.286207
2480.000000	0.269876
2481.000000	0.271921
2482.000000	0.274633
2483.000000	0.252406
2484.000000	0.224530
2485.000000	0.217441
2486.000000	0.206054
2487.000000	0.201021
2488.000000	0.227572
2489.000000	0.226392
2490.000000	0.221565
2491.000000	0.252790
2492.000000	0.253915
2493.000000	0.243814
2494.000000	0.249690
2495.000000	0.254359
2496.000000	0.249140
2497.000000	0.247441
2498.000000	0.244739
2499.000000	0.219062
2500.000000	0.218576
