# Wavelength	SM1200H-40_FV7-60_00002.asd.rts.txt
350.000000	0.247670
351.000000	0.244127
352.000000	0.237547
353.000000	0.234720
354.000000	0.238428
355.000000	0.238293
356.000000	0.236933
357.000000	0.236530
358.000000	0.235004
359.000000	0.237973
360.000000	0.243114
361.000000	0.246045
362.000000	0.244035
363.000000	0.243303
364.000000	0.246023
365.000000	0.245618
366.000000	0.245343
367.000000	0.245258
368.000000	0.243359
369.000000	0.244313
370.000000	0.246502
371.000000	0.246837
372.000000	0.247210
373.000000	0.247273
374.000000	0.247277
375.000000	0.247335
376.000000	0.248703
377.000000	0.250863
378.000000	0.251948
379.000000	0.251346
380.000000	0.250298
381.000000	0.251197
382.000000	0.250680
383.000000	0.251058
384.000000	0.253442
385.000000	0.252884
386.000000	0.252218
387.000000	0.252601
388.000000	0.253099
389.000000	0.254095
390.000000	0.254914
391.000000	0.254449
392.000000	0.254771
393.000000	0.255789
394.000000	0.256875
395.000000	0.256749
396.000000	0.256586
397.000000	0.256806
398.000000	0.256893
399.000000	0.257826
400.000000	0.259093
401.000000	0.259435
402.000000	0.259468
403.000000	0.259683
404.000000	0.260407
405.000000	0.260610
406.000000	0.260871
407.000000	0.261358
408.000000	0.261226
409.000000	0.261595
410.000000	0.262367
411.000000	0.262726
412.000000	0.262884
413.000000	0.262896
414.000000	0.262886
415.000000	0.263324
416.000000	0.263678
417.000000	0.263772
418.000000	0.264352
419.000000	0.265027
420.000000	0.265504
421.000000	0.265497
422.000000	0.265429
423.000000	0.265529
424.000000	0.265984
425.000000	0.266294
426.000000	0.266565
427.000000	0.266886
428.000000	0.267126
429.000000	0.267143
430.000000	0.267104
431.000000	0.267642
432.000000	0.268043
433.000000	0.268211
434.000000	0.268425
435.000000	0.268509
436.000000	0.268719
437.000000	0.269199
438.000000	0.269378
439.000000	0.269507
440.000000	0.269771
441.000000	0.269754
442.000000	0.269844
443.000000	0.270065
444.000000	0.270389
445.000000	0.270495
446.000000	0.270544
447.000000	0.270647
448.000000	0.271099
449.000000	0.271537
450.000000	0.271720
451.000000	0.271836
452.000000	0.272049
453.000000	0.272332
454.000000	0.272697
455.000000	0.272942
456.000000	0.273201
457.000000	0.273526
458.000000	0.273763
459.000000	0.273927
460.000000	0.274124
461.000000	0.274389
462.000000	0.274686
463.000000	0.274825
464.000000	0.274922
465.000000	0.275001
466.000000	0.275110
467.000000	0.275467
468.000000	0.275748
469.000000	0.275891
470.000000	0.276094
471.000000	0.276294
472.000000	0.276462
473.000000	0.276622
474.000000	0.276794
475.000000	0.276927
476.000000	0.277146
477.000000	0.277388
478.000000	0.277498
479.000000	0.277673
480.000000	0.277852
481.000000	0.277948
482.000000	0.278162
483.000000	0.278417
484.000000	0.278655
485.000000	0.278910
486.000000	0.279306
487.000000	0.279468
488.000000	0.279576
489.000000	0.279749
490.000000	0.280060
491.000000	0.280388
492.000000	0.280721
493.000000	0.280935
494.000000	0.281195
495.000000	0.281475
496.000000	0.281700
497.000000	0.281913
498.000000	0.282148
499.000000	0.282466
500.000000	0.282751
501.000000	0.282945
502.000000	0.283168
503.000000	0.283516
504.000000	0.283820
505.000000	0.284058
506.000000	0.284255
507.000000	0.284429
508.000000	0.284669
509.000000	0.284955
510.000000	0.285215
511.000000	0.285470
512.000000	0.285756
513.000000	0.286054
514.000000	0.286349
515.000000	0.286681
516.000000	0.287022
517.000000	0.287278
518.000000	0.287581
519.000000	0.287926
520.000000	0.288225
521.000000	0.288483
522.000000	0.288715
523.000000	0.288934
524.000000	0.289133
525.000000	0.289349
526.000000	0.289695
527.000000	0.289993
528.000000	0.290247
529.000000	0.290544
530.000000	0.290763
531.000000	0.291036
532.000000	0.291334
533.000000	0.291570
534.000000	0.291796
535.000000	0.292032
536.000000	0.292313
537.000000	0.292584
538.000000	0.292826
539.000000	0.293023
540.000000	0.293249
541.000000	0.293493
542.000000	0.293764
543.000000	0.294017
544.000000	0.294278
545.000000	0.294495
546.000000	0.294730
547.000000	0.294968
548.000000	0.295231
549.000000	0.295463
550.000000	0.295747
551.000000	0.296082
552.000000	0.296385
553.000000	0.296634
554.000000	0.296893
555.000000	0.297206
556.000000	0.297526
557.000000	0.297812
558.000000	0.298158
559.000000	0.298420
560.000000	0.298680
561.000000	0.299009
562.000000	0.299310
563.000000	0.299576
564.000000	0.299852
565.000000	0.300081
566.000000	0.300412
567.000000	0.300747
568.000000	0.301025
569.000000	0.301377
570.000000	0.301723
571.000000	0.302026
572.000000	0.302312
573.000000	0.302594
574.000000	0.302879
575.000000	0.303227
576.000000	0.303533
577.000000	0.303778
578.000000	0.304038
579.000000	0.304321
580.000000	0.304605
581.000000	0.304872
582.000000	0.305121
583.000000	0.305359
584.000000	0.305615
585.000000	0.305933
586.000000	0.306171
587.000000	0.306366
588.000000	0.306593
589.000000	0.306851
590.000000	0.307089
591.000000	0.307289
592.000000	0.307519
593.000000	0.307762
594.000000	0.307993
595.000000	0.308179
596.000000	0.308440
597.000000	0.308757
598.000000	0.308946
599.000000	0.309040
600.000000	0.309116
601.000000	0.309166
602.000000	0.309285
603.000000	0.309393
604.000000	0.309479
605.000000	0.309631
606.000000	0.309784
607.000000	0.309957
608.000000	0.310205
609.000000	0.310449
610.000000	0.310669
611.000000	0.310869
612.000000	0.311053
613.000000	0.311275
614.000000	0.311588
615.000000	0.311891
616.000000	0.312151
617.000000	0.312337
618.000000	0.312535
619.000000	0.312737
620.000000	0.312883
621.000000	0.312965
622.000000	0.313087
623.000000	0.313227
624.000000	0.313363
625.000000	0.313594
626.000000	0.313822
627.000000	0.314012
628.000000	0.314230
629.000000	0.314474
630.000000	0.314629
631.000000	0.314829
632.000000	0.315060
633.000000	0.315308
634.000000	0.315527
635.000000	0.315642
636.000000	0.315748
637.000000	0.315867
638.000000	0.315909
639.000000	0.315952
640.000000	0.316057
641.000000	0.316097
642.000000	0.316129
643.000000	0.316181
644.000000	0.316270
645.000000	0.316341
646.000000	0.316414
647.000000	0.316494
648.000000	0.316632
649.000000	0.316786
650.000000	0.316914
651.000000	0.317036
652.000000	0.317152
653.000000	0.317298
654.000000	0.317431
655.000000	0.317611
656.000000	0.317818
657.000000	0.317961
658.000000	0.318081
659.000000	0.318220
660.000000	0.318376
661.000000	0.318535
662.000000	0.318622
663.000000	0.318684
664.000000	0.318738
665.000000	0.318882
666.000000	0.319075
667.000000	0.319219
668.000000	0.319375
669.000000	0.319534
670.000000	0.319698
671.000000	0.319869
672.000000	0.320064
673.000000	0.320249
674.000000	0.320369
675.000000	0.320453
676.000000	0.320535
677.000000	0.320667
678.000000	0.320808
679.000000	0.320956
680.000000	0.321118
681.000000	0.321263
682.000000	0.321477
683.000000	0.321688
684.000000	0.321902
685.000000	0.322094
686.000000	0.322271
687.000000	0.322399
688.000000	0.322518
689.000000	0.322632
690.000000	0.322774
691.000000	0.322927
692.000000	0.323072
693.000000	0.323256
694.000000	0.323407
695.000000	0.323572
696.000000	0.323729
697.000000	0.323836
698.000000	0.323955
699.000000	0.324093
700.000000	0.324247
701.000000	0.324359
702.000000	0.324519
703.000000	0.324715
704.000000	0.324858
705.000000	0.324998
706.000000	0.325117
707.000000	0.325280
708.000000	0.325462
709.000000	0.325625
710.000000	0.325766
711.000000	0.325921
712.000000	0.326032
713.000000	0.326134
714.000000	0.326349
715.000000	0.326516
716.000000	0.326646
717.000000	0.326795
718.000000	0.326944
719.000000	0.327060
720.000000	0.327149
721.000000	0.327306
722.000000	0.327403
723.000000	0.327457
724.000000	0.327481
725.000000	0.327534
726.000000	0.327682
727.000000	0.327806
728.000000	0.327887
729.000000	0.328000
730.000000	0.328143
731.000000	0.328296
732.000000	0.328405
733.000000	0.328506
734.000000	0.328628
735.000000	0.328691
736.000000	0.328830
737.000000	0.328970
738.000000	0.329017
739.000000	0.329109
740.000000	0.329176
741.000000	0.329258
742.000000	0.329341
743.000000	0.329398
744.000000	0.329488
745.000000	0.329574
746.000000	0.329678
747.000000	0.329732
748.000000	0.329785
749.000000	0.329850
750.000000	0.329898
751.000000	0.329933
752.000000	0.329988
753.000000	0.330076
754.000000	0.330167
755.000000	0.330322
756.000000	0.330477
757.000000	0.330518
758.000000	0.330609
759.000000	0.330760
760.000000	0.330862
761.000000	0.330882
762.000000	0.330902
763.000000	0.330941
764.000000	0.331069
765.000000	0.331109
766.000000	0.331112
767.000000	0.331148
768.000000	0.331178
769.000000	0.331243
770.000000	0.331347
771.000000	0.331419
772.000000	0.331509
773.000000	0.331567
774.000000	0.331654
775.000000	0.331682
776.000000	0.331721
777.000000	0.331797
778.000000	0.331841
779.000000	0.331868
780.000000	0.331896
781.000000	0.331914
782.000000	0.331944
783.000000	0.332017
784.000000	0.331972
785.000000	0.331881
786.000000	0.331835
787.000000	0.331851
788.000000	0.331832
789.000000	0.331771
790.000000	0.331689
791.000000	0.331675
792.000000	0.331691
793.000000	0.331734
794.000000	0.331813
795.000000	0.331940
796.000000	0.332044
797.000000	0.332091
798.000000	0.332103
799.000000	0.332140
800.000000	0.332212
801.000000	0.332305
802.000000	0.332399
803.000000	0.332465
804.000000	0.332507
805.000000	0.332434
806.000000	0.332321
807.000000	0.332303
808.000000	0.332373
809.000000	0.332487
810.000000	0.332627
811.000000	0.332754
812.000000	0.332815
813.000000	0.332790
814.000000	0.332706
815.000000	0.332656
816.000000	0.332574
817.000000	0.332542
818.000000	0.332549
819.000000	0.332565
820.000000	0.332611
821.000000	0.332627
822.000000	0.332602
823.000000	0.332622
824.000000	0.332586
825.000000	0.332486
826.000000	0.332443
827.000000	0.332380
828.000000	0.332294
829.000000	0.332216
830.000000	0.332136
831.000000	0.332098
832.000000	0.331998
833.000000	0.332014
834.000000	0.332030
835.000000	0.331968
836.000000	0.331829
837.000000	0.331673
838.000000	0.331565
839.000000	0.331526
840.000000	0.331517
841.000000	0.331534
842.000000	0.331540
843.000000	0.331586
844.000000	0.331611
845.000000	0.331562
846.000000	0.331481
847.000000	0.331378
848.000000	0.331261
849.000000	0.331175
850.000000	0.331103
851.000000	0.331104
852.000000	0.331168
853.000000	0.331064
854.000000	0.330863
855.000000	0.330790
856.000000	0.330848
857.000000	0.330761
858.000000	0.330707
859.000000	0.330675
860.000000	0.330552
861.000000	0.330551
862.000000	0.330673
863.000000	0.330732
864.000000	0.330626
865.000000	0.330410
866.000000	0.330193
867.000000	0.330048
868.000000	0.329985
869.000000	0.329932
870.000000	0.329907
871.000000	0.329872
872.000000	0.329798
873.000000	0.329635
874.000000	0.329527
875.000000	0.329338
876.000000	0.329087
877.000000	0.328785
878.000000	0.328458
879.000000	0.328235
880.000000	0.328035
881.000000	0.327924
882.000000	0.327789
883.000000	0.327622
884.000000	0.327412
885.000000	0.327359
886.000000	0.327305
887.000000	0.327165
888.000000	0.326946
889.000000	0.326683
890.000000	0.326390
891.000000	0.326302
892.000000	0.326278
893.000000	0.326186
894.000000	0.326083
895.000000	0.325895
896.000000	0.325703
897.000000	0.325537
898.000000	0.325383
899.000000	0.325091
900.000000	0.324827
901.000000	0.324643
902.000000	0.324560
903.000000	0.324488
904.000000	0.324411
905.000000	0.324230
906.000000	0.324082
907.000000	0.323891
908.000000	0.323670
909.000000	0.323341
910.000000	0.323026
911.000000	0.322779
912.000000	0.322625
913.000000	0.322454
914.000000	0.322320
915.000000	0.322220
916.000000	0.321938
917.000000	0.321564
918.000000	0.321301
919.000000	0.321199
920.000000	0.320975
921.000000	0.320698
922.000000	0.320414
923.000000	0.320136
924.000000	0.319826
925.000000	0.319573
926.000000	0.319407
927.000000	0.319107
928.000000	0.318887
929.000000	0.318631
930.000000	0.318195
931.000000	0.317878
932.000000	0.317742
933.000000	0.317701
934.000000	0.317417
935.000000	0.317175
936.000000	0.317036
937.000000	0.316890
938.000000	0.316774
939.000000	0.316590
940.000000	0.316324
941.000000	0.316168
942.000000	0.315837
943.000000	0.315541
944.000000	0.315283
945.000000	0.315038
946.000000	0.314732
947.000000	0.314460
948.000000	0.314243
949.000000	0.313899
950.000000	0.313672
951.000000	0.313512
952.000000	0.313220
953.000000	0.312985
954.000000	0.312775
955.000000	0.312494
956.000000	0.312303
957.000000	0.312151
958.000000	0.311975
959.000000	0.311843
960.000000	0.311717
961.000000	0.311531
962.000000	0.311236
963.000000	0.310874
964.000000	0.310492
965.000000	0.310177
966.000000	0.309894
967.000000	0.309831
968.000000	0.309667
969.000000	0.309328
970.000000	0.309020
971.000000	0.308779
972.000000	0.308637
973.000000	0.308498
974.000000	0.308329
975.000000	0.308181
976.000000	0.308105
977.000000	0.308028
978.000000	0.307515
979.000000	0.307286
980.000000	0.307058
981.000000	0.306692
982.000000	0.306499
983.000000	0.306261
984.000000	0.305999
985.000000	0.305846
986.000000	0.305619
987.000000	0.305442
988.000000	0.305274
989.000000	0.305018
990.000000	0.304880
991.000000	0.304797
992.000000	0.304717
993.000000	0.304887
994.000000	0.304893
995.000000	0.304804
996.000000	0.304639
997.000000	0.304395
998.000000	0.304231
999.000000	0.304212
1000.000000	0.303978
1001.000000	0.303832
1002.000000	0.304231
1003.000000	0.304357
1004.000000	0.304174
1005.000000	0.303783
1006.000000	0.303438
1007.000000	0.302829
1008.000000	0.302207
1009.000000	0.302152
1010.000000	0.302314
1011.000000	0.302894
1012.000000	0.303329
1013.000000	0.303180
1014.000000	0.302945
1015.000000	0.302352
1016.000000	0.301997
1017.000000	0.301922
1018.000000	0.301744
1019.000000	0.301809
1020.000000	0.302309
1021.000000	0.302107
1022.000000	0.302006
1023.000000	0.302035
1024.000000	0.301605
1025.000000	0.301258
1026.000000	0.301483
1027.000000	0.301589
1028.000000	0.301788
1029.000000	0.302325
1030.000000	0.302396
1031.000000	0.302111
1032.000000	0.301962
1033.000000	0.301575
1034.000000	0.301415
1035.000000	0.301514
1036.000000	0.301541
1037.000000	0.301560
1038.000000	0.301559
1039.000000	0.301762
1040.000000	0.301752
1041.000000	0.301502
1042.000000	0.301335
1043.000000	0.301218
1044.000000	0.301185
1045.000000	0.301372
1046.000000	0.301603
1047.000000	0.301835
1048.000000	0.301992
1049.000000	0.302102
1050.000000	0.302269
1051.000000	0.302455
1052.000000	0.302596
1053.000000	0.302612
1054.000000	0.302743
1055.000000	0.302897
1056.000000	0.302993
1057.000000	0.303055
1058.000000	0.303137
1059.000000	0.303365
1060.000000	0.303667
1061.000000	0.303858
1062.000000	0.304039
1063.000000	0.304292
1064.000000	0.304499
1065.000000	0.304499
1066.000000	0.304691
1067.000000	0.304993
1068.000000	0.305182
1069.000000	0.305352
1070.000000	0.305463
1071.000000	0.305584
1072.000000	0.305681
1073.000000	0.305770
1074.000000	0.305830
1075.000000	0.305962
1076.000000	0.306141
1077.000000	0.306125
1078.000000	0.306193
1079.000000	0.306456
1080.000000	0.306897
1081.000000	0.307114
1082.000000	0.307567
1083.000000	0.307817
1084.000000	0.307814
1085.000000	0.307941
1086.000000	0.308036
1087.000000	0.308260
1088.000000	0.308416
1089.000000	0.308630
1090.000000	0.308966
1091.000000	0.309289
1092.000000	0.309471
1093.000000	0.309756
1094.000000	0.309981
1095.000000	0.310028
1096.000000	0.310324
1097.000000	0.310879
1098.000000	0.311070
1099.000000	0.311087
1100.000000	0.311307
1101.000000	0.311270
1102.000000	0.311396
1103.000000	0.311802
1104.000000	0.312098
1105.000000	0.312317
1106.000000	0.312566
1107.000000	0.312905
1108.000000	0.313036
1109.000000	0.312980
1110.000000	0.313021
1111.000000	0.313228
1112.000000	0.313458
1113.000000	0.313713
1114.000000	0.314251
1115.000000	0.314489
1116.000000	0.314540
1117.000000	0.314646
1118.000000	0.314680
1119.000000	0.314711
1120.000000	0.314636
1121.000000	0.314740
1122.000000	0.315010
1123.000000	0.315428
1124.000000	0.315882
1125.000000	0.316221
1126.000000	0.316432
1127.000000	0.316618
1128.000000	0.316753
1129.000000	0.316851
1130.000000	0.316940
1131.000000	0.317024
1132.000000	0.317062
1133.000000	0.317043
1134.000000	0.317173
1135.000000	0.317330
1136.000000	0.317438
1137.000000	0.317625
1138.000000	0.317683
1139.000000	0.317699
1140.000000	0.317822
1141.000000	0.317884
1142.000000	0.318008
1143.000000	0.318196
1144.000000	0.318377
1145.000000	0.318379
1146.000000	0.318330
1147.000000	0.318345
1148.000000	0.318213
1149.000000	0.318217
1150.000000	0.318344
1151.000000	0.318405
1152.000000	0.318359
1153.000000	0.318441
1154.000000	0.318596
1155.000000	0.318626
1156.000000	0.318645
1157.000000	0.318682
1158.000000	0.318608
1159.000000	0.318555
1160.000000	0.318504
1161.000000	0.318487
1162.000000	0.318483
1163.000000	0.318630
1164.000000	0.318794
1165.000000	0.318888
1166.000000	0.318971
1167.000000	0.318985
1168.000000	0.318948
1169.000000	0.318869
1170.000000	0.318890
1171.000000	0.318934
1172.000000	0.319034
1173.000000	0.319254
1174.000000	0.319290
1175.000000	0.319181
1176.000000	0.319138
1177.000000	0.319115
1178.000000	0.319101
1179.000000	0.319151
1180.000000	0.319109
1181.000000	0.319066
1182.000000	0.319039
1183.000000	0.319113
1184.000000	0.319192
1185.000000	0.319219
1186.000000	0.319256
1187.000000	0.319261
1188.000000	0.319184
1189.000000	0.319189
1190.000000	0.319298
1191.000000	0.319345
1192.000000	0.319533
1193.000000	0.319666
1194.000000	0.319609
1195.000000	0.319626
1196.000000	0.319556
1197.000000	0.319548
1198.000000	0.319620
1199.000000	0.319672
1200.000000	0.319756
1201.000000	0.319774
1202.000000	0.319753
1203.000000	0.319752
1204.000000	0.319707
1205.000000	0.319719
1206.000000	0.319690
1207.000000	0.319783
1208.000000	0.319738
1209.000000	0.319670
1210.000000	0.319639
1211.000000	0.319589
1212.000000	0.319527
1213.000000	0.319492
1214.000000	0.319512
1215.000000	0.319533
1216.000000	0.319532
1217.000000	0.319544
1218.000000	0.319527
1219.000000	0.319494
1220.000000	0.319484
1221.000000	0.319434
1222.000000	0.319437
1223.000000	0.319433
1224.000000	0.319311
1225.000000	0.319280
1226.000000	0.319413
1227.000000	0.319528
1228.000000	0.319660
1229.000000	0.319702
1230.000000	0.319693
1231.000000	0.319639
1232.000000	0.319595
1233.000000	0.319688
1234.000000	0.319820
1235.000000	0.319861
1236.000000	0.319872
1237.000000	0.319902
1238.000000	0.319831
1239.000000	0.319747
1240.000000	0.319636
1241.000000	0.319537
1242.000000	0.319492
1243.000000	0.319437
1244.000000	0.319474
1245.000000	0.319499
1246.000000	0.319445
1247.000000	0.319530
1248.000000	0.319585
1249.000000	0.319626
1250.000000	0.319679
1251.000000	0.319720
1252.000000	0.319752
1253.000000	0.319896
1254.000000	0.319890
1255.000000	0.319743
1256.000000	0.319684
1257.000000	0.319606
1258.000000	0.319586
1259.000000	0.319625
1260.000000	0.319616
1261.000000	0.319490
1262.000000	0.319416
1263.000000	0.319357
1264.000000	0.319260
1265.000000	0.319290
1266.000000	0.319273
1267.000000	0.319227
1268.000000	0.319207
1269.000000	0.319086
1270.000000	0.319098
1271.000000	0.319106
1272.000000	0.319058
1273.000000	0.319085
1274.000000	0.319080
1275.000000	0.319027
1276.000000	0.318933
1277.000000	0.318982
1278.000000	0.318981
1279.000000	0.318974
1280.000000	0.318991
1281.000000	0.318978
1282.000000	0.318941
1283.000000	0.318993
1284.000000	0.319050
1285.000000	0.319085
1286.000000	0.319104
1287.000000	0.319132
1288.000000	0.319099
1289.000000	0.319032
1290.000000	0.318953
1291.000000	0.318833
1292.000000	0.318790
1293.000000	0.318778
1294.000000	0.318713
1295.000000	0.318702
1296.000000	0.318611
1297.000000	0.318540
1298.000000	0.318588
1299.000000	0.318639
1300.000000	0.318818
1301.000000	0.318893
1302.000000	0.318884
1303.000000	0.318917
1304.000000	0.318902
1305.000000	0.318889
1306.000000	0.318928
1307.000000	0.319054
1308.000000	0.319087
1309.000000	0.319084
1310.000000	0.319086
1311.000000	0.319052
1312.000000	0.319012
1313.000000	0.319114
1314.000000	0.319183
1315.000000	0.319109
1316.000000	0.319187
1317.000000	0.319238
1318.000000	0.319151
1319.000000	0.319097
1320.000000	0.319095
1321.000000	0.319002
1322.000000	0.318873
1323.000000	0.318890
1324.000000	0.318884
1325.000000	0.318778
1326.000000	0.318739
1327.000000	0.318638
1328.000000	0.318628
1329.000000	0.318561
1330.000000	0.318491
1331.000000	0.318467
1332.000000	0.318552
1333.000000	0.318497
1334.000000	0.318452
1335.000000	0.318467
1336.000000	0.318422
1337.000000	0.318375
1338.000000	0.318326
1339.000000	0.318279
1340.000000	0.318151
1341.000000	0.318067
1342.000000	0.318045
1343.000000	0.318017
1344.000000	0.317962
1345.000000	0.317887
1346.000000	0.317869
1347.000000	0.317746
1348.000000	0.317686
1349.000000	0.317616
1350.000000	0.317482
1351.000000	0.317357
1352.000000	0.317267
1353.000000	0.317124
1354.000000	0.317146
1355.000000	0.317222
1356.000000	0.317272
1357.000000	0.317330
1358.000000	0.317291
1359.000000	0.317176
1360.000000	0.317093
1361.000000	0.317046
1362.000000	0.316948
1363.000000	0.316771
1364.000000	0.316722
1365.000000	0.316661
1366.000000	0.316642
1367.000000	0.316739
1368.000000	0.316743
1369.000000	0.316701
1370.000000	0.316549
1371.000000	0.316272
1372.000000	0.316067
1373.000000	0.315842
1374.000000	0.315573
1375.000000	0.315312
1376.000000	0.315026
1377.000000	0.314722
1378.000000	0.314312
1379.000000	0.313735
1380.000000	0.313141
1381.000000	0.312383
1382.000000	0.311507
1383.000000	0.310698
1384.000000	0.309725
1385.000000	0.308701
1386.000000	0.307856
1387.000000	0.307060
1388.000000	0.306316
1389.000000	0.305802
1390.000000	0.305516
1391.000000	0.305328
1392.000000	0.305356
1393.000000	0.305453
1394.000000	0.305722
1395.000000	0.306036
1396.000000	0.306533
1397.000000	0.306825
1398.000000	0.307088
1399.000000	0.307276
1400.000000	0.307325
1401.000000	0.307366
1402.000000	0.307462
1403.000000	0.307396
1404.000000	0.307267
1405.000000	0.307106
1406.000000	0.306942
1407.000000	0.306891
1408.000000	0.306796
1409.000000	0.306743
1410.000000	0.306739
1411.000000	0.306675
1412.000000	0.306683
1413.000000	0.306815
1414.000000	0.306907
1415.000000	0.306936
1416.000000	0.307010
1417.000000	0.307104
1418.000000	0.307136
1419.000000	0.307266
1420.000000	0.307357
1421.000000	0.307491
1422.000000	0.307598
1423.000000	0.307712
1424.000000	0.307809
1425.000000	0.307878
1426.000000	0.307932
1427.000000	0.308072
1428.000000	0.308176
1429.000000	0.308220
1430.000000	0.308335
1431.000000	0.308413
1432.000000	0.308479
1433.000000	0.308577
1434.000000	0.308696
1435.000000	0.308909
1436.000000	0.309056
1437.000000	0.309186
1438.000000	0.309297
1439.000000	0.309398
1440.000000	0.309515
1441.000000	0.309687
1442.000000	0.309850
1443.000000	0.309954
1444.000000	0.310012
1445.000000	0.310096
1446.000000	0.310178
1447.000000	0.310220
1448.000000	0.310298
1449.000000	0.310365
1450.000000	0.310408
1451.000000	0.310492
1452.000000	0.310519
1453.000000	0.310562
1454.000000	0.310570
1455.000000	0.310522
1456.000000	0.310576
1457.000000	0.310655
1458.000000	0.310675
1459.000000	0.310716
1460.000000	0.310733
1461.000000	0.310700
1462.000000	0.310751
1463.000000	0.310763
1464.000000	0.310786
1465.000000	0.310885
1466.000000	0.310915
1467.000000	0.310978
1468.000000	0.311070
1469.000000	0.311146
1470.000000	0.311157
1471.000000	0.311226
1472.000000	0.311233
1473.000000	0.311285
1474.000000	0.311343
1475.000000	0.311401
1476.000000	0.311508
1477.000000	0.311596
1478.000000	0.311674
1479.000000	0.311697
1480.000000	0.311740
1481.000000	0.311816
1482.000000	0.311972
1483.000000	0.312127
1484.000000	0.312350
1485.000000	0.312488
1486.000000	0.312575
1487.000000	0.312672
1488.000000	0.312765
1489.000000	0.312847
1490.000000	0.312789
1491.000000	0.312835
1492.000000	0.312862
1493.000000	0.312900
1494.000000	0.312942
1495.000000	0.312934
1496.000000	0.312891
1497.000000	0.312888
1498.000000	0.312901
1499.000000	0.312890
1500.000000	0.312967
1501.000000	0.312954
1502.000000	0.312942
1503.000000	0.313076
1504.000000	0.313182
1505.000000	0.313278
1506.000000	0.313354
1507.000000	0.313363
1508.000000	0.313422
1509.000000	0.313453
1510.000000	0.313481
1511.000000	0.313574
1512.000000	0.313578
1513.000000	0.313561
1514.000000	0.313627
1515.000000	0.313629
1516.000000	0.313656
1517.000000	0.313697
1518.000000	0.313711
1519.000000	0.313643
1520.000000	0.313619
1521.000000	0.313611
1522.000000	0.313603
1523.000000	0.313697
1524.000000	0.313744
1525.000000	0.313759
1526.000000	0.313745
1527.000000	0.313731
1528.000000	0.313782
1529.000000	0.313790
1530.000000	0.313721
1531.000000	0.313720
1532.000000	0.313711
1533.000000	0.313703
1534.000000	0.313757
1535.000000	0.313776
1536.000000	0.313765
1537.000000	0.313847
1538.000000	0.313855
1539.000000	0.313783
1540.000000	0.313792
1541.000000	0.313835
1542.000000	0.313868
1543.000000	0.313910
1544.000000	0.313901
1545.000000	0.313906
1546.000000	0.314015
1547.000000	0.314166
1548.000000	0.314279
1549.000000	0.314340
1550.000000	0.314343
1551.000000	0.314368
1552.000000	0.314435
1553.000000	0.314497
1554.000000	0.314628
1555.000000	0.314772
1556.000000	0.314883
1557.000000	0.314947
1558.000000	0.315015
1559.000000	0.314948
1560.000000	0.314970
1561.000000	0.315100
1562.000000	0.315142
1563.000000	0.315207
1564.000000	0.315214
1565.000000	0.315148
1566.000000	0.315066
1567.000000	0.315041
1568.000000	0.315035
1569.000000	0.315126
1570.000000	0.315130
1571.000000	0.315086
1572.000000	0.315064
1573.000000	0.315022
1574.000000	0.314964
1575.000000	0.314946
1576.000000	0.314926
1577.000000	0.314846
1578.000000	0.314787
1579.000000	0.314816
1580.000000	0.314804
1581.000000	0.314835
1582.000000	0.314829
1583.000000	0.314821
1584.000000	0.314729
1585.000000	0.314658
1586.000000	0.314620
1587.000000	0.314544
1588.000000	0.314500
1589.000000	0.314515
1590.000000	0.314467
1591.000000	0.314398
1592.000000	0.314382
1593.000000	0.314394
1594.000000	0.314378
1595.000000	0.314468
1596.000000	0.314475
1597.000000	0.314430
1598.000000	0.314418
1599.000000	0.314409
1600.000000	0.314378
1601.000000	0.314441
1602.000000	0.314472
1603.000000	0.314539
1604.000000	0.314548
1605.000000	0.314559
1606.000000	0.314534
1607.000000	0.314502
1608.000000	0.314448
1609.000000	0.314418
1610.000000	0.314345
1611.000000	0.314269
1612.000000	0.314185
1613.000000	0.314164
1614.000000	0.314113
1615.000000	0.314108
1616.000000	0.314100
1617.000000	0.314038
1618.000000	0.314009
1619.000000	0.313958
1620.000000	0.313921
1621.000000	0.313930
1622.000000	0.314005
1623.000000	0.314060
1624.000000	0.314133
1625.000000	0.314136
1626.000000	0.314118
1627.000000	0.314127
1628.000000	0.314156
1629.000000	0.314174
1630.000000	0.314212
1631.000000	0.314160
1632.000000	0.314171
1633.000000	0.314280
1634.000000	0.314268
1635.000000	0.314234
1636.000000	0.314240
1637.000000	0.314222
1638.000000	0.314203
1639.000000	0.314327
1640.000000	0.314320
1641.000000	0.314276
1642.000000	0.314237
1643.000000	0.314235
1644.000000	0.314154
1645.000000	0.314009
1646.000000	0.313830
1647.000000	0.313633
1648.000000	0.313410
1649.000000	0.313219
1650.000000	0.313105
1651.000000	0.313023
1652.000000	0.313011
1653.000000	0.313074
1654.000000	0.313064
1655.000000	0.312961
1656.000000	0.312874
1657.000000	0.312853
1658.000000	0.312798
1659.000000	0.312868
1660.000000	0.312910
1661.000000	0.312806
1662.000000	0.312817
1663.000000	0.312850
1664.000000	0.312909
1665.000000	0.313007
1666.000000	0.313170
1667.000000	0.313363
1668.000000	0.313386
1669.000000	0.313300
1670.000000	0.313256
1671.000000	0.313229
1672.000000	0.313244
1673.000000	0.313322
1674.000000	0.313265
1675.000000	0.313237
1676.000000	0.313177
1677.000000	0.313120
1678.000000	0.313026
1679.000000	0.312950
1680.000000	0.312940
1681.000000	0.312892
1682.000000	0.312853
1683.000000	0.312807
1684.000000	0.312677
1685.000000	0.312577
1686.000000	0.312453
1687.000000	0.312385
1688.000000	0.312315
1689.000000	0.312200
1690.000000	0.312093
1691.000000	0.312069
1692.000000	0.312030
1693.000000	0.312052
1694.000000	0.312078
1695.000000	0.312133
1696.000000	0.312225
1697.000000	0.312232
1698.000000	0.312291
1699.000000	0.312363
1700.000000	0.312404
1701.000000	0.312485
1702.000000	0.312414
1703.000000	0.312356
1704.000000	0.312361
1705.000000	0.312330
1706.000000	0.312332
1707.000000	0.312360
1708.000000	0.312325
1709.000000	0.312295
1710.000000	0.312442
1711.000000	0.312504
1712.000000	0.312520
1713.000000	0.312551
1714.000000	0.312646
1715.000000	0.312667
1716.000000	0.312694
1717.000000	0.312654
1718.000000	0.312429
1719.000000	0.312346
1720.000000	0.312403
1721.000000	0.312357
1722.000000	0.312360
1723.000000	0.312283
1724.000000	0.312097
1725.000000	0.312000
1726.000000	0.311868
1727.000000	0.311710
1728.000000	0.311458
1729.000000	0.311253
1730.000000	0.311147
1731.000000	0.311076
1732.000000	0.311120
1733.000000	0.311123
1734.000000	0.310975
1735.000000	0.310936
1736.000000	0.310864
1737.000000	0.310879
1738.000000	0.311029
1739.000000	0.311058
1740.000000	0.311077
1741.000000	0.311013
1742.000000	0.310859
1743.000000	0.310827
1744.000000	0.310781
1745.000000	0.310736
1746.000000	0.310705
1747.000000	0.310784
1748.000000	0.310783
1749.000000	0.310874
1750.000000	0.310864
1751.000000	0.310850
1752.000000	0.310916
1753.000000	0.310819
1754.000000	0.310798
1755.000000	0.310822
1756.000000	0.310768
1757.000000	0.310682
1758.000000	0.310653
1759.000000	0.310540
1760.000000	0.310526
1761.000000	0.310637
1762.000000	0.310637
1763.000000	0.310607
1764.000000	0.310629
1765.000000	0.310574
1766.000000	0.310599
1767.000000	0.310655
1768.000000	0.310643
1769.000000	0.310722
1770.000000	0.310761
1771.000000	0.310727
1772.000000	0.310674
1773.000000	0.310521
1774.000000	0.310438
1775.000000	0.310439
1776.000000	0.310366
1777.000000	0.310203
1778.000000	0.310162
1779.000000	0.310135
1780.000000	0.310117
1781.000000	0.310189
1782.000000	0.310139
1783.000000	0.310026
1784.000000	0.309985
1785.000000	0.309889
1786.000000	0.309859
1787.000000	0.309918
1788.000000	0.309925
1789.000000	0.309907
1790.000000	0.310012
1791.000000	0.309960
1792.000000	0.309936
1793.000000	0.309915
1794.000000	0.309807
1795.000000	0.309746
1796.000000	0.309759
1797.000000	0.309704
1798.000000	0.309493
1799.000000	0.309442
1800.000000	0.309535
1801.000000	0.309832
1802.000000	0.309745
1803.000000	0.308894
1804.000000	0.308914
1805.000000	0.308993
1806.000000	0.309045
1807.000000	0.309604
1808.000000	0.309805
1809.000000	0.309538
1810.000000	0.309502
1811.000000	0.309503
1812.000000	0.309850
1813.000000	0.309686
1814.000000	0.309145
1815.000000	0.308927
1816.000000	0.308450
1817.000000	0.308200
1818.000000	0.308043
1819.000000	0.308795
1820.000000	0.308879
1821.000000	0.308398
1822.000000	0.308241
1823.000000	0.307745
1824.000000	0.307501
1825.000000	0.307297
1826.000000	0.307492
1827.000000	0.308000
1828.000000	0.308096
1829.000000	0.308405
1830.000000	0.308949
1831.000000	0.309081
1832.000000	0.308727
1833.000000	0.308684
1834.000000	0.308638
1835.000000	0.308674
1836.000000	0.308891
1837.000000	0.308947
1838.000000	0.309173
1839.000000	0.308683
1840.000000	0.307966
1841.000000	0.307292
1842.000000	0.306911
1843.000000	0.306372
1844.000000	0.306344
1845.000000	0.306894
1846.000000	0.307171
1847.000000	0.307396
1848.000000	0.307548
1849.000000	0.307912
1850.000000	0.307738
1851.000000	0.307896
1852.000000	0.308377
1853.000000	0.308343
1854.000000	0.307772
1855.000000	0.307593
1856.000000	0.307111
1857.000000	0.306916
1858.000000	0.307268
1859.000000	0.307262
1860.000000	0.307110
1861.000000	0.306487
1862.000000	0.306066
1863.000000	0.305370
1864.000000	0.305315
1865.000000	0.305978
1866.000000	0.306047
1867.000000	0.306163
1868.000000	0.306001
1869.000000	0.305207
1870.000000	0.304394
1871.000000	0.304590
1872.000000	0.304467
1873.000000	0.304134
1874.000000	0.303969
1875.000000	0.303513
1876.000000	0.302295
1877.000000	0.301210
1878.000000	0.300359
1879.000000	0.299358
1880.000000	0.298305
1881.000000	0.297066
1882.000000	0.295640
1883.000000	0.294438
1884.000000	0.293210
1885.000000	0.291785
1886.000000	0.290324
1887.000000	0.288914
1888.000000	0.287182
1889.000000	0.285526
1890.000000	0.283895
1891.000000	0.282395
1892.000000	0.281002
1893.000000	0.279591
1894.000000	0.278438
1895.000000	0.276988
1896.000000	0.275635
1897.000000	0.274158
1898.000000	0.272510
1899.000000	0.271142
1900.000000	0.270281
1901.000000	0.269552
1902.000000	0.268756
1903.000000	0.268288
1904.000000	0.268003
1905.000000	0.267563
1906.000000	0.267183
1907.000000	0.267025
1908.000000	0.266814
1909.000000	0.266892
1910.000000	0.267322
1911.000000	0.268104
1912.000000	0.268994
1913.000000	0.269601
1914.000000	0.270224
1915.000000	0.270728
1916.000000	0.271355
1917.000000	0.271875
1918.000000	0.272452
1919.000000	0.273111
1920.000000	0.273723
1921.000000	0.274071
1922.000000	0.274450
1923.000000	0.274638
1924.000000	0.274655
1925.000000	0.274980
1926.000000	0.275650
1927.000000	0.276415
1928.000000	0.276896
1929.000000	0.277441
1930.000000	0.277861
1931.000000	0.277954
1932.000000	0.278251
1933.000000	0.278976
1934.000000	0.279546
1935.000000	0.280143
1936.000000	0.280680
1937.000000	0.280906
1938.000000	0.280759
1939.000000	0.280687
1940.000000	0.280544
1941.000000	0.280359
1942.000000	0.280154
1943.000000	0.280483
1944.000000	0.281098
1945.000000	0.281856
1946.000000	0.282847
1947.000000	0.283424
1948.000000	0.283627
1949.000000	0.283716
1950.000000	0.283516
1951.000000	0.283355
1952.000000	0.283212
1953.000000	0.283318
1954.000000	0.283420
1955.000000	0.283421
1956.000000	0.283803
1957.000000	0.284275
1958.000000	0.284342
1959.000000	0.284436
1960.000000	0.284354
1961.000000	0.284249
1962.000000	0.284121
1963.000000	0.284002
1964.000000	0.284096
1965.000000	0.284267
1966.000000	0.284262
1967.000000	0.284774
1968.000000	0.285382
1969.000000	0.285757
1970.000000	0.286109
1971.000000	0.286323
1972.000000	0.286370
1973.000000	0.286243
1974.000000	0.286086
1975.000000	0.286057
1976.000000	0.285814
1977.000000	0.285909
1978.000000	0.286362
1979.000000	0.286723
1980.000000	0.287377
1981.000000	0.287712
1982.000000	0.287706
1983.000000	0.288000
1984.000000	0.288124
1985.000000	0.288081
1986.000000	0.288246
1987.000000	0.288711
1988.000000	0.288776
1989.000000	0.288735
1990.000000	0.288662
1991.000000	0.288259
1992.000000	0.288188
1993.000000	0.288524
1994.000000	0.288989
1995.000000	0.289277
1996.000000	0.289207
1997.000000	0.289404
1998.000000	0.289467
1999.000000	0.289804
2000.000000	0.290431
2001.000000	0.291297
2002.000000	0.291492
2003.000000	0.291660
2004.000000	0.291735
2005.000000	0.291264
2006.000000	0.291317
2007.000000	0.291287
2008.000000	0.291282
2009.000000	0.291257
2010.000000	0.291386
2011.000000	0.291465
2012.000000	0.291620
2013.000000	0.291810
2014.000000	0.291753
2015.000000	0.292047
2016.000000	0.292436
2017.000000	0.292727
2018.000000	0.293227
2019.000000	0.293629
2020.000000	0.293559
2021.000000	0.293781
2022.000000	0.294014
2023.000000	0.294282
2024.000000	0.294894
2025.000000	0.295145
2026.000000	0.295142
2027.000000	0.294951
2028.000000	0.294427
2029.000000	0.294297
2030.000000	0.294493
2031.000000	0.294585
2032.000000	0.295344
2033.000000	0.296032
2034.000000	0.296463
2035.000000	0.297219
2036.000000	0.297277
2037.000000	0.296840
2038.000000	0.296647
2039.000000	0.296327
2040.000000	0.295902
2041.000000	0.295645
2042.000000	0.295822
2043.000000	0.295989
2044.000000	0.296129
2045.000000	0.296832
2046.000000	0.297076
2047.000000	0.297161
2048.000000	0.297010
2049.000000	0.297161
2050.000000	0.296834
2051.000000	0.296618
2052.000000	0.296516
2053.000000	0.296274
2054.000000	0.295970
2055.000000	0.295951
2056.000000	0.296078
2057.000000	0.296215
2058.000000	0.296255
2059.000000	0.296367
2060.000000	0.296311
2061.000000	0.295904
2062.000000	0.295941
2063.000000	0.296227
2064.000000	0.296207
2065.000000	0.296662
2066.000000	0.296866
2067.000000	0.297172
2068.000000	0.297215
2069.000000	0.297216
2070.000000	0.297208
2071.000000	0.296742
2072.000000	0.296642
2073.000000	0.296871
2074.000000	0.296836
2075.000000	0.296850
2076.000000	0.296931
2077.000000	0.296762
2078.000000	0.296489
2079.000000	0.296202
2080.000000	0.295772
2081.000000	0.295628
2082.000000	0.295767
2083.000000	0.295368
2084.000000	0.295381
2085.000000	0.295133
2086.000000	0.295134
2087.000000	0.295561
2088.000000	0.295952
2089.000000	0.296498
2090.000000	0.296639
2091.000000	0.296404
2092.000000	0.296401
2093.000000	0.296254
2094.000000	0.296269
2095.000000	0.296611
2096.000000	0.296773
2097.000000	0.296769
2098.000000	0.296856
2099.000000	0.296868
2100.000000	0.296582
2101.000000	0.296360
2102.000000	0.296008
2103.000000	0.295873
2104.000000	0.296137
2105.000000	0.296233
2106.000000	0.296624
2107.000000	0.296801
2108.000000	0.296600
2109.000000	0.296717
2110.000000	0.296854
2111.000000	0.296838
2112.000000	0.296688
2113.000000	0.296717
2114.000000	0.296381
2115.000000	0.296228
2116.000000	0.296200
2117.000000	0.295699
2118.000000	0.295045
2119.000000	0.294925
2120.000000	0.295065
2121.000000	0.295529
2122.000000	0.295833
2123.000000	0.296551
2124.000000	0.296788
2125.000000	0.296611
2126.000000	0.296550
2127.000000	0.296517
2128.000000	0.296600
2129.000000	0.296399
2130.000000	0.296704
2131.000000	0.296833
2132.000000	0.296803
2133.000000	0.297051
2134.000000	0.297214
2135.000000	0.297359
2136.000000	0.297160
2137.000000	0.296727
2138.000000	0.295731
2139.000000	0.295318
2140.000000	0.294714
2141.000000	0.294658
2142.000000	0.295343
2143.000000	0.295260
2144.000000	0.295239
2145.000000	0.295410
2146.000000	0.295507
2147.000000	0.295841
2148.000000	0.296054
2149.000000	0.296090
2150.000000	0.296288
2151.000000	0.296649
2152.000000	0.296947
2153.000000	0.297050
2154.000000	0.296998
2155.000000	0.296234
2156.000000	0.296236
2157.000000	0.296944
2158.000000	0.296956
2159.000000	0.296968
2160.000000	0.296918
2161.000000	0.296094
2162.000000	0.295982
2163.000000	0.296243
2164.000000	0.296326
2165.000000	0.296448
2166.000000	0.296913
2167.000000	0.297430
2168.000000	0.297713
2169.000000	0.297336
2170.000000	0.297133
2171.000000	0.297203
2172.000000	0.297049
2173.000000	0.297055
2174.000000	0.297726
2175.000000	0.297721
2176.000000	0.297221
2177.000000	0.297044
2178.000000	0.296963
2179.000000	0.296852
2180.000000	0.296342
2181.000000	0.296541
2182.000000	0.296534
2183.000000	0.296813
2184.000000	0.297403
2185.000000	0.297388
2186.000000	0.296380
2187.000000	0.295799
2188.000000	0.295367
2189.000000	0.294560
2190.000000	0.294536
2191.000000	0.294702
2192.000000	0.294731
2193.000000	0.295083
2194.000000	0.294695
2195.000000	0.293658
2196.000000	0.293519
2197.000000	0.293288
2198.000000	0.293136
2199.000000	0.294098
2200.000000	0.294272
2201.000000	0.293395
2202.000000	0.293008
2203.000000	0.292618
2204.000000	0.292119
2205.000000	0.291826
2206.000000	0.293406
2207.000000	0.294611
2208.000000	0.296272
2209.000000	0.297987
2210.000000	0.297682
2211.000000	0.296401
2212.000000	0.296014
2213.000000	0.294913
2214.000000	0.292602
2215.000000	0.291597
2216.000000	0.290444
2217.000000	0.290355
2218.000000	0.291822
2219.000000	0.292346
2220.000000	0.293725
2221.000000	0.294217
2222.000000	0.292676
2223.000000	0.292792
2224.000000	0.293858
2225.000000	0.294563
2226.000000	0.294307
2227.000000	0.294660
2228.000000	0.293860
2229.000000	0.291791
2230.000000	0.291561
2231.000000	0.291719
2232.000000	0.291185
2233.000000	0.291625
2234.000000	0.291101
2235.000000	0.291937
2236.000000	0.292325
2237.000000	0.292981
2238.000000	0.292825
2239.000000	0.291862
2240.000000	0.291522
2241.000000	0.290776
2242.000000	0.291170
2243.000000	0.293551
2244.000000	0.294041
2245.000000	0.293843
2246.000000	0.293742
2247.000000	0.291825
2248.000000	0.291119
2249.000000	0.292020
2250.000000	0.291734
2251.000000	0.289634
2252.000000	0.289999
2253.000000	0.289306
2254.000000	0.288846
2255.000000	0.290962
2256.000000	0.292340
2257.000000	0.293703
2258.000000	0.295704
2259.000000	0.295042
2260.000000	0.293428
2261.000000	0.292635
2262.000000	0.290938
2263.000000	0.289963
2264.000000	0.290207
2265.000000	0.290118
2266.000000	0.289691
2267.000000	0.289001
2268.000000	0.288414
2269.000000	0.287670
2270.000000	0.286167
2271.000000	0.285647
2272.000000	0.285583
2273.000000	0.285938
2274.000000	0.286822
2275.000000	0.287654
2276.000000	0.288855
2277.000000	0.290239
2278.000000	0.291021
2279.000000	0.290929
2280.000000	0.288809
2281.000000	0.285981
2282.000000	0.283889
2283.000000	0.281953
2284.000000	0.281040
2285.000000	0.280732
2286.000000	0.280049
2287.000000	0.279225
2288.000000	0.279321
2289.000000	0.278645
2290.000000	0.278457
2291.000000	0.279131
2292.000000	0.278808
2293.000000	0.279638
2294.000000	0.279849
2295.000000	0.279167
2296.000000	0.278760
2297.000000	0.279202
2298.000000	0.278154
2299.000000	0.276348
2300.000000	0.274774
2301.000000	0.271528
2302.000000	0.270031
2303.000000	0.269540
2304.000000	0.268853
2305.000000	0.268938
2306.000000	0.269168
2307.000000	0.269618
2308.000000	0.269780
2309.000000	0.269653
2310.000000	0.268571
2311.000000	0.267350
2312.000000	0.266213
2313.000000	0.265115
2314.000000	0.264961
2315.000000	0.264724
2316.000000	0.264952
2317.000000	0.265653
2318.000000	0.266486
2319.000000	0.268207
2320.000000	0.268585
2321.000000	0.269298
2322.000000	0.271505
2323.000000	0.273156
2324.000000	0.275740
2325.000000	0.278234
2326.000000	0.279208
2327.000000	0.279570
2328.000000	0.280161
2329.000000	0.281194
2330.000000	0.280362
2331.000000	0.279628
2332.000000	0.278901
2333.000000	0.276851
2334.000000	0.277489
2335.000000	0.278370
2336.000000	0.279464
2337.000000	0.280466
2338.000000	0.282689
2339.000000	0.282885
2340.000000	0.282275
2341.000000	0.282173
2342.000000	0.281333
2343.000000	0.280774
2344.000000	0.279882
2345.000000	0.279880
2346.000000	0.279844
2347.000000	0.280068
2348.000000	0.281423
2349.000000	0.282994
2350.000000	0.282951
2351.000000	0.283452
2352.000000	0.283469
2353.000000	0.283333
2354.000000	0.280884
2355.000000	0.279444
2356.000000	0.279774
2357.000000	0.279554
2358.000000	0.281433
2359.000000	0.282466
2360.000000	0.281646
2361.000000	0.281048
2362.000000	0.279419
2363.000000	0.278429
2364.000000	0.277189
2365.000000	0.275982
2366.000000	0.274879
2367.000000	0.273441
2368.000000	0.275235
2369.000000	0.275648
2370.000000	0.274722
2371.000000	0.277207
2372.000000	0.277371
2373.000000	0.277036
2374.000000	0.276116
2375.000000	0.270822
2376.000000	0.269006
2377.000000	0.268522
2378.000000	0.267763
2379.000000	0.270719
2380.000000	0.268932
2381.000000	0.264879
2382.000000	0.264666
2383.000000	0.263987
2384.000000	0.264729
2385.000000	0.267028
2386.000000	0.268536
2387.000000	0.269961
2388.000000	0.271483
2389.000000	0.271096
2390.000000	0.267621
2391.000000	0.264510
2392.000000	0.261456
2393.000000	0.259704
2394.000000	0.260132
2395.000000	0.260454
2396.000000	0.262360
2397.000000	0.263205
2398.000000	0.264376
2399.000000	0.264342
2400.000000	0.260792
2401.000000	0.262077
2402.000000	0.262008
2403.000000	0.262775
2404.000000	0.268271
2405.000000	0.268528
2406.000000	0.270786
2407.000000	0.275407
2408.000000	0.277195
2409.000000	0.277843
2410.000000	0.277409
2411.000000	0.273341
2412.000000	0.268020
2413.000000	0.267876
2414.000000	0.266683
2415.000000	0.265115
2416.000000	0.269597
2417.000000	0.272069
2418.000000	0.271731
2419.000000	0.273151
2420.000000	0.268608
2421.000000	0.264772
2422.000000	0.268173
2423.000000	0.265402
2424.000000	0.262192
2425.000000	0.260120
2426.000000	0.253410
2427.000000	0.255751
2428.000000	0.260197
2429.000000	0.263312
2430.000000	0.266877
2431.000000	0.267337
2432.000000	0.275060
2433.000000	0.277002
2434.000000	0.277203
2435.000000	0.277555
2436.000000	0.264964
2437.000000	0.260670
2438.000000	0.260998
2439.000000	0.252950
2440.000000	0.251917
2441.000000	0.257727
2442.000000	0.261958
2443.000000	0.272680
2444.000000	0.277158
2445.000000	0.272449
2446.000000	0.269567
2447.000000	0.265130
2448.000000	0.269211
2449.000000	0.273181
2450.000000	0.273989
2451.000000	0.273166
2452.000000	0.263737
2453.000000	0.258150
2454.000000	0.249126
2455.000000	0.237467
2456.000000	0.237327
2457.000000	0.234861
2458.000000	0.232962
2459.000000	0.241751
2460.000000	0.246809
2461.000000	0.255941
2462.000000	0.259924
2463.000000	0.254186
2464.000000	0.254673
2465.000000	0.251006
2466.000000	0.253149
2467.000000	0.251844
2468.000000	0.246913
2469.000000	0.250613
2470.000000	0.257951
2471.000000	0.261066
2472.000000	0.256694
2473.000000	0.257378
2474.000000	0.243192
2475.000000	0.229278
2476.000000	0.230415
2477.000000	0.225400
2478.000000	0.223139
2479.000000	0.231173
2480.000000	0.247530
2481.000000	0.270186
2482.000000	0.276624
2483.000000	0.274406
2484.000000	0.265799
2485.000000	0.237940
2486.000000	0.223580
2487.000000	0.232119
2488.000000	0.239938
2489.000000	0.228388
2490.000000	0.216121
2491.000000	0.222331
2492.000000	0.217026
2493.000000	0.231834
2494.000000	0.240618
2495.000000	0.212781
2496.000000	0.211257
2497.000000	0.237764
2498.000000	0.241831
2499.000000	0.260897
2500.000000	0.272550
