# Wavelength	SM1200H-60_HEX-30_FV7-10_00002.asd.rts.txt
350.000000	0.395709
351.000000	0.394677
352.000000	0.407279
353.000000	0.417952
354.000000	0.421107
355.000000	0.410483
356.000000	0.406537
357.000000	0.412529
358.000000	0.414144
359.000000	0.412428
360.000000	0.413594
361.000000	0.421662
362.000000	0.419856
363.000000	0.423094
364.000000	0.433828
365.000000	0.420051
366.000000	0.417511
367.000000	0.426773
368.000000	0.419127
369.000000	0.421558
370.000000	0.427692
371.000000	0.423992
372.000000	0.419953
373.000000	0.420593
374.000000	0.426986
375.000000	0.428952
376.000000	0.428991
377.000000	0.428994
378.000000	0.431106
379.000000	0.431640
380.000000	0.432281
381.000000	0.436819
382.000000	0.437028
383.000000	0.434146
384.000000	0.431272
385.000000	0.431644
386.000000	0.434282
387.000000	0.437196
388.000000	0.436278
389.000000	0.435638
390.000000	0.436964
391.000000	0.440147
392.000000	0.440745
393.000000	0.440432
394.000000	0.440982
395.000000	0.441746
396.000000	0.442028
397.000000	0.441932
398.000000	0.442984
399.000000	0.443226
400.000000	0.443038
401.000000	0.443491
402.000000	0.444811
403.000000	0.445823
404.000000	0.445941
405.000000	0.446624
406.000000	0.447104
407.000000	0.447396
408.000000	0.448951
409.000000	0.449238
410.000000	0.449058
411.000000	0.450992
412.000000	0.450991
413.000000	0.450368
414.000000	0.451118
415.000000	0.451399
416.000000	0.451595
417.000000	0.451980
418.000000	0.452214
419.000000	0.452562
420.000000	0.452965
421.000000	0.453060
422.000000	0.453402
423.000000	0.454057
424.000000	0.455005
425.000000	0.455478
426.000000	0.456117
427.000000	0.457163
428.000000	0.457157
429.000000	0.457125
430.000000	0.457577
431.000000	0.458418
432.000000	0.459102
433.000000	0.459617
434.000000	0.460370
435.000000	0.460394
436.000000	0.460448
437.000000	0.461208
438.000000	0.461677
439.000000	0.461780
440.000000	0.461842
441.000000	0.462298
442.000000	0.462554
443.000000	0.462497
444.000000	0.462644
445.000000	0.462693
446.000000	0.463064
447.000000	0.463823
448.000000	0.463825
449.000000	0.463939
450.000000	0.464658
451.000000	0.464749
452.000000	0.465072
453.000000	0.465654
454.000000	0.466005
455.000000	0.466427
456.000000	0.467045
457.000000	0.467556
458.000000	0.467640
459.000000	0.467623
460.000000	0.467918
461.000000	0.468285
462.000000	0.468974
463.000000	0.469662
464.000000	0.469891
465.000000	0.470280
466.000000	0.470720
467.000000	0.470901
468.000000	0.471052
469.000000	0.471310
470.000000	0.471967
471.000000	0.472040
472.000000	0.472051
473.000000	0.472407
474.000000	0.472662
475.000000	0.472649
476.000000	0.472715
477.000000	0.473179
478.000000	0.473283
479.000000	0.473399
480.000000	0.473667
481.000000	0.473787
482.000000	0.474033
483.000000	0.474262
484.000000	0.474471
485.000000	0.474777
486.000000	0.475364
487.000000	0.475379
488.000000	0.475617
489.000000	0.476081
490.000000	0.476226
491.000000	0.476620
492.000000	0.477156
493.000000	0.477359
494.000000	0.477683
495.000000	0.478061
496.000000	0.478379
497.000000	0.478950
498.000000	0.479345
499.000000	0.479637
500.000000	0.480179
501.000000	0.480455
502.000000	0.480703
503.000000	0.481297
504.000000	0.481683
505.000000	0.481934
506.000000	0.482226
507.000000	0.482544
508.000000	0.482956
509.000000	0.483391
510.000000	0.483744
511.000000	0.484147
512.000000	0.484624
513.000000	0.485009
514.000000	0.485472
515.000000	0.485922
516.000000	0.486101
517.000000	0.486294
518.000000	0.486599
519.000000	0.486888
520.000000	0.487139
521.000000	0.487390
522.000000	0.487667
523.000000	0.487940
524.000000	0.488290
525.000000	0.488670
526.000000	0.489040
527.000000	0.489294
528.000000	0.489481
529.000000	0.489761
530.000000	0.489986
531.000000	0.490316
532.000000	0.490675
533.000000	0.490991
534.000000	0.491233
535.000000	0.491430
536.000000	0.491756
537.000000	0.492095
538.000000	0.492389
539.000000	0.492592
540.000000	0.492923
541.000000	0.493283
542.000000	0.493621
543.000000	0.493939
544.000000	0.494307
545.000000	0.494658
546.000000	0.495131
547.000000	0.495534
548.000000	0.495883
549.000000	0.496169
550.000000	0.496573
551.000000	0.497050
552.000000	0.497410
553.000000	0.497827
554.000000	0.498219
555.000000	0.498544
556.000000	0.498925
557.000000	0.499194
558.000000	0.499537
559.000000	0.499947
560.000000	0.500278
561.000000	0.500622
562.000000	0.500923
563.000000	0.501280
564.000000	0.501668
565.000000	0.501878
566.000000	0.502184
567.000000	0.502501
568.000000	0.502750
569.000000	0.503066
570.000000	0.503350
571.000000	0.503593
572.000000	0.503910
573.000000	0.504248
574.000000	0.504545
575.000000	0.504844
576.000000	0.505139
577.000000	0.505375
578.000000	0.505639
579.000000	0.505984
580.000000	0.506297
581.000000	0.506541
582.000000	0.506816
583.000000	0.507055
584.000000	0.507302
585.000000	0.507666
586.000000	0.507936
587.000000	0.508150
588.000000	0.508406
589.000000	0.508719
590.000000	0.509053
591.000000	0.509366
592.000000	0.509600
593.000000	0.509850
594.000000	0.510114
595.000000	0.510307
596.000000	0.510559
597.000000	0.510882
598.000000	0.511069
599.000000	0.511199
600.000000	0.511435
601.000000	0.511727
602.000000	0.511878
603.000000	0.512022
604.000000	0.512236
605.000000	0.512448
606.000000	0.512636
607.000000	0.512792
608.000000	0.512915
609.000000	0.513133
610.000000	0.513352
611.000000	0.513456
612.000000	0.513637
613.000000	0.513830
614.000000	0.514040
615.000000	0.514254
616.000000	0.514408
617.000000	0.514483
618.000000	0.514693
619.000000	0.514922
620.000000	0.515073
621.000000	0.515165
622.000000	0.515328
623.000000	0.515447
624.000000	0.515451
625.000000	0.515596
626.000000	0.515758
627.000000	0.515877
628.000000	0.515999
629.000000	0.516203
630.000000	0.516277
631.000000	0.516350
632.000000	0.516416
633.000000	0.516505
634.000000	0.516620
635.000000	0.516802
636.000000	0.517035
637.000000	0.517257
638.000000	0.517427
639.000000	0.517594
640.000000	0.517785
641.000000	0.517730
642.000000	0.517796
643.000000	0.517960
644.000000	0.518080
645.000000	0.518124
646.000000	0.518205
647.000000	0.518352
648.000000	0.518500
649.000000	0.518617
650.000000	0.518714
651.000000	0.518978
652.000000	0.519118
653.000000	0.519212
654.000000	0.519350
655.000000	0.519498
656.000000	0.519629
657.000000	0.519655
658.000000	0.519836
659.000000	0.519983
660.000000	0.520013
661.000000	0.520131
662.000000	0.520185
663.000000	0.520293
664.000000	0.520543
665.000000	0.520735
666.000000	0.520902
667.000000	0.521067
668.000000	0.521242
669.000000	0.521405
670.000000	0.521546
671.000000	0.521625
672.000000	0.521768
673.000000	0.521965
674.000000	0.522132
675.000000	0.522239
676.000000	0.522352
677.000000	0.522583
678.000000	0.522839
679.000000	0.523046
680.000000	0.523173
681.000000	0.523197
682.000000	0.523314
683.000000	0.523458
684.000000	0.523697
685.000000	0.523821
686.000000	0.523923
687.000000	0.524085
688.000000	0.524182
689.000000	0.524294
690.000000	0.524525
691.000000	0.524724
692.000000	0.524831
693.000000	0.524956
694.000000	0.525100
695.000000	0.525281
696.000000	0.525500
697.000000	0.525748
698.000000	0.525937
699.000000	0.526118
700.000000	0.526333
701.000000	0.526446
702.000000	0.526546
703.000000	0.526647
704.000000	0.526749
705.000000	0.526891
706.000000	0.526984
707.000000	0.527055
708.000000	0.527203
709.000000	0.527374
710.000000	0.527538
711.000000	0.527678
712.000000	0.527821
713.000000	0.528015
714.000000	0.528258
715.000000	0.528414
716.000000	0.528518
717.000000	0.528631
718.000000	0.528680
719.000000	0.528672
720.000000	0.528675
721.000000	0.528819
722.000000	0.528929
723.000000	0.529028
724.000000	0.529093
725.000000	0.529114
726.000000	0.529245
727.000000	0.529410
728.000000	0.529524
729.000000	0.529650
730.000000	0.529750
731.000000	0.529825
732.000000	0.529901
733.000000	0.530025
734.000000	0.530066
735.000000	0.530022
736.000000	0.530117
737.000000	0.530208
738.000000	0.530191
739.000000	0.530191
740.000000	0.530069
741.000000	0.530167
742.000000	0.530227
743.000000	0.530171
744.000000	0.530261
745.000000	0.530317
746.000000	0.530379
747.000000	0.530390
748.000000	0.530502
749.000000	0.530696
750.000000	0.530874
751.000000	0.531034
752.000000	0.531085
753.000000	0.531071
754.000000	0.531108
755.000000	0.531184
756.000000	0.531273
757.000000	0.531283
758.000000	0.531399
759.000000	0.531510
760.000000	0.531492
761.000000	0.531734
762.000000	0.531871
763.000000	0.531829
764.000000	0.531831
765.000000	0.531838
766.000000	0.531888
767.000000	0.531997
768.000000	0.532121
769.000000	0.532202
770.000000	0.532247
771.000000	0.532346
772.000000	0.532461
773.000000	0.532483
774.000000	0.532515
775.000000	0.532654
776.000000	0.532773
777.000000	0.532766
778.000000	0.532824
779.000000	0.532854
780.000000	0.532861
781.000000	0.532900
782.000000	0.532879
783.000000	0.532967
784.000000	0.533056
785.000000	0.533130
786.000000	0.533202
787.000000	0.533264
788.000000	0.533293
789.000000	0.533331
790.000000	0.533329
791.000000	0.533278
792.000000	0.533195
793.000000	0.533172
794.000000	0.533253
795.000000	0.533241
796.000000	0.533216
797.000000	0.533198
798.000000	0.533167
799.000000	0.533302
800.000000	0.533463
801.000000	0.533467
802.000000	0.533485
803.000000	0.533533
804.000000	0.533613
805.000000	0.533489
806.000000	0.533331
807.000000	0.533327
808.000000	0.533391
809.000000	0.533292
810.000000	0.533200
811.000000	0.533228
812.000000	0.533224
813.000000	0.533238
814.000000	0.533249
815.000000	0.533213
816.000000	0.533164
817.000000	0.533203
818.000000	0.533260
819.000000	0.533332
820.000000	0.533363
821.000000	0.533262
822.000000	0.533139
823.000000	0.533082
824.000000	0.533051
825.000000	0.533149
826.000000	0.533204
827.000000	0.533142
828.000000	0.533077
829.000000	0.533239
830.000000	0.533288
831.000000	0.533264
832.000000	0.533136
833.000000	0.533088
834.000000	0.533050
835.000000	0.532997
836.000000	0.532927
837.000000	0.532830
838.000000	0.532739
839.000000	0.532648
840.000000	0.532570
841.000000	0.532576
842.000000	0.532633
843.000000	0.532659
844.000000	0.532609
845.000000	0.532467
846.000000	0.532382
847.000000	0.532372
848.000000	0.532376
849.000000	0.532354
850.000000	0.532161
851.000000	0.531887
852.000000	0.531738
853.000000	0.531883
854.000000	0.531868
855.000000	0.531856
856.000000	0.531838
857.000000	0.531635
858.000000	0.531459
859.000000	0.531299
860.000000	0.531172
861.000000	0.531041
862.000000	0.531002
863.000000	0.531012
864.000000	0.530774
865.000000	0.530628
866.000000	0.530751
867.000000	0.530779
868.000000	0.530812
869.000000	0.530716
870.000000	0.530512
871.000000	0.530338
872.000000	0.530286
873.000000	0.530297
874.000000	0.530426
875.000000	0.530455
876.000000	0.530393
877.000000	0.530229
878.000000	0.529971
879.000000	0.529716
880.000000	0.529344
881.000000	0.529192
882.000000	0.529076
883.000000	0.528960
884.000000	0.528750
885.000000	0.528530
886.000000	0.528321
887.000000	0.528155
888.000000	0.527942
889.000000	0.527788
890.000000	0.527579
891.000000	0.527497
892.000000	0.527338
893.000000	0.527141
894.000000	0.527130
895.000000	0.527117
896.000000	0.526923
897.000000	0.526629
898.000000	0.526417
899.000000	0.526380
900.000000	0.526310
901.000000	0.526108
902.000000	0.526088
903.000000	0.525847
904.000000	0.525554
905.000000	0.525334
906.000000	0.525406
907.000000	0.525302
908.000000	0.525064
909.000000	0.524983
910.000000	0.524815
911.000000	0.524648
912.000000	0.524616
913.000000	0.524610
914.000000	0.524519
915.000000	0.524367
916.000000	0.524016
917.000000	0.523839
918.000000	0.523762
919.000000	0.523600
920.000000	0.523219
921.000000	0.522952
922.000000	0.522821
923.000000	0.522635
924.000000	0.522440
925.000000	0.522199
926.000000	0.521949
927.000000	0.521662
928.000000	0.521397
929.000000	0.521131
930.000000	0.520838
931.000000	0.520591
932.000000	0.520292
933.000000	0.520034
934.000000	0.519928
935.000000	0.519431
936.000000	0.518953
937.000000	0.518713
938.000000	0.518396
939.000000	0.518203
940.000000	0.518026
941.000000	0.517847
942.000000	0.517467
943.000000	0.517087
944.000000	0.516589
945.000000	0.515940
946.000000	0.515068
947.000000	0.514400
948.000000	0.514234
949.000000	0.514097
950.000000	0.513939
951.000000	0.513774
952.000000	0.513841
953.000000	0.513648
954.000000	0.513446
955.000000	0.513335
956.000000	0.513158
957.000000	0.512920
958.000000	0.512597
959.000000	0.512370
960.000000	0.512131
961.000000	0.511902
962.000000	0.511715
963.000000	0.511696
964.000000	0.511486
965.000000	0.511321
966.000000	0.511173
967.000000	0.510746
968.000000	0.510311
969.000000	0.509923
970.000000	0.509735
971.000000	0.509626
972.000000	0.509479
973.000000	0.509161
974.000000	0.508857
975.000000	0.508758
976.000000	0.508682
977.000000	0.508447
978.000000	0.508150
979.000000	0.508314
980.000000	0.508360
981.000000	0.508160
982.000000	0.508048
983.000000	0.507798
984.000000	0.507455
985.000000	0.507133
986.000000	0.507112
987.000000	0.507059
988.000000	0.506601
989.000000	0.506266
990.000000	0.505923
991.000000	0.505708
992.000000	0.505848
993.000000	0.506256
994.000000	0.505963
995.000000	0.505316
996.000000	0.504954
997.000000	0.504956
998.000000	0.505057
999.000000	0.505142
1000.000000	0.504985
1001.000000	0.505079
1002.000000	0.505054
1003.000000	0.505050
1004.000000	0.504811
1005.000000	0.504475
1006.000000	0.504406
1007.000000	0.504555
1008.000000	0.504018
1009.000000	0.503539
1010.000000	0.502831
1011.000000	0.502915
1012.000000	0.503043
1013.000000	0.502971
1014.000000	0.504192
1015.000000	0.503602
1016.000000	0.502605
1017.000000	0.502708
1018.000000	0.501520
1019.000000	0.501241
1020.000000	0.502413
1021.000000	0.502009
1022.000000	0.500928
1023.000000	0.500963
1024.000000	0.500677
1025.000000	0.500819
1026.000000	0.501091
1027.000000	0.501825
1028.000000	0.502565
1029.000000	0.502374
1030.000000	0.502077
1031.000000	0.502100
1032.000000	0.501975
1033.000000	0.502090
1034.000000	0.502287
1035.000000	0.503085
1036.000000	0.503333
1037.000000	0.503300
1038.000000	0.503103
1039.000000	0.502658
1040.000000	0.502970
1041.000000	0.502922
1042.000000	0.502475
1043.000000	0.502977
1044.000000	0.503343
1045.000000	0.502957
1046.000000	0.503464
1047.000000	0.503819
1048.000000	0.503672
1049.000000	0.503878
1050.000000	0.504811
1051.000000	0.505068
1052.000000	0.504730
1053.000000	0.504743
1054.000000	0.505098
1055.000000	0.505355
1056.000000	0.505827
1057.000000	0.506216
1058.000000	0.505838
1059.000000	0.505502
1060.000000	0.505943
1061.000000	0.506707
1062.000000	0.507060
1063.000000	0.507200
1064.000000	0.507292
1065.000000	0.506338
1066.000000	0.506292
1067.000000	0.506829
1068.000000	0.507169
1069.000000	0.507577
1070.000000	0.507808
1071.000000	0.508332
1072.000000	0.508466
1073.000000	0.508212
1074.000000	0.508041
1075.000000	0.508638
1076.000000	0.508879
1077.000000	0.508669
1078.000000	0.509105
1079.000000	0.509018
1080.000000	0.508057
1081.000000	0.508045
1082.000000	0.508898
1083.000000	0.509001
1084.000000	0.508968
1085.000000	0.509263
1086.000000	0.509157
1087.000000	0.509526
1088.000000	0.510725
1089.000000	0.511160
1090.000000	0.511251
1091.000000	0.511280
1092.000000	0.511102
1093.000000	0.511067
1094.000000	0.511060
1095.000000	0.510961
1096.000000	0.511353
1097.000000	0.512160
1098.000000	0.512381
1099.000000	0.512614
1100.000000	0.512877
1101.000000	0.512538
1102.000000	0.512518
1103.000000	0.512699
1104.000000	0.513044
1105.000000	0.513628
1106.000000	0.513888
1107.000000	0.514380
1108.000000	0.514401
1109.000000	0.513898
1110.000000	0.513142
1111.000000	0.513285
1112.000000	0.513735
1113.000000	0.514109
1114.000000	0.515253
1115.000000	0.515520
1116.000000	0.515120
1117.000000	0.515177
1118.000000	0.515250
1119.000000	0.515159
1120.000000	0.515060
1121.000000	0.515071
1122.000000	0.515148
1123.000000	0.515454
1124.000000	0.515832
1125.000000	0.515935
1126.000000	0.515518
1127.000000	0.515332
1128.000000	0.515165
1129.000000	0.514926
1130.000000	0.514966
1131.000000	0.515341
1132.000000	0.515386
1133.000000	0.515502
1134.000000	0.515546
1135.000000	0.515343
1136.000000	0.515258
1137.000000	0.515288
1138.000000	0.515088
1139.000000	0.514860
1140.000000	0.514817
1141.000000	0.514610
1142.000000	0.514538
1143.000000	0.514588
1144.000000	0.514725
1145.000000	0.514708
1146.000000	0.514522
1147.000000	0.514257
1148.000000	0.513612
1149.000000	0.513459
1150.000000	0.513387
1151.000000	0.513445
1152.000000	0.513777
1153.000000	0.513923
1154.000000	0.514032
1155.000000	0.513925
1156.000000	0.513676
1157.000000	0.513528
1158.000000	0.513062
1159.000000	0.512868
1160.000000	0.512859
1161.000000	0.512848
1162.000000	0.513070
1163.000000	0.513396
1164.000000	0.513465
1165.000000	0.513345
1166.000000	0.513351
1167.000000	0.513181
1168.000000	0.513035
1169.000000	0.512936
1170.000000	0.512987
1171.000000	0.513094
1172.000000	0.513244
1173.000000	0.513632
1174.000000	0.513741
1175.000000	0.513563
1176.000000	0.513486
1177.000000	0.513572
1178.000000	0.513496
1179.000000	0.513336
1180.000000	0.513146
1181.000000	0.512972
1182.000000	0.512768
1183.000000	0.512678
1184.000000	0.512723
1185.000000	0.512641
1186.000000	0.512486
1187.000000	0.512384
1188.000000	0.512240
1189.000000	0.512151
1190.000000	0.512311
1191.000000	0.512174
1192.000000	0.512087
1193.000000	0.512087
1194.000000	0.511606
1195.000000	0.511516
1196.000000	0.511697
1197.000000	0.511656
1198.000000	0.511591
1199.000000	0.511638
1200.000000	0.511718
1201.000000	0.511602
1202.000000	0.511530
1203.000000	0.511670
1204.000000	0.511656
1205.000000	0.511681
1206.000000	0.511664
1207.000000	0.511916
1208.000000	0.511903
1209.000000	0.511773
1210.000000	0.511775
1211.000000	0.511838
1212.000000	0.511768
1213.000000	0.511749
1214.000000	0.511788
1215.000000	0.511682
1216.000000	0.511660
1217.000000	0.511685
1218.000000	0.511687
1219.000000	0.511701
1220.000000	0.511897
1221.000000	0.511794
1222.000000	0.511661
1223.000000	0.511660
1224.000000	0.511582
1225.000000	0.511701
1226.000000	0.512025
1227.000000	0.511956
1228.000000	0.511846
1229.000000	0.511767
1230.000000	0.511547
1231.000000	0.511426
1232.000000	0.511643
1233.000000	0.511782
1234.000000	0.511919
1235.000000	0.511967
1236.000000	0.511715
1237.000000	0.511736
1238.000000	0.511790
1239.000000	0.511790
1240.000000	0.511806
1241.000000	0.511996
1242.000000	0.512018
1243.000000	0.511978
1244.000000	0.511968
1245.000000	0.511817
1246.000000	0.511669
1247.000000	0.511763
1248.000000	0.511799
1249.000000	0.511838
1250.000000	0.511817
1251.000000	0.511681
1252.000000	0.511586
1253.000000	0.511569
1254.000000	0.511482
1255.000000	0.511256
1256.000000	0.511245
1257.000000	0.511428
1258.000000	0.511552
1259.000000	0.511715
1260.000000	0.511809
1261.000000	0.511729
1262.000000	0.511594
1263.000000	0.511397
1264.000000	0.511205
1265.000000	0.511094
1266.000000	0.511039
1267.000000	0.511165
1268.000000	0.511254
1269.000000	0.511182
1270.000000	0.511087
1271.000000	0.511031
1272.000000	0.511083
1273.000000	0.511116
1274.000000	0.511170
1275.000000	0.511167
1276.000000	0.511083
1277.000000	0.511175
1278.000000	0.511297
1279.000000	0.511220
1280.000000	0.510917
1281.000000	0.510757
1282.000000	0.510557
1283.000000	0.510588
1284.000000	0.510833
1285.000000	0.510870
1286.000000	0.510830
1287.000000	0.510786
1288.000000	0.510600
1289.000000	0.510301
1290.000000	0.510015
1291.000000	0.509838
1292.000000	0.509781
1293.000000	0.509792
1294.000000	0.509907
1295.000000	0.510051
1296.000000	0.510024
1297.000000	0.509969
1298.000000	0.509906
1299.000000	0.509636
1300.000000	0.509583
1301.000000	0.509647
1302.000000	0.509507
1303.000000	0.509520
1304.000000	0.509401
1305.000000	0.509253
1306.000000	0.509082
1307.000000	0.508969
1308.000000	0.508939
1309.000000	0.508930
1310.000000	0.508830
1311.000000	0.508838
1312.000000	0.508622
1313.000000	0.508334
1314.000000	0.508178
1315.000000	0.507867
1316.000000	0.507621
1317.000000	0.507478
1318.000000	0.507209
1319.000000	0.506960
1320.000000	0.506837
1321.000000	0.506463
1322.000000	0.506062
1323.000000	0.505897
1324.000000	0.505641
1325.000000	0.505310
1326.000000	0.505139
1327.000000	0.504888
1328.000000	0.504548
1329.000000	0.504052
1330.000000	0.503400
1331.000000	0.502968
1332.000000	0.502597
1333.000000	0.502231
1334.000000	0.502207
1335.000000	0.501925
1336.000000	0.501366
1337.000000	0.500940
1338.000000	0.500414
1339.000000	0.500044
1340.000000	0.499574
1341.000000	0.499235
1342.000000	0.499068
1343.000000	0.498677
1344.000000	0.498336
1345.000000	0.498014
1346.000000	0.497662
1347.000000	0.497220
1348.000000	0.496723
1349.000000	0.496117
1350.000000	0.495792
1351.000000	0.495490
1352.000000	0.495149
1353.000000	0.494894
1354.000000	0.494444
1355.000000	0.493886
1356.000000	0.493641
1357.000000	0.493292
1358.000000	0.492768
1359.000000	0.492287
1360.000000	0.491853
1361.000000	0.491486
1362.000000	0.491006
1363.000000	0.490561
1364.000000	0.489995
1365.000000	0.489200
1366.000000	0.488511
1367.000000	0.487850
1368.000000	0.487079
1369.000000	0.486481
1370.000000	0.485654
1371.000000	0.484609
1372.000000	0.483543
1373.000000	0.482194
1374.000000	0.480662
1375.000000	0.478980
1376.000000	0.477100
1377.000000	0.474862
1378.000000	0.471845
1379.000000	0.468214
1380.000000	0.464157
1381.000000	0.459477
1382.000000	0.454532
1383.000000	0.449399
1384.000000	0.443918
1385.000000	0.438490
1386.000000	0.433464
1387.000000	0.429023
1388.000000	0.425341
1389.000000	0.422570
1390.000000	0.420685
1391.000000	0.419459
1392.000000	0.418812
1393.000000	0.418526
1394.000000	0.419054
1395.000000	0.419362
1396.000000	0.420127
1397.000000	0.420383
1398.000000	0.420553
1399.000000	0.420288
1400.000000	0.419712
1401.000000	0.418745
1402.000000	0.417477
1403.000000	0.415956
1404.000000	0.414296
1405.000000	0.412594
1406.000000	0.410862
1407.000000	0.409222
1408.000000	0.407530
1409.000000	0.405924
1410.000000	0.404545
1411.000000	0.403228
1412.000000	0.401983
1413.000000	0.401017
1414.000000	0.400222
1415.000000	0.399425
1416.000000	0.398738
1417.000000	0.398141
1418.000000	0.397449
1419.000000	0.396972
1420.000000	0.396512
1421.000000	0.396127
1422.000000	0.395963
1423.000000	0.395872
1424.000000	0.395587
1425.000000	0.395384
1426.000000	0.395032
1427.000000	0.394633
1428.000000	0.394489
1429.000000	0.394431
1430.000000	0.394439
1431.000000	0.394472
1432.000000	0.394343
1433.000000	0.394124
1434.000000	0.393880
1435.000000	0.393635
1436.000000	0.393390
1437.000000	0.393133
1438.000000	0.392855
1439.000000	0.392587
1440.000000	0.392294
1441.000000	0.392002
1442.000000	0.391717
1443.000000	0.391317
1444.000000	0.391055
1445.000000	0.390710
1446.000000	0.390439
1447.000000	0.390210
1448.000000	0.389920
1449.000000	0.389723
1450.000000	0.389475
1451.000000	0.389225
1452.000000	0.388996
1453.000000	0.388722
1454.000000	0.388504
1455.000000	0.388233
1456.000000	0.387949
1457.000000	0.387802
1458.000000	0.387631
1459.000000	0.387559
1460.000000	0.387509
1461.000000	0.387377
1462.000000	0.387298
1463.000000	0.387100
1464.000000	0.387059
1465.000000	0.387223
1466.000000	0.387367
1467.000000	0.387710
1468.000000	0.388150
1469.000000	0.388511
1470.000000	0.388796
1471.000000	0.389193
1472.000000	0.389473
1473.000000	0.389900
1474.000000	0.390478
1475.000000	0.391046
1476.000000	0.391712
1477.000000	0.392360
1478.000000	0.392972
1479.000000	0.393697
1480.000000	0.394462
1481.000000	0.395115
1482.000000	0.395816
1483.000000	0.396559
1484.000000	0.397199
1485.000000	0.397900
1486.000000	0.398735
1487.000000	0.399475
1488.000000	0.400161
1489.000000	0.400886
1490.000000	0.401401
1491.000000	0.402129
1492.000000	0.402915
1493.000000	0.403716
1494.000000	0.404635
1495.000000	0.405383
1496.000000	0.406011
1497.000000	0.406690
1498.000000	0.407370
1499.000000	0.407974
1500.000000	0.408623
1501.000000	0.409198
1502.000000	0.409721
1503.000000	0.410372
1504.000000	0.411025
1505.000000	0.411575
1506.000000	0.412131
1507.000000	0.412618
1508.000000	0.413137
1509.000000	0.413713
1510.000000	0.414201
1511.000000	0.414720
1512.000000	0.415221
1513.000000	0.415699
1514.000000	0.416252
1515.000000	0.416664
1516.000000	0.417041
1517.000000	0.417514
1518.000000	0.417969
1519.000000	0.418278
1520.000000	0.418638
1521.000000	0.418915
1522.000000	0.419200
1523.000000	0.419663
1524.000000	0.420006
1525.000000	0.420311
1526.000000	0.420627
1527.000000	0.420854
1528.000000	0.421218
1529.000000	0.421567
1530.000000	0.421641
1531.000000	0.421881
1532.000000	0.422172
1533.000000	0.422373
1534.000000	0.422628
1535.000000	0.422849
1536.000000	0.423073
1537.000000	0.423420
1538.000000	0.423658
1539.000000	0.423862
1540.000000	0.424168
1541.000000	0.424442
1542.000000	0.424835
1543.000000	0.425292
1544.000000	0.425538
1545.000000	0.425779
1546.000000	0.426047
1547.000000	0.426196
1548.000000	0.426422
1549.000000	0.426548
1550.000000	0.426500
1551.000000	0.426556
1552.000000	0.426602
1553.000000	0.426714
1554.000000	0.426845
1555.000000	0.426909
1556.000000	0.427031
1557.000000	0.427055
1558.000000	0.427135
1559.000000	0.427212
1560.000000	0.427287
1561.000000	0.427359
1562.000000	0.427458
1563.000000	0.427672
1564.000000	0.427798
1565.000000	0.427934
1566.000000	0.427898
1567.000000	0.427788
1568.000000	0.427871
1569.000000	0.428105
1570.000000	0.428234
1571.000000	0.428479
1572.000000	0.428556
1573.000000	0.428434
1574.000000	0.428452
1575.000000	0.428535
1576.000000	0.428620
1577.000000	0.428695
1578.000000	0.428745
1579.000000	0.428914
1580.000000	0.428956
1581.000000	0.428982
1582.000000	0.429053
1583.000000	0.429104
1584.000000	0.429048
1585.000000	0.429112
1586.000000	0.429183
1587.000000	0.429127
1588.000000	0.429167
1589.000000	0.429317
1590.000000	0.429404
1591.000000	0.429494
1592.000000	0.429607
1593.000000	0.429778
1594.000000	0.429924
1595.000000	0.430184
1596.000000	0.430330
1597.000000	0.430451
1598.000000	0.430512
1599.000000	0.430540
1600.000000	0.430511
1601.000000	0.430506
1602.000000	0.430537
1603.000000	0.430612
1604.000000	0.430576
1605.000000	0.430526
1606.000000	0.430539
1607.000000	0.430558
1608.000000	0.430622
1609.000000	0.430921
1610.000000	0.431010
1611.000000	0.430980
1612.000000	0.431013
1613.000000	0.431176
1614.000000	0.431220
1615.000000	0.431279
1616.000000	0.431421
1617.000000	0.431445
1618.000000	0.431562
1619.000000	0.431806
1620.000000	0.431982
1621.000000	0.432098
1622.000000	0.432463
1623.000000	0.432951
1624.000000	0.433277
1625.000000	0.433521
1626.000000	0.433646
1627.000000	0.433537
1628.000000	0.433765
1629.000000	0.434094
1630.000000	0.434471
1631.000000	0.434956
1632.000000	0.435237
1633.000000	0.435549
1634.000000	0.435740
1635.000000	0.435784
1636.000000	0.435963
1637.000000	0.436087
1638.000000	0.436346
1639.000000	0.436868
1640.000000	0.437193
1641.000000	0.437617
1642.000000	0.437949
1643.000000	0.438201
1644.000000	0.438462
1645.000000	0.438713
1646.000000	0.438893
1647.000000	0.439082
1648.000000	0.439223
1649.000000	0.439489
1650.000000	0.439617
1651.000000	0.439676
1652.000000	0.439793
1653.000000	0.439752
1654.000000	0.439890
1655.000000	0.440041
1656.000000	0.440143
1657.000000	0.440418
1658.000000	0.440563
1659.000000	0.440776
1660.000000	0.441092
1661.000000	0.441272
1662.000000	0.441573
1663.000000	0.441998
1664.000000	0.442286
1665.000000	0.442482
1666.000000	0.442890
1667.000000	0.443311
1668.000000	0.443554
1669.000000	0.443773
1670.000000	0.443914
1671.000000	0.443974
1672.000000	0.444226
1673.000000	0.444607
1674.000000	0.444891
1675.000000	0.445084
1676.000000	0.445165
1677.000000	0.445111
1678.000000	0.445178
1679.000000	0.445282
1680.000000	0.445506
1681.000000	0.445867
1682.000000	0.446066
1683.000000	0.446330
1684.000000	0.446520
1685.000000	0.446566
1686.000000	0.446595
1687.000000	0.446677
1688.000000	0.446736
1689.000000	0.446871
1690.000000	0.446947
1691.000000	0.447021
1692.000000	0.447066
1693.000000	0.447059
1694.000000	0.447030
1695.000000	0.447082
1696.000000	0.447203
1697.000000	0.447175
1698.000000	0.447260
1699.000000	0.447343
1700.000000	0.447265
1701.000000	0.447343
1702.000000	0.447261
1703.000000	0.447201
1704.000000	0.447346
1705.000000	0.447363
1706.000000	0.447295
1707.000000	0.447425
1708.000000	0.447585
1709.000000	0.447636
1710.000000	0.448033
1711.000000	0.448225
1712.000000	0.448137
1713.000000	0.448226
1714.000000	0.448487
1715.000000	0.448621
1716.000000	0.448809
1717.000000	0.448894
1718.000000	0.448695
1719.000000	0.448727
1720.000000	0.448944
1721.000000	0.449087
1722.000000	0.449408
1723.000000	0.449528
1724.000000	0.449482
1725.000000	0.449584
1726.000000	0.449535
1727.000000	0.449575
1728.000000	0.449703
1729.000000	0.449595
1730.000000	0.449495
1731.000000	0.449534
1732.000000	0.449556
1733.000000	0.449721
1734.000000	0.449896
1735.000000	0.450019
1736.000000	0.450084
1737.000000	0.450137
1738.000000	0.450205
1739.000000	0.450301
1740.000000	0.450387
1741.000000	0.450361
1742.000000	0.450323
1743.000000	0.450372
1744.000000	0.450354
1745.000000	0.450248
1746.000000	0.450147
1747.000000	0.450053
1748.000000	0.449968
1749.000000	0.450178
1750.000000	0.450190
1751.000000	0.450271
1752.000000	0.450375
1753.000000	0.450098
1754.000000	0.450037
1755.000000	0.450124
1756.000000	0.449982
1757.000000	0.449748
1758.000000	0.449659
1759.000000	0.449417
1760.000000	0.449260
1761.000000	0.449249
1762.000000	0.449211
1763.000000	0.449183
1764.000000	0.449109
1765.000000	0.449034
1766.000000	0.448961
1767.000000	0.448699
1768.000000	0.448439
1769.000000	0.448258
1770.000000	0.448279
1771.000000	0.448238
1772.000000	0.448379
1773.000000	0.448788
1774.000000	0.448971
1775.000000	0.449257
1776.000000	0.449342
1777.000000	0.449176
1778.000000	0.449131
1779.000000	0.449013
1780.000000	0.448971
1781.000000	0.448933
1782.000000	0.448937
1783.000000	0.449001
1784.000000	0.449130
1785.000000	0.449219
1786.000000	0.449414
1787.000000	0.449698
1788.000000	0.449886
1789.000000	0.450122
1790.000000	0.450099
1791.000000	0.450070
1792.000000	0.450074
1793.000000	0.450137
1794.000000	0.450373
1795.000000	0.450499
1796.000000	0.450544
1797.000000	0.450600
1798.000000	0.450531
1799.000000	0.450554
1800.000000	0.450701
1801.000000	0.450519
1802.000000	0.450707
1803.000000	0.450559
1804.000000	0.450940
1805.000000	0.451992
1806.000000	0.452348
1807.000000	0.452777
1808.000000	0.452868
1809.000000	0.452929
1810.000000	0.451623
1811.000000	0.451302
1812.000000	0.451115
1813.000000	0.451031
1814.000000	0.451252
1815.000000	0.451509
1816.000000	0.452062
1817.000000	0.452001
1818.000000	0.452183
1819.000000	0.451773
1820.000000	0.451151
1821.000000	0.449669
1822.000000	0.449217
1823.000000	0.448871
1824.000000	0.448615
1825.000000	0.449273
1826.000000	0.449239
1827.000000	0.448628
1828.000000	0.447852
1829.000000	0.447981
1830.000000	0.447288
1831.000000	0.446693
1832.000000	0.446151
1833.000000	0.445747
1834.000000	0.444870
1835.000000	0.444681
1836.000000	0.445478
1837.000000	0.445378
1838.000000	0.444780
1839.000000	0.444122
1840.000000	0.443323
1841.000000	0.442801
1842.000000	0.442670
1843.000000	0.443452
1844.000000	0.443157
1845.000000	0.442345
1846.000000	0.441955
1847.000000	0.441185
1848.000000	0.440002
1849.000000	0.440349
1850.000000	0.440367
1851.000000	0.439716
1852.000000	0.438945
1853.000000	0.437945
1854.000000	0.435643
1855.000000	0.434231
1856.000000	0.432843
1857.000000	0.431705
1858.000000	0.430997
1859.000000	0.429996
1860.000000	0.428568
1861.000000	0.427527
1862.000000	0.425765
1863.000000	0.423263
1864.000000	0.421194
1865.000000	0.419298
1866.000000	0.416759
1867.000000	0.413994
1868.000000	0.411535
1869.000000	0.407659
1870.000000	0.403500
1871.000000	0.399893
1872.000000	0.396147
1873.000000	0.392075
1874.000000	0.388069
1875.000000	0.383920
1876.000000	0.379223
1877.000000	0.373713
1878.000000	0.369202
1879.000000	0.364467
1880.000000	0.359268
1881.000000	0.354031
1882.000000	0.347442
1883.000000	0.340476
1884.000000	0.333679
1885.000000	0.325862
1886.000000	0.318684
1887.000000	0.311883
1888.000000	0.304780
1889.000000	0.297550
1890.000000	0.290717
1891.000000	0.283890
1892.000000	0.277034
1893.000000	0.270601
1894.000000	0.263917
1895.000000	0.257540
1896.000000	0.251434
1897.000000	0.245858
1898.000000	0.239939
1899.000000	0.234861
1900.000000	0.230722
1901.000000	0.226904
1902.000000	0.223164
1903.000000	0.219862
1904.000000	0.216884
1905.000000	0.213698
1906.000000	0.211046
1907.000000	0.208840
1908.000000	0.207365
1909.000000	0.205981
1910.000000	0.205095
1911.000000	0.205008
1912.000000	0.204752
1913.000000	0.204390
1914.000000	0.204313
1915.000000	0.203681
1916.000000	0.203090
1917.000000	0.202914
1918.000000	0.203256
1919.000000	0.203439
1920.000000	0.203246
1921.000000	0.203206
1922.000000	0.203199
1923.000000	0.202630
1924.000000	0.202713
1925.000000	0.203775
1926.000000	0.204140
1927.000000	0.204545
1928.000000	0.205172
1929.000000	0.206069
1930.000000	0.206360
1931.000000	0.206984
1932.000000	0.207977
1933.000000	0.208701
1934.000000	0.209089
1935.000000	0.209467
1936.000000	0.210328
1937.000000	0.210901
1938.000000	0.211458
1939.000000	0.211907
1940.000000	0.212433
1941.000000	0.212146
1942.000000	0.212429
1943.000000	0.212541
1944.000000	0.212568
1945.000000	0.212856
1946.000000	0.212951
1947.000000	0.213337
1948.000000	0.212941
1949.000000	0.213293
1950.000000	0.213956
1951.000000	0.214080
1952.000000	0.213878
1953.000000	0.214537
1954.000000	0.214568
1955.000000	0.213849
1956.000000	0.213568
1957.000000	0.213469
1958.000000	0.213193
1959.000000	0.213204
1960.000000	0.213023
1961.000000	0.212663
1962.000000	0.212507
1963.000000	0.212264
1964.000000	0.212571
1965.000000	0.213185
1966.000000	0.213742
1967.000000	0.215009
1968.000000	0.215727
1969.000000	0.216206
1970.000000	0.216917
1971.000000	0.217285
1972.000000	0.218106
1973.000000	0.218507
1974.000000	0.218635
1975.000000	0.219299
1976.000000	0.220275
1977.000000	0.220574
1978.000000	0.221442
1979.000000	0.222413
1980.000000	0.222818
1981.000000	0.223710
1982.000000	0.224517
1983.000000	0.225242
1984.000000	0.225810
1985.000000	0.226151
1986.000000	0.226484
1987.000000	0.226645
1988.000000	0.227180
1989.000000	0.227933
1990.000000	0.228837
1991.000000	0.229864
1992.000000	0.230959
1993.000000	0.232292
1994.000000	0.233692
1995.000000	0.234975
1996.000000	0.236247
1997.000000	0.237185
1998.000000	0.237512
1999.000000	0.238464
2000.000000	0.239562
2001.000000	0.240598
2002.000000	0.241991
2003.000000	0.242666
2004.000000	0.243477
2005.000000	0.244368
2006.000000	0.244857
2007.000000	0.246184
2008.000000	0.247508
2009.000000	0.248650
2010.000000	0.250173
2011.000000	0.252196
2012.000000	0.253783
2013.000000	0.255208
2014.000000	0.256756
2015.000000	0.258194
2016.000000	0.260101
2017.000000	0.261811
2018.000000	0.263533
2019.000000	0.264864
2020.000000	0.265927
2021.000000	0.267094
2022.000000	0.268091
2023.000000	0.268896
2024.000000	0.269440
2025.000000	0.270421
2026.000000	0.271146
2027.000000	0.272514
2028.000000	0.273811
2029.000000	0.275115
2030.000000	0.275773
2031.000000	0.275921
2032.000000	0.276721
2033.000000	0.277693
2034.000000	0.278701
2035.000000	0.280218
2036.000000	0.281483
2037.000000	0.282834
2038.000000	0.284137
2039.000000	0.285676
2040.000000	0.286687
2041.000000	0.288154
2042.000000	0.289553
2043.000000	0.290411
2044.000000	0.291970
2045.000000	0.293040
2046.000000	0.293318
2047.000000	0.294363
2048.000000	0.295834
2049.000000	0.297086
2050.000000	0.298317
2051.000000	0.299427
2052.000000	0.300186
2053.000000	0.300819
2054.000000	0.301750
2055.000000	0.302261
2056.000000	0.302600
2057.000000	0.303036
2058.000000	0.303686
2059.000000	0.304950
2060.000000	0.306292
2061.000000	0.308570
2062.000000	0.309730
2063.000000	0.310640
2064.000000	0.311137
2065.000000	0.310846
2066.000000	0.311055
2067.000000	0.311579
2068.000000	0.312318
2069.000000	0.312910
2070.000000	0.313928
2071.000000	0.314438
2072.000000	0.315058
2073.000000	0.316192
2074.000000	0.317140
2075.000000	0.318116
2076.000000	0.319429
2077.000000	0.320285
2078.000000	0.320818
2079.000000	0.321335
2080.000000	0.321483
2081.000000	0.322066
2082.000000	0.322746
2083.000000	0.323630
2084.000000	0.324595
2085.000000	0.326216
2086.000000	0.327193
2087.000000	0.327877
2088.000000	0.328972
2089.000000	0.329925
2090.000000	0.331092
2091.000000	0.332814
2092.000000	0.334133
2093.000000	0.335644
2094.000000	0.336508
2095.000000	0.337082
2096.000000	0.337394
2097.000000	0.336979
2098.000000	0.336447
2099.000000	0.336523
2100.000000	0.337317
2101.000000	0.338652
2102.000000	0.339681
2103.000000	0.340852
2104.000000	0.341609
2105.000000	0.342430
2106.000000	0.343158
2107.000000	0.344201
2108.000000	0.345508
2109.000000	0.346420
2110.000000	0.347048
2111.000000	0.347677
2112.000000	0.348123
2113.000000	0.347898
2114.000000	0.347809
2115.000000	0.348371
2116.000000	0.348416
2117.000000	0.348301
2118.000000	0.348988
2119.000000	0.349792
2120.000000	0.350599
2121.000000	0.351946
2122.000000	0.352599
2123.000000	0.352816
2124.000000	0.353139
2125.000000	0.352883
2126.000000	0.353329
2127.000000	0.354494
2128.000000	0.355343
2129.000000	0.356178
2130.000000	0.357217
2131.000000	0.357834
2132.000000	0.357403
2133.000000	0.357377
2134.000000	0.357731
2135.000000	0.357838
2136.000000	0.358776
2137.000000	0.359469
2138.000000	0.360715
2139.000000	0.360895
2140.000000	0.360456
2141.000000	0.360292
2142.000000	0.359451
2143.000000	0.359016
2144.000000	0.358871
2145.000000	0.359181
2146.000000	0.359983
2147.000000	0.361081
2148.000000	0.362213
2149.000000	0.363460
2150.000000	0.363493
2151.000000	0.363350
2152.000000	0.362131
2153.000000	0.361259
2154.000000	0.360693
2155.000000	0.359889
2156.000000	0.359699
2157.000000	0.359967
2158.000000	0.360540
2159.000000	0.362156
2160.000000	0.363253
2161.000000	0.364909
2162.000000	0.365810
2163.000000	0.365662
2164.000000	0.365376
2165.000000	0.364510
2166.000000	0.363697
2167.000000	0.363496
2168.000000	0.364069
2169.000000	0.364631
2170.000000	0.365908
2171.000000	0.365964
2172.000000	0.364916
2173.000000	0.364817
2174.000000	0.364507
2175.000000	0.364470
2176.000000	0.365332
2177.000000	0.365626
2178.000000	0.365976
2179.000000	0.365920
2180.000000	0.365207
2181.000000	0.365145
2182.000000	0.364677
2183.000000	0.363202
2184.000000	0.363199
2185.000000	0.363850
2186.000000	0.364094
2187.000000	0.365174
2188.000000	0.365925
2189.000000	0.365276
2190.000000	0.365040
2191.000000	0.365105
2192.000000	0.364921
2193.000000	0.365166
2194.000000	0.364454
2195.000000	0.362404
2196.000000	0.361509
2197.000000	0.359596
2198.000000	0.359577
2199.000000	0.363199
2200.000000	0.364534
2201.000000	0.366466
2202.000000	0.366158
2203.000000	0.362778
2204.000000	0.358896
2205.000000	0.355528
2206.000000	0.355009
2207.000000	0.355800
2208.000000	0.356082
2209.000000	0.356182
2210.000000	0.354335
2211.000000	0.353619
2212.000000	0.355387
2213.000000	0.357793
2214.000000	0.364365
2215.000000	0.365652
2216.000000	0.365627
2217.000000	0.364641
2218.000000	0.358005
2219.000000	0.356306
2220.000000	0.357291
2221.000000	0.357160
2222.000000	0.358944
2223.000000	0.359135
2224.000000	0.356901
2225.000000	0.357965
2226.000000	0.357577
2227.000000	0.358443
2228.000000	0.360654
2229.000000	0.360162
2230.000000	0.360410
2231.000000	0.361104
2232.000000	0.361352
2233.000000	0.360706
2234.000000	0.361298
2235.000000	0.362207
2236.000000	0.361416
2237.000000	0.359848
2238.000000	0.359800
2239.000000	0.358338
2240.000000	0.358279
2241.000000	0.361400
2242.000000	0.361632
2243.000000	0.359886
2244.000000	0.359640
2245.000000	0.358904
2246.000000	0.358189
2247.000000	0.358659
2248.000000	0.357935
2249.000000	0.355711
2250.000000	0.355523
2251.000000	0.354204
2252.000000	0.352498
2253.000000	0.352916
2254.000000	0.353188
2255.000000	0.353277
2256.000000	0.353946
2257.000000	0.354989
2258.000000	0.354605
2259.000000	0.352575
2260.000000	0.353212
2261.000000	0.351717
2262.000000	0.348099
2263.000000	0.345843
2264.000000	0.343250
2265.000000	0.341404
2266.000000	0.339653
2267.000000	0.339372
2268.000000	0.340887
2269.000000	0.341436
2270.000000	0.343456
2271.000000	0.343529
2272.000000	0.341967
2273.000000	0.341086
2274.000000	0.339275
2275.000000	0.337507
2276.000000	0.337092
2277.000000	0.333482
2278.000000	0.330127
2279.000000	0.328579
2280.000000	0.326121
2281.000000	0.325802
2282.000000	0.322503
2283.000000	0.317832
2284.000000	0.314761
2285.000000	0.310415
2286.000000	0.309623
2287.000000	0.310128
2288.000000	0.307224
2289.000000	0.303702
2290.000000	0.301276
2291.000000	0.299106
2292.000000	0.299275
2293.000000	0.300883
2294.000000	0.300321
2295.000000	0.298769
2296.000000	0.297201
2297.000000	0.293968
2298.000000	0.291796
2299.000000	0.290815
2300.000000	0.288613
2301.000000	0.285646
2302.000000	0.283404
2303.000000	0.280780
2304.000000	0.278009
2305.000000	0.275482
2306.000000	0.272606
2307.000000	0.268633
2308.000000	0.267116
2309.000000	0.264399
2310.000000	0.262017
2311.000000	0.260691
2312.000000	0.257349
2313.000000	0.255356
2314.000000	0.256792
2315.000000	0.259291
2316.000000	0.261740
2317.000000	0.264334
2318.000000	0.265697
2319.000000	0.266644
2320.000000	0.268505
2321.000000	0.271119
2322.000000	0.274604
2323.000000	0.276371
2324.000000	0.277413
2325.000000	0.278400
2326.000000	0.277508
2327.000000	0.275745
2328.000000	0.274815
2329.000000	0.277009
2330.000000	0.279101
2331.000000	0.281733
2332.000000	0.283691
2333.000000	0.282544
2334.000000	0.282656
2335.000000	0.281850
2336.000000	0.280782
2337.000000	0.279656
2338.000000	0.276271
2339.000000	0.273867
2340.000000	0.272675
2341.000000	0.271418
2342.000000	0.270203
2343.000000	0.270459
2344.000000	0.271707
2345.000000	0.272223
2346.000000	0.273758
2347.000000	0.273483
2348.000000	0.272049
2349.000000	0.270876
2350.000000	0.268018
2351.000000	0.267133
2352.000000	0.268346
2353.000000	0.267125
2354.000000	0.264937
2355.000000	0.264839
2356.000000	0.263332
2357.000000	0.261315
2358.000000	0.262221
2359.000000	0.261054
2360.000000	0.257593
2361.000000	0.255827
2362.000000	0.255098
2363.000000	0.253795
2364.000000	0.251268
2365.000000	0.250653
2366.000000	0.248626
2367.000000	0.245673
2368.000000	0.246910
2369.000000	0.246277
2370.000000	0.244050
2371.000000	0.242815
2372.000000	0.240520
2373.000000	0.239038
2374.000000	0.238696
2375.000000	0.239986
2376.000000	0.239540
2377.000000	0.236798
2378.000000	0.237241
2379.000000	0.238751
2380.000000	0.241211
2381.000000	0.244168
2382.000000	0.237617
2383.000000	0.229247
2384.000000	0.220769
2385.000000	0.211773
2386.000000	0.213352
2387.000000	0.216663
2388.000000	0.221139
2389.000000	0.224889
2390.000000	0.223555
2391.000000	0.220589
2392.000000	0.217500
2393.000000	0.221701
2394.000000	0.223454
2395.000000	0.221697
2396.000000	0.223039
2397.000000	0.216506
2398.000000	0.211776
2399.000000	0.212515
2400.000000	0.210952
2401.000000	0.213926
2402.000000	0.214640
2403.000000	0.217362
2404.000000	0.218488
2405.000000	0.208613
2406.000000	0.206348
2407.000000	0.202059
2408.000000	0.200086
2409.000000	0.205372
2410.000000	0.201206
2411.000000	0.205712
2412.000000	0.205399
2413.000000	0.199945
2414.000000	0.203233
2415.000000	0.193914
2416.000000	0.187216
2417.000000	0.188197
2418.000000	0.186019
2419.000000	0.191232
2420.000000	0.199037
2421.000000	0.202002
2422.000000	0.205846
2423.000000	0.206092
2424.000000	0.199179
2425.000000	0.197241
2426.000000	0.198203
2427.000000	0.197197
2428.000000	0.206341
2429.000000	0.215501
2430.000000	0.218100
2431.000000	0.225654
2432.000000	0.230216
2433.000000	0.226468
2434.000000	0.218288
2435.000000	0.203445
2436.000000	0.193092
2437.000000	0.192335
2438.000000	0.194437
2439.000000	0.196038
2440.000000	0.189765
2441.000000	0.172834
2442.000000	0.166606
2443.000000	0.173343
2444.000000	0.173182
2445.000000	0.185276
2446.000000	0.185130
2447.000000	0.166771
2448.000000	0.161161
2449.000000	0.146027
2450.000000	0.142300
2451.000000	0.152474
2452.000000	0.161156
2453.000000	0.181247
2454.000000	0.191554
2455.000000	0.194064
2456.000000	0.198468
2457.000000	0.192422
2458.000000	0.194944
2459.000000	0.198933
2460.000000	0.192707
2461.000000	0.190452
2462.000000	0.165318
2463.000000	0.141649
2464.000000	0.132781
2465.000000	0.120878
2466.000000	0.139596
2467.000000	0.161571
2468.000000	0.165576
2469.000000	0.175250
2470.000000	0.176316
2471.000000	0.161832
2472.000000	0.159532
2473.000000	0.171050
2474.000000	0.154648
2475.000000	0.156080
2476.000000	0.160402
2477.000000	0.140866
2478.000000	0.160970
2479.000000	0.148605
2480.000000	0.120299
2481.000000	0.118868
2482.000000	0.079770
2483.000000	0.072925
2484.000000	0.101758
2485.000000	0.104559
2486.000000	0.118669
2487.000000	0.147023
2488.000000	0.154738
2489.000000	0.167054
2490.000000	0.152466
2491.000000	0.104433
2492.000000	0.088603
2493.000000	0.095622
2494.000000	0.103779
2495.000000	0.126918
2496.000000	0.132480
2497.000000	0.114872
2498.000000	0.107656
2499.000000	0.124674
2500.000000	0.138503
