# Wavelength	SM1200H-40_HEX-40_FV7-20_00002.asd.rts.txt
350.000000	0.299678
351.000000	0.338140
352.000000	0.362469
353.000000	0.359478
354.000000	0.341263
355.000000	0.344915
356.000000	0.347771
357.000000	0.343640
358.000000	0.329974
359.000000	0.334026
360.000000	0.341536
361.000000	0.332767
362.000000	0.332545
363.000000	0.336616
364.000000	0.339542
365.000000	0.342934
366.000000	0.339835
367.000000	0.333530
368.000000	0.337282
369.000000	0.340443
370.000000	0.341394
371.000000	0.341029
372.000000	0.338394
373.000000	0.337749
374.000000	0.340945
375.000000	0.339596
376.000000	0.338884
377.000000	0.341400
378.000000	0.348690
379.000000	0.346316
380.000000	0.340922
381.000000	0.345475
382.000000	0.350004
383.000000	0.350923
384.000000	0.348224
385.000000	0.346491
386.000000	0.348249
387.000000	0.351870
388.000000	0.350602
389.000000	0.348214
390.000000	0.347283
391.000000	0.349272
392.000000	0.351698
393.000000	0.352478
394.000000	0.351287
395.000000	0.352817
396.000000	0.353514
397.000000	0.352680
398.000000	0.353631
399.000000	0.354374
400.000000	0.355185
401.000000	0.356846
402.000000	0.357020
403.000000	0.356531
404.000000	0.356615
405.000000	0.356612
406.000000	0.356819
407.000000	0.357309
408.000000	0.357471
409.000000	0.358105
410.000000	0.359131
411.000000	0.359915
412.000000	0.360138
413.000000	0.360135
414.000000	0.360402
415.000000	0.361113
416.000000	0.361734
417.000000	0.361942
418.000000	0.361844
419.000000	0.362092
420.000000	0.362597
421.000000	0.362591
422.000000	0.363277
423.000000	0.364240
424.000000	0.364775
425.000000	0.365373
426.000000	0.365815
427.000000	0.365884
428.000000	0.365609
429.000000	0.365620
430.000000	0.366194
431.000000	0.367288
432.000000	0.367542
433.000000	0.367352
434.000000	0.368039
435.000000	0.367914
436.000000	0.367778
437.000000	0.368369
438.000000	0.367986
439.000000	0.368068
440.000000	0.369103
441.000000	0.368948
442.000000	0.368987
443.000000	0.369370
444.000000	0.369720
445.000000	0.370074
446.000000	0.370432
447.000000	0.370578
448.000000	0.371031
449.000000	0.371568
450.000000	0.371928
451.000000	0.371775
452.000000	0.372218
453.000000	0.373105
454.000000	0.373132
455.000000	0.373304
456.000000	0.373760
457.000000	0.374058
458.000000	0.374412
459.000000	0.374729
460.000000	0.374980
461.000000	0.375188
462.000000	0.375510
463.000000	0.375782
464.000000	0.376058
465.000000	0.376220
466.000000	0.376375
467.000000	0.376983
468.000000	0.377178
469.000000	0.377078
470.000000	0.377257
471.000000	0.377388
472.000000	0.377543
473.000000	0.377800
474.000000	0.377987
475.000000	0.378117
476.000000	0.378414
477.000000	0.378846
478.000000	0.378885
479.000000	0.379002
480.000000	0.379490
481.000000	0.379581
482.000000	0.379699
483.000000	0.379995
484.000000	0.380528
485.000000	0.380726
486.000000	0.380724
487.000000	0.381087
488.000000	0.381419
489.000000	0.381676
490.000000	0.381983
491.000000	0.382283
492.000000	0.382681
493.000000	0.383078
494.000000	0.383338
495.000000	0.383600
496.000000	0.383917
497.000000	0.384323
498.000000	0.384619
499.000000	0.384872
500.000000	0.385179
501.000000	0.385456
502.000000	0.385754
503.000000	0.386051
504.000000	0.386380
505.000000	0.386604
506.000000	0.386655
507.000000	0.386818
508.000000	0.387154
509.000000	0.387577
510.000000	0.387971
511.000000	0.388308
512.000000	0.388627
513.000000	0.388954
514.000000	0.389244
515.000000	0.389558
516.000000	0.389878
517.000000	0.390170
518.000000	0.390507
519.000000	0.390817
520.000000	0.391088
521.000000	0.391430
522.000000	0.391864
523.000000	0.392263
524.000000	0.392576
525.000000	0.392837
526.000000	0.393200
527.000000	0.393546
528.000000	0.393711
529.000000	0.393708
530.000000	0.394058
531.000000	0.394481
532.000000	0.394671
533.000000	0.394896
534.000000	0.395207
535.000000	0.395590
536.000000	0.396034
537.000000	0.396313
538.000000	0.396541
539.000000	0.396933
540.000000	0.397294
541.000000	0.397562
542.000000	0.397776
543.000000	0.397976
544.000000	0.398279
545.000000	0.398617
546.000000	0.398935
547.000000	0.399160
548.000000	0.399422
549.000000	0.399871
550.000000	0.400231
551.000000	0.400567
552.000000	0.400938
553.000000	0.401252
554.000000	0.401535
555.000000	0.401828
556.000000	0.402148
557.000000	0.402380
558.000000	0.402700
559.000000	0.403149
560.000000	0.403435
561.000000	0.403690
562.000000	0.404031
563.000000	0.404340
564.000000	0.404686
565.000000	0.404992
566.000000	0.405251
567.000000	0.405564
568.000000	0.405943
569.000000	0.406328
570.000000	0.406676
571.000000	0.406986
572.000000	0.407330
573.000000	0.407672
574.000000	0.407972
575.000000	0.408273
576.000000	0.408593
577.000000	0.408847
578.000000	0.409078
579.000000	0.409375
580.000000	0.409673
581.000000	0.409949
582.000000	0.410254
583.000000	0.410598
584.000000	0.410951
585.000000	0.411262
586.000000	0.411563
587.000000	0.411846
588.000000	0.412096
589.000000	0.412299
590.000000	0.412497
591.000000	0.412729
592.000000	0.413029
593.000000	0.413304
594.000000	0.413541
595.000000	0.413822
596.000000	0.414100
597.000000	0.414400
598.000000	0.414633
599.000000	0.414848
600.000000	0.415116
601.000000	0.415376
602.000000	0.415679
603.000000	0.415884
604.000000	0.415979
605.000000	0.416124
606.000000	0.416297
607.000000	0.416468
608.000000	0.416584
609.000000	0.416723
610.000000	0.416892
611.000000	0.417069
612.000000	0.417180
613.000000	0.417305
614.000000	0.417533
615.000000	0.417756
616.000000	0.417916
617.000000	0.417991
618.000000	0.418140
619.000000	0.418319
620.000000	0.418458
621.000000	0.418566
622.000000	0.418709
623.000000	0.418879
624.000000	0.419058
625.000000	0.419266
626.000000	0.419445
627.000000	0.419602
628.000000	0.419840
629.000000	0.420112
630.000000	0.420257
631.000000	0.420453
632.000000	0.420604
633.000000	0.420710
634.000000	0.420780
635.000000	0.420915
636.000000	0.421071
637.000000	0.421195
638.000000	0.421323
639.000000	0.421418
640.000000	0.421543
641.000000	0.421617
642.000000	0.421762
643.000000	0.421939
644.000000	0.422069
645.000000	0.422219
646.000000	0.422376
647.000000	0.422499
648.000000	0.422665
649.000000	0.422833
650.000000	0.422955
651.000000	0.423051
652.000000	0.423151
653.000000	0.423304
654.000000	0.423440
655.000000	0.423594
656.000000	0.423771
657.000000	0.423903
658.000000	0.424088
659.000000	0.424294
660.000000	0.424469
661.000000	0.424603
662.000000	0.424688
663.000000	0.424819
664.000000	0.425003
665.000000	0.425151
666.000000	0.425316
667.000000	0.425513
668.000000	0.425644
669.000000	0.425760
670.000000	0.425918
671.000000	0.426147
672.000000	0.426405
673.000000	0.426638
674.000000	0.426808
675.000000	0.426929
676.000000	0.427034
677.000000	0.427173
678.000000	0.427284
679.000000	0.427448
680.000000	0.427698
681.000000	0.427838
682.000000	0.428028
683.000000	0.428207
684.000000	0.428421
685.000000	0.428541
686.000000	0.428648
687.000000	0.428806
688.000000	0.428987
689.000000	0.429138
690.000000	0.429272
691.000000	0.429388
692.000000	0.429488
693.000000	0.429652
694.000000	0.429808
695.000000	0.429959
696.000000	0.430107
697.000000	0.430263
698.000000	0.430471
699.000000	0.430668
700.000000	0.430817
701.000000	0.430971
702.000000	0.431158
703.000000	0.431329
704.000000	0.431398
705.000000	0.431490
706.000000	0.431607
707.000000	0.431821
708.000000	0.431976
709.000000	0.432090
710.000000	0.432220
711.000000	0.432304
712.000000	0.432416
713.000000	0.432590
714.000000	0.432705
715.000000	0.432892
716.000000	0.433119
717.000000	0.433254
718.000000	0.433379
719.000000	0.433467
720.000000	0.433527
721.000000	0.433672
722.000000	0.433787
723.000000	0.433912
724.000000	0.434043
725.000000	0.434094
726.000000	0.434193
727.000000	0.434314
728.000000	0.434378
729.000000	0.434503
730.000000	0.434689
731.000000	0.434804
732.000000	0.434933
733.000000	0.435136
734.000000	0.435275
735.000000	0.435306
736.000000	0.435434
737.000000	0.435585
738.000000	0.435620
739.000000	0.435668
740.000000	0.435626
741.000000	0.435694
742.000000	0.435827
743.000000	0.435942
744.000000	0.436023
745.000000	0.436096
746.000000	0.436196
747.000000	0.436231
748.000000	0.436410
749.000000	0.436598
750.000000	0.436657
751.000000	0.436709
752.000000	0.436819
753.000000	0.436964
754.000000	0.437001
755.000000	0.437085
756.000000	0.437161
757.000000	0.437095
758.000000	0.437118
759.000000	0.437207
760.000000	0.437248
761.000000	0.437375
762.000000	0.437509
763.000000	0.437605
764.000000	0.437746
765.000000	0.437798
766.000000	0.437807
767.000000	0.437853
768.000000	0.438028
769.000000	0.438141
770.000000	0.438150
771.000000	0.438221
772.000000	0.438337
773.000000	0.438413
774.000000	0.438520
775.000000	0.438617
776.000000	0.438650
777.000000	0.438595
778.000000	0.438637
779.000000	0.438697
780.000000	0.438739
781.000000	0.438722
782.000000	0.438719
783.000000	0.438809
784.000000	0.438809
785.000000	0.438812
786.000000	0.438836
787.000000	0.438868
788.000000	0.438860
789.000000	0.438917
790.000000	0.439004
791.000000	0.439076
792.000000	0.439060
793.000000	0.439054
794.000000	0.439117
795.000000	0.439023
796.000000	0.438917
797.000000	0.438875
798.000000	0.438919
799.000000	0.438953
800.000000	0.438980
801.000000	0.439022
802.000000	0.438986
803.000000	0.438984
804.000000	0.439093
805.000000	0.439102
806.000000	0.439109
807.000000	0.439182
808.000000	0.439170
809.000000	0.439201
810.000000	0.439265
811.000000	0.439312
812.000000	0.439310
813.000000	0.439291
814.000000	0.439288
815.000000	0.439365
816.000000	0.439448
817.000000	0.439469
818.000000	0.439290
819.000000	0.439168
820.000000	0.439225
821.000000	0.439333
822.000000	0.439224
823.000000	0.439218
824.000000	0.439237
825.000000	0.439244
826.000000	0.439236
827.000000	0.439184
828.000000	0.439129
829.000000	0.439033
830.000000	0.438931
831.000000	0.438912
832.000000	0.438848
833.000000	0.438786
834.000000	0.438711
835.000000	0.438666
836.000000	0.438685
837.000000	0.438630
838.000000	0.438512
839.000000	0.438400
840.000000	0.438437
841.000000	0.438506
842.000000	0.438435
843.000000	0.438429
844.000000	0.438366
845.000000	0.438236
846.000000	0.438264
847.000000	0.438396
848.000000	0.438453
849.000000	0.438335
850.000000	0.438237
851.000000	0.438172
852.000000	0.438184
853.000000	0.438226
854.000000	0.438093
855.000000	0.438016
856.000000	0.438038
857.000000	0.437928
858.000000	0.437888
859.000000	0.437845
860.000000	0.437562
861.000000	0.437374
862.000000	0.437348
863.000000	0.437320
864.000000	0.437215
865.000000	0.437088
866.000000	0.437014
867.000000	0.436963
868.000000	0.436901
869.000000	0.436787
870.000000	0.436727
871.000000	0.436548
872.000000	0.436354
873.000000	0.436154
874.000000	0.436032
875.000000	0.435953
876.000000	0.435859
877.000000	0.435605
878.000000	0.435343
879.000000	0.435217
880.000000	0.435082
881.000000	0.434982
882.000000	0.434835
883.000000	0.434641
884.000000	0.434363
885.000000	0.434258
886.000000	0.434133
887.000000	0.433930
888.000000	0.433797
889.000000	0.433673
890.000000	0.433441
891.000000	0.433276
892.000000	0.433038
893.000000	0.432860
894.000000	0.432902
895.000000	0.432776
896.000000	0.432486
897.000000	0.432216
898.000000	0.432146
899.000000	0.431944
900.000000	0.431686
901.000000	0.431437
902.000000	0.431402
903.000000	0.431436
904.000000	0.431371
905.000000	0.431002
906.000000	0.430901
907.000000	0.430778
908.000000	0.430608
909.000000	0.430433
910.000000	0.430160
911.000000	0.429910
912.000000	0.429788
913.000000	0.429537
914.000000	0.429279
915.000000	0.429128
916.000000	0.428949
917.000000	0.428757
918.000000	0.428598
919.000000	0.428444
920.000000	0.428160
921.000000	0.427981
922.000000	0.427835
923.000000	0.427490
924.000000	0.427270
925.000000	0.426971
926.000000	0.426582
927.000000	0.426359
928.000000	0.426119
929.000000	0.425801
930.000000	0.425437
931.000000	0.425255
932.000000	0.425043
933.000000	0.424785
934.000000	0.424548
935.000000	0.424386
936.000000	0.424320
937.000000	0.424154
938.000000	0.423691
939.000000	0.423480
940.000000	0.423369
941.000000	0.423042
942.000000	0.422755
943.000000	0.422633
944.000000	0.422469
945.000000	0.422105
946.000000	0.421562
947.000000	0.421080
948.000000	0.420797
949.000000	0.420540
950.000000	0.420405
951.000000	0.420200
952.000000	0.419672
953.000000	0.419463
954.000000	0.419405
955.000000	0.419192
956.000000	0.418999
957.000000	0.418813
958.000000	0.418549
959.000000	0.418281
960.000000	0.417995
961.000000	0.417751
962.000000	0.417569
963.000000	0.417487
964.000000	0.417204
965.000000	0.416920
966.000000	0.416663
967.000000	0.416354
968.000000	0.415932
969.000000	0.415556
970.000000	0.415567
971.000000	0.415268
972.000000	0.415025
973.000000	0.414906
974.000000	0.414774
975.000000	0.414450
976.000000	0.414245
977.000000	0.414332
978.000000	0.414203
979.000000	0.414281
980.000000	0.414154
981.000000	0.413821
982.000000	0.413507
983.000000	0.413358
984.000000	0.413205
985.000000	0.412430
986.000000	0.412200
987.000000	0.412272
988.000000	0.412109
989.000000	0.411717
990.000000	0.411769
991.000000	0.411704
992.000000	0.410995
993.000000	0.411147
994.000000	0.411255
995.000000	0.411294
996.000000	0.411332
997.000000	0.410809
998.000000	0.410517
999.000000	0.410712
1000.000000	0.410285
1001.000000	0.410266
1002.000000	0.410630
1003.000000	0.410618
1004.000000	0.410654
1005.000000	0.410868
1006.000000	0.410433
1007.000000	0.409656
1008.000000	0.409306
1009.000000	0.408195
1010.000000	0.407339
1011.000000	0.407637
1012.000000	0.407758
1013.000000	0.408199
1014.000000	0.408970
1015.000000	0.408791
1016.000000	0.408900
1017.000000	0.408748
1018.000000	0.408137
1019.000000	0.407980
1020.000000	0.408164
1021.000000	0.407721
1022.000000	0.407403
1023.000000	0.407686
1024.000000	0.407593
1025.000000	0.408538
1026.000000	0.409499
1027.000000	0.409177
1028.000000	0.409122
1029.000000	0.408857
1030.000000	0.408488
1031.000000	0.408540
1032.000000	0.408494
1033.000000	0.408160
1034.000000	0.408069
1035.000000	0.408066
1036.000000	0.408180
1037.000000	0.408590
1038.000000	0.408562
1039.000000	0.408355
1040.000000	0.408524
1041.000000	0.408692
1042.000000	0.408470
1043.000000	0.408667
1044.000000	0.408929
1045.000000	0.408960
1046.000000	0.409404
1047.000000	0.409587
1048.000000	0.409645
1049.000000	0.409684
1050.000000	0.409423
1051.000000	0.409532
1052.000000	0.409899
1053.000000	0.410112
1054.000000	0.410714
1055.000000	0.411235
1056.000000	0.412018
1057.000000	0.412179
1058.000000	0.411707
1059.000000	0.411128
1060.000000	0.411007
1061.000000	0.411073
1062.000000	0.411523
1063.000000	0.412148
1064.000000	0.412450
1065.000000	0.412000
1066.000000	0.412309
1067.000000	0.413322
1068.000000	0.413494
1069.000000	0.413224
1070.000000	0.413382
1071.000000	0.413336
1072.000000	0.413327
1073.000000	0.413745
1074.000000	0.414240
1075.000000	0.414155
1076.000000	0.414125
1077.000000	0.413966
1078.000000	0.414147
1079.000000	0.414353
1080.000000	0.414669
1081.000000	0.414919
1082.000000	0.415517
1083.000000	0.415758
1084.000000	0.415884
1085.000000	0.415958
1086.000000	0.415586
1087.000000	0.415737
1088.000000	0.416020
1089.000000	0.416241
1090.000000	0.416569
1091.000000	0.417188
1092.000000	0.417403
1093.000000	0.417476
1094.000000	0.417551
1095.000000	0.417359
1096.000000	0.417541
1097.000000	0.417887
1098.000000	0.418117
1099.000000	0.418388
1100.000000	0.418753
1101.000000	0.419054
1102.000000	0.419249
1103.000000	0.419561
1104.000000	0.419718
1105.000000	0.419385
1106.000000	0.419506
1107.000000	0.419947
1108.000000	0.420147
1109.000000	0.420677
1110.000000	0.420856
1111.000000	0.420922
1112.000000	0.420641
1113.000000	0.420652
1114.000000	0.420686
1115.000000	0.420725
1116.000000	0.420822
1117.000000	0.420942
1118.000000	0.421062
1119.000000	0.421106
1120.000000	0.421084
1121.000000	0.421220
1122.000000	0.421451
1123.000000	0.421960
1124.000000	0.422602
1125.000000	0.423007
1126.000000	0.423426
1127.000000	0.423479
1128.000000	0.423289
1129.000000	0.422638
1130.000000	0.422691
1131.000000	0.422902
1132.000000	0.422871
1133.000000	0.423201
1134.000000	0.423323
1135.000000	0.422953
1136.000000	0.422879
1137.000000	0.423045
1138.000000	0.423088
1139.000000	0.423261
1140.000000	0.423354
1141.000000	0.423236
1142.000000	0.423340
1143.000000	0.423468
1144.000000	0.423611
1145.000000	0.423752
1146.000000	0.423646
1147.000000	0.423600
1148.000000	0.423201
1149.000000	0.423144
1150.000000	0.423354
1151.000000	0.423340
1152.000000	0.423184
1153.000000	0.423169
1154.000000	0.423076
1155.000000	0.422993
1156.000000	0.423055
1157.000000	0.422997
1158.000000	0.422679
1159.000000	0.422561
1160.000000	0.422503
1161.000000	0.422443
1162.000000	0.422502
1163.000000	0.422814
1164.000000	0.422785
1165.000000	0.422728
1166.000000	0.422701
1167.000000	0.422498
1168.000000	0.422437
1169.000000	0.422496
1170.000000	0.422538
1171.000000	0.422671
1172.000000	0.422786
1173.000000	0.422878
1174.000000	0.422962
1175.000000	0.423041
1176.000000	0.423038
1177.000000	0.423055
1178.000000	0.423064
1179.000000	0.423059
1180.000000	0.422925
1181.000000	0.422706
1182.000000	0.422783
1183.000000	0.422758
1184.000000	0.422660
1185.000000	0.422677
1186.000000	0.422827
1187.000000	0.422780
1188.000000	0.422678
1189.000000	0.422551
1190.000000	0.422313
1191.000000	0.422256
1192.000000	0.422455
1193.000000	0.422677
1194.000000	0.422876
1195.000000	0.422979
1196.000000	0.422930
1197.000000	0.422898
1198.000000	0.422922
1199.000000	0.422856
1200.000000	0.422603
1201.000000	0.422537
1202.000000	0.422592
1203.000000	0.422594
1204.000000	0.422766
1205.000000	0.422908
1206.000000	0.422873
1207.000000	0.422778
1208.000000	0.422709
1209.000000	0.422662
1210.000000	0.422628
1211.000000	0.422636
1212.000000	0.422531
1213.000000	0.422348
1214.000000	0.422350
1215.000000	0.422387
1216.000000	0.422371
1217.000000	0.422493
1218.000000	0.422443
1219.000000	0.422132
1220.000000	0.422111
1221.000000	0.422391
1222.000000	0.422530
1223.000000	0.422641
1224.000000	0.422623
1225.000000	0.422410
1226.000000	0.422192
1227.000000	0.422123
1228.000000	0.422273
1229.000000	0.422250
1230.000000	0.422161
1231.000000	0.422033
1232.000000	0.421979
1233.000000	0.422033
1234.000000	0.422124
1235.000000	0.422109
1236.000000	0.421885
1237.000000	0.421924
1238.000000	0.422045
1239.000000	0.422017
1240.000000	0.421981
1241.000000	0.422111
1242.000000	0.422052
1243.000000	0.421934
1244.000000	0.422028
1245.000000	0.422203
1246.000000	0.422315
1247.000000	0.422485
1248.000000	0.422671
1249.000000	0.422763
1250.000000	0.422768
1251.000000	0.422808
1252.000000	0.422719
1253.000000	0.422531
1254.000000	0.422365
1255.000000	0.422036
1256.000000	0.421963
1257.000000	0.422092
1258.000000	0.422195
1259.000000	0.422397
1260.000000	0.422502
1261.000000	0.422356
1262.000000	0.422317
1263.000000	0.422342
1264.000000	0.422391
1265.000000	0.422357
1266.000000	0.422405
1267.000000	0.422354
1268.000000	0.422167
1269.000000	0.422107
1270.000000	0.422284
1271.000000	0.422460
1272.000000	0.422480
1273.000000	0.422368
1274.000000	0.422280
1275.000000	0.422204
1276.000000	0.422155
1277.000000	0.422153
1278.000000	0.422059
1279.000000	0.421969
1280.000000	0.421740
1281.000000	0.421647
1282.000000	0.421809
1283.000000	0.421854
1284.000000	0.421753
1285.000000	0.421749
1286.000000	0.421709
1287.000000	0.421569
1288.000000	0.421725
1289.000000	0.421772
1290.000000	0.421689
1291.000000	0.421680
1292.000000	0.421449
1293.000000	0.421195
1294.000000	0.421027
1295.000000	0.420782
1296.000000	0.420654
1297.000000	0.420603
1298.000000	0.420655
1299.000000	0.420830
1300.000000	0.420905
1301.000000	0.420951
1302.000000	0.420820
1303.000000	0.420525
1304.000000	0.420391
1305.000000	0.420442
1306.000000	0.420362
1307.000000	0.420415
1308.000000	0.420410
1309.000000	0.420292
1310.000000	0.420176
1311.000000	0.420111
1312.000000	0.419927
1313.000000	0.419793
1314.000000	0.419604
1315.000000	0.419396
1316.000000	0.419503
1317.000000	0.419538
1318.000000	0.419447
1319.000000	0.419487
1320.000000	0.419315
1321.000000	0.418958
1322.000000	0.418771
1323.000000	0.418590
1324.000000	0.418479
1325.000000	0.418406
1326.000000	0.418189
1327.000000	0.417887
1328.000000	0.417719
1329.000000	0.417467
1330.000000	0.417185
1331.000000	0.416969
1332.000000	0.416926
1333.000000	0.416745
1334.000000	0.416549
1335.000000	0.416461
1336.000000	0.416370
1337.000000	0.416161
1338.000000	0.415855
1339.000000	0.415690
1340.000000	0.415434
1341.000000	0.415203
1342.000000	0.414933
1343.000000	0.414715
1344.000000	0.414444
1345.000000	0.414011
1346.000000	0.413779
1347.000000	0.413529
1348.000000	0.413376
1349.000000	0.413157
1350.000000	0.412910
1351.000000	0.412737
1352.000000	0.412484
1353.000000	0.412178
1354.000000	0.411960
1355.000000	0.411701
1356.000000	0.411601
1357.000000	0.411451
1358.000000	0.411218
1359.000000	0.411029
1360.000000	0.410743
1361.000000	0.410368
1362.000000	0.410025
1363.000000	0.409608
1364.000000	0.409246
1365.000000	0.408919
1366.000000	0.408565
1367.000000	0.408168
1368.000000	0.407856
1369.000000	0.407661
1370.000000	0.407022
1371.000000	0.406428
1372.000000	0.405806
1373.000000	0.404985
1374.000000	0.404402
1375.000000	0.403751
1376.000000	0.402997
1377.000000	0.402180
1378.000000	0.400951
1379.000000	0.399379
1380.000000	0.397582
1381.000000	0.395329
1382.000000	0.392943
1383.000000	0.390544
1384.000000	0.387812
1385.000000	0.385148
1386.000000	0.382847
1387.000000	0.380759
1388.000000	0.379039
1389.000000	0.377799
1390.000000	0.376802
1391.000000	0.376033
1392.000000	0.375661
1393.000000	0.375327
1394.000000	0.375252
1395.000000	0.375222
1396.000000	0.375467
1397.000000	0.375278
1398.000000	0.374980
1399.000000	0.374605
1400.000000	0.373990
1401.000000	0.373290
1402.000000	0.372643
1403.000000	0.371798
1404.000000	0.370747
1405.000000	0.369539
1406.000000	0.368283
1407.000000	0.367070
1408.000000	0.365867
1409.000000	0.364811
1410.000000	0.363922
1411.000000	0.363011
1412.000000	0.362007
1413.000000	0.361028
1414.000000	0.360168
1415.000000	0.359330
1416.000000	0.358500
1417.000000	0.357894
1418.000000	0.357229
1419.000000	0.356553
1420.000000	0.355950
1421.000000	0.355355
1422.000000	0.354693
1423.000000	0.354099
1424.000000	0.353463
1425.000000	0.352931
1426.000000	0.352377
1427.000000	0.351819
1428.000000	0.351333
1429.000000	0.350802
1430.000000	0.350342
1431.000000	0.349979
1432.000000	0.349579
1433.000000	0.349314
1434.000000	0.348893
1435.000000	0.348445
1436.000000	0.348012
1437.000000	0.347511
1438.000000	0.347032
1439.000000	0.346648
1440.000000	0.346201
1441.000000	0.345712
1442.000000	0.345316
1443.000000	0.344849
1444.000000	0.344469
1445.000000	0.344147
1446.000000	0.343752
1447.000000	0.343327
1448.000000	0.342920
1449.000000	0.342619
1450.000000	0.342367
1451.000000	0.342106
1452.000000	0.341891
1453.000000	0.341623
1454.000000	0.341175
1455.000000	0.340794
1456.000000	0.340616
1457.000000	0.340442
1458.000000	0.340386
1459.000000	0.340420
1460.000000	0.340200
1461.000000	0.340002
1462.000000	0.339921
1463.000000	0.339745
1464.000000	0.339778
1465.000000	0.339844
1466.000000	0.339702
1467.000000	0.339664
1468.000000	0.339637
1469.000000	0.339661
1470.000000	0.339716
1471.000000	0.339827
1472.000000	0.340023
1473.000000	0.340300
1474.000000	0.340639
1475.000000	0.341015
1476.000000	0.341404
1477.000000	0.341848
1478.000000	0.342188
1479.000000	0.342553
1480.000000	0.343036
1481.000000	0.343481
1482.000000	0.344004
1483.000000	0.344488
1484.000000	0.345018
1485.000000	0.345380
1486.000000	0.345534
1487.000000	0.345942
1488.000000	0.346364
1489.000000	0.346879
1490.000000	0.347547
1491.000000	0.348070
1492.000000	0.348428
1493.000000	0.348906
1494.000000	0.349350
1495.000000	0.349754
1496.000000	0.350231
1497.000000	0.350690
1498.000000	0.351127
1499.000000	0.351473
1500.000000	0.351985
1501.000000	0.352389
1502.000000	0.352774
1503.000000	0.353293
1504.000000	0.353779
1505.000000	0.354259
1506.000000	0.354709
1507.000000	0.355124
1508.000000	0.355515
1509.000000	0.355790
1510.000000	0.356005
1511.000000	0.356250
1512.000000	0.356468
1513.000000	0.356680
1514.000000	0.356996
1515.000000	0.357266
1516.000000	0.357566
1517.000000	0.357791
1518.000000	0.357890
1519.000000	0.357961
1520.000000	0.358015
1521.000000	0.358138
1522.000000	0.358495
1523.000000	0.358807
1524.000000	0.358999
1525.000000	0.359206
1526.000000	0.359197
1527.000000	0.359277
1528.000000	0.359461
1529.000000	0.359545
1530.000000	0.359630
1531.000000	0.359718
1532.000000	0.359908
1533.000000	0.360111
1534.000000	0.360318
1535.000000	0.360636
1536.000000	0.360715
1537.000000	0.360786
1538.000000	0.361003
1539.000000	0.361148
1540.000000	0.361329
1541.000000	0.361644
1542.000000	0.361934
1543.000000	0.362069
1544.000000	0.362239
1545.000000	0.362392
1546.000000	0.362382
1547.000000	0.362499
1548.000000	0.362622
1549.000000	0.362623
1550.000000	0.362649
1551.000000	0.362654
1552.000000	0.362642
1553.000000	0.362696
1554.000000	0.362823
1555.000000	0.362925
1556.000000	0.363053
1557.000000	0.363158
1558.000000	0.363243
1559.000000	0.363256
1560.000000	0.363222
1561.000000	0.363156
1562.000000	0.363109
1563.000000	0.363088
1564.000000	0.363035
1565.000000	0.362979
1566.000000	0.362871
1567.000000	0.362789
1568.000000	0.362748
1569.000000	0.362853
1570.000000	0.362852
1571.000000	0.362764
1572.000000	0.362749
1573.000000	0.362731
1574.000000	0.362742
1575.000000	0.362830
1576.000000	0.362952
1577.000000	0.363117
1578.000000	0.363136
1579.000000	0.363227
1580.000000	0.363231
1581.000000	0.363098
1582.000000	0.363143
1583.000000	0.363320
1584.000000	0.363328
1585.000000	0.363385
1586.000000	0.363491
1587.000000	0.363485
1588.000000	0.363569
1589.000000	0.363858
1590.000000	0.363988
1591.000000	0.364057
1592.000000	0.364189
1593.000000	0.364404
1594.000000	0.364389
1595.000000	0.364270
1596.000000	0.364278
1597.000000	0.364252
1598.000000	0.364247
1599.000000	0.364415
1600.000000	0.364457
1601.000000	0.364519
1602.000000	0.364467
1603.000000	0.364370
1604.000000	0.364338
1605.000000	0.364233
1606.000000	0.364163
1607.000000	0.364235
1608.000000	0.364304
1609.000000	0.364398
1610.000000	0.364471
1611.000000	0.364674
1612.000000	0.364763
1613.000000	0.364838
1614.000000	0.364929
1615.000000	0.365111
1616.000000	0.365273
1617.000000	0.365357
1618.000000	0.365460
1619.000000	0.365511
1620.000000	0.365587
1621.000000	0.365755
1622.000000	0.365972
1623.000000	0.366158
1624.000000	0.366289
1625.000000	0.366248
1626.000000	0.366267
1627.000000	0.366316
1628.000000	0.366428
1629.000000	0.366591
1630.000000	0.366725
1631.000000	0.366749
1632.000000	0.366804
1633.000000	0.366868
1634.000000	0.366998
1635.000000	0.367242
1636.000000	0.367400
1637.000000	0.367565
1638.000000	0.367728
1639.000000	0.367933
1640.000000	0.368093
1641.000000	0.368342
1642.000000	0.368584
1643.000000	0.368740
1644.000000	0.369038
1645.000000	0.369535
1646.000000	0.369721
1647.000000	0.369839
1648.000000	0.370047
1649.000000	0.370269
1650.000000	0.370484
1651.000000	0.370841
1652.000000	0.371094
1653.000000	0.371141
1654.000000	0.371273
1655.000000	0.371396
1656.000000	0.371499
1657.000000	0.371691
1658.000000	0.371775
1659.000000	0.371943
1660.000000	0.372108
1661.000000	0.372034
1662.000000	0.372168
1663.000000	0.372498
1664.000000	0.372606
1665.000000	0.372609
1666.000000	0.372783
1667.000000	0.372839
1668.000000	0.372921
1669.000000	0.373123
1670.000000	0.373157
1671.000000	0.373129
1672.000000	0.373305
1673.000000	0.373498
1674.000000	0.373683
1675.000000	0.374087
1676.000000	0.374416
1677.000000	0.374651
1678.000000	0.374925
1679.000000	0.375031
1680.000000	0.374925
1681.000000	0.374922
1682.000000	0.374994
1683.000000	0.375064
1684.000000	0.375137
1685.000000	0.375288
1686.000000	0.375366
1687.000000	0.375386
1688.000000	0.375410
1689.000000	0.375395
1690.000000	0.375351
1691.000000	0.375416
1692.000000	0.375465
1693.000000	0.375575
1694.000000	0.375664
1695.000000	0.375726
1696.000000	0.375884
1697.000000	0.375920
1698.000000	0.375959
1699.000000	0.376023
1700.000000	0.375945
1701.000000	0.376090
1702.000000	0.376192
1703.000000	0.376276
1704.000000	0.376597
1705.000000	0.376786
1706.000000	0.376929
1707.000000	0.377082
1708.000000	0.377153
1709.000000	0.377174
1710.000000	0.377307
1711.000000	0.377396
1712.000000	0.377440
1713.000000	0.377510
1714.000000	0.377649
1715.000000	0.377739
1716.000000	0.377754
1717.000000	0.377920
1718.000000	0.378193
1719.000000	0.378282
1720.000000	0.378448
1721.000000	0.378548
1722.000000	0.378465
1723.000000	0.378469
1724.000000	0.378552
1725.000000	0.378673
1726.000000	0.378689
1727.000000	0.378728
1728.000000	0.378815
1729.000000	0.378740
1730.000000	0.378647
1731.000000	0.378673
1732.000000	0.378768
1733.000000	0.378838
1734.000000	0.378752
1735.000000	0.378841
1736.000000	0.378914
1737.000000	0.379001
1738.000000	0.379273
1739.000000	0.379398
1740.000000	0.379398
1741.000000	0.379389
1742.000000	0.379354
1743.000000	0.379478
1744.000000	0.379569
1745.000000	0.379698
1746.000000	0.380007
1747.000000	0.379860
1748.000000	0.379792
1749.000000	0.379663
1750.000000	0.379556
1751.000000	0.379696
1752.000000	0.379911
1753.000000	0.379982
1754.000000	0.380097
1755.000000	0.380307
1756.000000	0.380362
1757.000000	0.380278
1758.000000	0.380302
1759.000000	0.380213
1760.000000	0.380254
1761.000000	0.380520
1762.000000	0.380530
1763.000000	0.380488
1764.000000	0.380392
1765.000000	0.379913
1766.000000	0.379847
1767.000000	0.379995
1768.000000	0.379906
1769.000000	0.379984
1770.000000	0.380080
1771.000000	0.379939
1772.000000	0.379960
1773.000000	0.380188
1774.000000	0.380195
1775.000000	0.380093
1776.000000	0.380139
1777.000000	0.380152
1778.000000	0.380141
1779.000000	0.380149
1780.000000	0.380303
1781.000000	0.380454
1782.000000	0.380540
1783.000000	0.380795
1784.000000	0.380731
1785.000000	0.380775
1786.000000	0.380899
1787.000000	0.381325
1788.000000	0.381673
1789.000000	0.381706
1790.000000	0.381786
1791.000000	0.381778
1792.000000	0.381775
1793.000000	0.381789
1794.000000	0.381656
1795.000000	0.381780
1796.000000	0.382239
1797.000000	0.382376
1798.000000	0.382536
1799.000000	0.382527
1800.000000	0.382018
1801.000000	0.381310
1802.000000	0.382005
1803.000000	0.383767
1804.000000	0.384413
1805.000000	0.385950
1806.000000	0.386132
1807.000000	0.384420
1808.000000	0.383815
1809.000000	0.383325
1810.000000	0.382693
1811.000000	0.382388
1812.000000	0.382546
1813.000000	0.382663
1814.000000	0.382939
1815.000000	0.383040
1816.000000	0.383512
1817.000000	0.383335
1818.000000	0.382753
1819.000000	0.382356
1820.000000	0.381392
1821.000000	0.380655
1822.000000	0.380683
1823.000000	0.381294
1824.000000	0.381332
1825.000000	0.381782
1826.000000	0.382095
1827.000000	0.382062
1828.000000	0.381566
1829.000000	0.381937
1830.000000	0.381924
1831.000000	0.381853
1832.000000	0.381696
1833.000000	0.381479
1834.000000	0.381284
1835.000000	0.380873
1836.000000	0.380034
1837.000000	0.379409
1838.000000	0.378758
1839.000000	0.377561
1840.000000	0.376806
1841.000000	0.376711
1842.000000	0.376470
1843.000000	0.376449
1844.000000	0.376265
1845.000000	0.375571
1846.000000	0.375655
1847.000000	0.375711
1848.000000	0.376472
1849.000000	0.377748
1850.000000	0.377952
1851.000000	0.377320
1852.000000	0.375277
1853.000000	0.374597
1854.000000	0.373390
1855.000000	0.372556
1856.000000	0.372539
1857.000000	0.372131
1858.000000	0.371119
1859.000000	0.369348
1860.000000	0.367623
1861.000000	0.366891
1862.000000	0.365768
1863.000000	0.364969
1864.000000	0.363886
1865.000000	0.362542
1866.000000	0.361019
1867.000000	0.359128
1868.000000	0.357559
1869.000000	0.355777
1870.000000	0.354139
1871.000000	0.352005
1872.000000	0.349250
1873.000000	0.346679
1874.000000	0.343862
1875.000000	0.340966
1876.000000	0.337584
1877.000000	0.334612
1878.000000	0.331588
1879.000000	0.327992
1880.000000	0.324404
1881.000000	0.320541
1882.000000	0.315789
1883.000000	0.311090
1884.000000	0.306856
1885.000000	0.302673
1886.000000	0.298162
1887.000000	0.293745
1888.000000	0.289377
1889.000000	0.284263
1890.000000	0.279222
1891.000000	0.274027
1892.000000	0.268413
1893.000000	0.263185
1894.000000	0.258647
1895.000000	0.254115
1896.000000	0.249988
1897.000000	0.246370
1898.000000	0.242959
1899.000000	0.238832
1900.000000	0.234928
1901.000000	0.231549
1902.000000	0.227569
1903.000000	0.224382
1904.000000	0.221702
1905.000000	0.219036
1906.000000	0.216747
1907.000000	0.215153
1908.000000	0.213114
1909.000000	0.211177
1910.000000	0.209196
1911.000000	0.206808
1912.000000	0.204734
1913.000000	0.203150
1914.000000	0.201973
1915.000000	0.200885
1916.000000	0.200786
1917.000000	0.200321
1918.000000	0.200090
1919.000000	0.199442
1920.000000	0.199123
1921.000000	0.198388
1922.000000	0.197603
1923.000000	0.197237
1924.000000	0.196664
1925.000000	0.195978
1926.000000	0.195390
1927.000000	0.194736
1928.000000	0.194809
1929.000000	0.195448
1930.000000	0.196351
1931.000000	0.197267
1932.000000	0.198440
1933.000000	0.198784
1934.000000	0.198795
1935.000000	0.198881
1936.000000	0.199129
1937.000000	0.199833
1938.000000	0.200339
1939.000000	0.200455
1940.000000	0.200406
1941.000000	0.200200
1942.000000	0.199582
1943.000000	0.199595
1944.000000	0.199949
1945.000000	0.199625
1946.000000	0.199668
1947.000000	0.198788
1948.000000	0.197387
1949.000000	0.196821
1950.000000	0.196368
1951.000000	0.196195
1952.000000	0.196528
1953.000000	0.197020
1954.000000	0.197362
1955.000000	0.197583
1956.000000	0.197653
1957.000000	0.197678
1958.000000	0.197195
1959.000000	0.197044
1960.000000	0.196762
1961.000000	0.195648
1962.000000	0.195153
1963.000000	0.195163
1964.000000	0.194832
1965.000000	0.194372
1966.000000	0.194985
1967.000000	0.195032
1968.000000	0.195519
1969.000000	0.196427
1970.000000	0.196675
1971.000000	0.197480
1972.000000	0.197864
1973.000000	0.198044
1974.000000	0.198049
1975.000000	0.198451
1976.000000	0.198734
1977.000000	0.199262
1978.000000	0.200264
1979.000000	0.200524
1980.000000	0.200819
1981.000000	0.200995
1982.000000	0.200863
1983.000000	0.201260
1984.000000	0.202099
1985.000000	0.203790
1986.000000	0.204740
1987.000000	0.205838
1988.000000	0.206890
1989.000000	0.207503
1990.000000	0.207709
1991.000000	0.208106
1992.000000	0.208382
1993.000000	0.208291
1994.000000	0.208830
1995.000000	0.209679
1996.000000	0.210794
1997.000000	0.211760
1998.000000	0.212895
1999.000000	0.213741
2000.000000	0.214533
2001.000000	0.215046
2002.000000	0.215407
2003.000000	0.216286
2004.000000	0.216772
2005.000000	0.217377
2006.000000	0.218400
2007.000000	0.219402
2008.000000	0.220478
2009.000000	0.221842
2010.000000	0.222744
2011.000000	0.223337
2012.000000	0.224146
2013.000000	0.224656
2014.000000	0.225338
2015.000000	0.226716
2016.000000	0.228157
2017.000000	0.229680
2018.000000	0.231793
2019.000000	0.233547
2020.000000	0.234634
2021.000000	0.235662
2022.000000	0.236040
2023.000000	0.236996
2024.000000	0.237973
2025.000000	0.239220
2026.000000	0.240904
2027.000000	0.242114
2028.000000	0.243063
2029.000000	0.244297
2030.000000	0.244973
2031.000000	0.245583
2032.000000	0.246686
2033.000000	0.247281
2034.000000	0.248138
2035.000000	0.249237
2036.000000	0.250403
2037.000000	0.251984
2038.000000	0.253233
2039.000000	0.254696
2040.000000	0.255540
2041.000000	0.256350
2042.000000	0.257087
2043.000000	0.257836
2044.000000	0.258508
2045.000000	0.258910
2046.000000	0.259105
2047.000000	0.259443
2048.000000	0.259377
2049.000000	0.260197
2050.000000	0.261435
2051.000000	0.262118
2052.000000	0.262996
2053.000000	0.263883
2054.000000	0.264579
2055.000000	0.265073
2056.000000	0.267133
2057.000000	0.267851
2058.000000	0.268522
2059.000000	0.270119
2060.000000	0.271087
2061.000000	0.271907
2062.000000	0.272491
2063.000000	0.272749
2064.000000	0.272978
2065.000000	0.273204
2066.000000	0.273380
2067.000000	0.273754
2068.000000	0.274088
2069.000000	0.274631
2070.000000	0.275432
2071.000000	0.276196
2072.000000	0.277680
2073.000000	0.279038
2074.000000	0.279256
2075.000000	0.279815
2076.000000	0.280047
2077.000000	0.280706
2078.000000	0.281370
2079.000000	0.282317
2080.000000	0.284125
2081.000000	0.285219
2082.000000	0.286134
2083.000000	0.286927
2084.000000	0.287242
2085.000000	0.286610
2086.000000	0.287149
2087.000000	0.288246
2088.000000	0.289375
2089.000000	0.291221
2090.000000	0.292159
2091.000000	0.292274
2092.000000	0.293029
2093.000000	0.293906
2094.000000	0.294521
2095.000000	0.295376
2096.000000	0.295964
2097.000000	0.296142
2098.000000	0.296147
2099.000000	0.296354
2100.000000	0.297373
2101.000000	0.298504
2102.000000	0.299744
2103.000000	0.300898
2104.000000	0.301185
2105.000000	0.301481
2106.000000	0.300961
2107.000000	0.301236
2108.000000	0.301874
2109.000000	0.302316
2110.000000	0.302747
2111.000000	0.303362
2112.000000	0.304123
2113.000000	0.304035
2114.000000	0.304293
2115.000000	0.304484
2116.000000	0.303980
2117.000000	0.304109
2118.000000	0.304659
2119.000000	0.305322
2120.000000	0.305785
2121.000000	0.306237
2122.000000	0.306522
2123.000000	0.306401
2124.000000	0.306707
2125.000000	0.307222
2126.000000	0.307972
2127.000000	0.309553
2128.000000	0.310254
2129.000000	0.310648
2130.000000	0.310667
2131.000000	0.309982
2132.000000	0.309602
2133.000000	0.310442
2134.000000	0.310935
2135.000000	0.311202
2136.000000	0.311821
2137.000000	0.312086
2138.000000	0.311896
2139.000000	0.312114
2140.000000	0.312374
2141.000000	0.312712
2142.000000	0.313113
2143.000000	0.313047
2144.000000	0.313410
2145.000000	0.313428
2146.000000	0.312604
2147.000000	0.313114
2148.000000	0.313472
2149.000000	0.313474
2150.000000	0.313989
2151.000000	0.314100
2152.000000	0.314379
2153.000000	0.314629
2154.000000	0.315005
2155.000000	0.315871
2156.000000	0.316070
2157.000000	0.316300
2158.000000	0.316105
2159.000000	0.314941
2160.000000	0.314808
2161.000000	0.314630
2162.000000	0.314795
2163.000000	0.315818
2164.000000	0.316338
2165.000000	0.316551
2166.000000	0.317392
2167.000000	0.317639
2168.000000	0.318023
2169.000000	0.318296
2170.000000	0.317506
2171.000000	0.317122
2172.000000	0.316730
2173.000000	0.316106
2174.000000	0.315069
2175.000000	0.314825
2176.000000	0.314234
2177.000000	0.314702
2178.000000	0.316584
2179.000000	0.317968
2180.000000	0.320760
2181.000000	0.321715
2182.000000	0.320901
2183.000000	0.319858
2184.000000	0.318890
2185.000000	0.317654
2186.000000	0.317485
2187.000000	0.318230
2188.000000	0.318436
2189.000000	0.318017
2190.000000	0.318029
2191.000000	0.319127
2192.000000	0.319375
2193.000000	0.319520
2194.000000	0.318876
2195.000000	0.317117
2196.000000	0.316386
2197.000000	0.315499
2198.000000	0.315321
2199.000000	0.317096
2200.000000	0.317122
2201.000000	0.316136
2202.000000	0.315239
2203.000000	0.313327
2204.000000	0.310748
2205.000000	0.309106
2206.000000	0.312044
2207.000000	0.315414
2208.000000	0.317921
2209.000000	0.320574
2210.000000	0.317741
2211.000000	0.314148
2212.000000	0.313424
2213.000000	0.312879
2214.000000	0.313229
2215.000000	0.313951
2216.000000	0.316544
2217.000000	0.316864
2218.000000	0.316309
2219.000000	0.316771
2220.000000	0.315507
2221.000000	0.315554
2222.000000	0.318593
2223.000000	0.318908
2224.000000	0.316923
2225.000000	0.318010
2226.000000	0.317285
2227.000000	0.314230
2228.000000	0.314158
2229.000000	0.313802
2230.000000	0.314092
2231.000000	0.315002
2232.000000	0.314132
2233.000000	0.313366
2234.000000	0.313074
2235.000000	0.311452
2236.000000	0.309634
2237.000000	0.306822
2238.000000	0.306381
2239.000000	0.305839
2240.000000	0.306724
2241.000000	0.310429
2242.000000	0.312715
2243.000000	0.315556
2244.000000	0.316873
2245.000000	0.317489
2246.000000	0.318031
2247.000000	0.316672
2248.000000	0.316137
2249.000000	0.316484
2250.000000	0.316376
2251.000000	0.315045
2252.000000	0.314034
2253.000000	0.314121
2254.000000	0.313675
2255.000000	0.314598
2256.000000	0.316921
2257.000000	0.316634
2258.000000	0.317035
2259.000000	0.316128
2260.000000	0.312919
2261.000000	0.311096
2262.000000	0.309007
2263.000000	0.307333
2264.000000	0.306141
2265.000000	0.305405
2266.000000	0.305551
2267.000000	0.305421
2268.000000	0.305419
2269.000000	0.305369
2270.000000	0.304390
2271.000000	0.303693
2272.000000	0.303662
2273.000000	0.303674
2274.000000	0.304544
2275.000000	0.304245
2276.000000	0.303368
2277.000000	0.302275
2278.000000	0.299979
2279.000000	0.298812
2280.000000	0.297430
2281.000000	0.294944
2282.000000	0.293316
2283.000000	0.289638
2284.000000	0.287388
2285.000000	0.286215
2286.000000	0.284035
2287.000000	0.284232
2288.000000	0.283077
2289.000000	0.279731
2290.000000	0.278798
2291.000000	0.278094
2292.000000	0.278639
2293.000000	0.280273
2294.000000	0.280887
2295.000000	0.282247
2296.000000	0.281085
2297.000000	0.276995
2298.000000	0.276001
2299.000000	0.274410
2300.000000	0.273286
2301.000000	0.274762
2302.000000	0.274976
2303.000000	0.275082
2304.000000	0.273205
2305.000000	0.270430
2306.000000	0.267217
2307.000000	0.261279
2308.000000	0.257692
2309.000000	0.254922
2310.000000	0.254176
2311.000000	0.254440
2312.000000	0.253391
2313.000000	0.252164
2314.000000	0.251834
2315.000000	0.251418
2316.000000	0.252803
2317.000000	0.255935
2318.000000	0.257495
2319.000000	0.259437
2320.000000	0.258797
2321.000000	0.256779
2322.000000	0.255225
2323.000000	0.255130
2324.000000	0.257990
2325.000000	0.261274
2326.000000	0.264681
2327.000000	0.265848
2328.000000	0.264595
2329.000000	0.263123
2330.000000	0.261737
2331.000000	0.260364
2332.000000	0.261074
2333.000000	0.260253
2334.000000	0.258757
2335.000000	0.259158
2336.000000	0.259622
2337.000000	0.259913
2338.000000	0.262388
2339.000000	0.263434
2340.000000	0.263640
2341.000000	0.262833
2342.000000	0.261156
2343.000000	0.259551
2344.000000	0.256758
2345.000000	0.254723
2346.000000	0.254203
2347.000000	0.252048
2348.000000	0.247670
2349.000000	0.246055
2350.000000	0.246949
2351.000000	0.245694
2352.000000	0.249342
2353.000000	0.252352
2354.000000	0.248405
2355.000000	0.246748
2356.000000	0.242822
2357.000000	0.237796
2358.000000	0.236988
2359.000000	0.236554
2360.000000	0.234535
2361.000000	0.232720
2362.000000	0.233068
2363.000000	0.232995
2364.000000	0.232616
2365.000000	0.233591
2366.000000	0.235598
2367.000000	0.235804
2368.000000	0.237139
2369.000000	0.239876
2370.000000	0.237622
2371.000000	0.234465
2372.000000	0.231025
2373.000000	0.224693
2374.000000	0.218496
2375.000000	0.210778
2376.000000	0.209234
2377.000000	0.211162
2378.000000	0.210549
2379.000000	0.217512
2380.000000	0.218185
2381.000000	0.213000
2382.000000	0.213561
2383.000000	0.214269
2384.000000	0.214155
2385.000000	0.217386
2386.000000	0.216697
2387.000000	0.209487
2388.000000	0.208505
2389.000000	0.205201
2390.000000	0.203064
2391.000000	0.208064
2392.000000	0.209750
2393.000000	0.209203
2394.000000	0.214427
2395.000000	0.216091
2396.000000	0.216566
2397.000000	0.223484
2398.000000	0.222597
2399.000000	0.217931
2400.000000	0.212571
2401.000000	0.209669
2402.000000	0.210378
2403.000000	0.213579
2404.000000	0.217605
2405.000000	0.208083
2406.000000	0.199617
2407.000000	0.202546
2408.000000	0.200634
2409.000000	0.200789
2410.000000	0.201655
2411.000000	0.197242
2412.000000	0.198982
2413.000000	0.204121
2414.000000	0.209815
2415.000000	0.213899
2416.000000	0.214092
2417.000000	0.211115
2418.000000	0.205016
2419.000000	0.199370
2420.000000	0.191605
2421.000000	0.181873
2422.000000	0.176622
2423.000000	0.170028
2424.000000	0.162515
2425.000000	0.157067
2426.000000	0.158584
2427.000000	0.172176
2428.000000	0.184108
2429.000000	0.204880
2430.000000	0.226184
2431.000000	0.227459
2432.000000	0.230884
2433.000000	0.226527
2434.000000	0.217173
2435.000000	0.219145
2436.000000	0.211684
2437.000000	0.207929
2438.000000	0.209688
2439.000000	0.197660
2440.000000	0.186076
2441.000000	0.174439
2442.000000	0.161486
2443.000000	0.166860
2444.000000	0.179546
2445.000000	0.181045
2446.000000	0.181847
2447.000000	0.176150
2448.000000	0.176691
2449.000000	0.192224
2450.000000	0.198253
2451.000000	0.200320
2452.000000	0.194622
2453.000000	0.185756
2454.000000	0.182974
2455.000000	0.178994
2456.000000	0.171863
2457.000000	0.159565
2458.000000	0.169738
2459.000000	0.183859
2460.000000	0.195192
2461.000000	0.214955
2462.000000	0.206443
2463.000000	0.196277
2464.000000	0.177842
2465.000000	0.149891
2466.000000	0.140740
2467.000000	0.125816
2468.000000	0.132346
2469.000000	0.140314
2470.000000	0.128757
2471.000000	0.126392
2472.000000	0.122816
2473.000000	0.155235
2474.000000	0.182525
2475.000000	0.186960
2476.000000	0.186873
2477.000000	0.150209
2478.000000	0.137464
2479.000000	0.153571
2480.000000	0.169821
2481.000000	0.174837
2482.000000	0.168398
2483.000000	0.141086
2484.000000	0.097080
2485.000000	0.076201
2486.000000	0.045643
2487.000000	0.053141
2488.000000	0.095159
2489.000000	0.136649
2490.000000	0.167762
2491.000000	0.143762
2492.000000	0.129574
2493.000000	0.104249
2494.000000	0.093295
2495.000000	0.093816
2496.000000	0.083205
2497.000000	0.037793
2498.000000	0.058445
2499.000000	0.140994
2500.000000	0.173420
