# Wavelength	SM1200H-30_HEX-30_FV7-40_00001.asd.rts.txt
350.000000	0.250996
351.000000	0.242436
352.000000	0.252468
353.000000	0.261006
354.000000	0.261895
355.000000	0.270827
356.000000	0.270258
357.000000	0.262060
358.000000	0.256372
359.000000	0.255981
360.000000	0.261136
361.000000	0.268826
362.000000	0.264782
363.000000	0.261759
364.000000	0.265585
365.000000	0.261974
366.000000	0.258429
367.000000	0.258556
368.000000	0.264275
369.000000	0.264328
370.000000	0.261809
371.000000	0.263192
372.000000	0.263610
373.000000	0.261831
374.000000	0.259502
375.000000	0.263062
376.000000	0.266857
377.000000	0.268475
378.000000	0.268687
379.000000	0.265343
380.000000	0.262498
381.000000	0.265974
382.000000	0.269559
383.000000	0.271322
384.000000	0.271504
385.000000	0.273232
386.000000	0.275292
387.000000	0.276377
388.000000	0.273991
389.000000	0.276135
390.000000	0.279065
391.000000	0.275716
392.000000	0.277114
393.000000	0.279194
394.000000	0.278136
395.000000	0.277438
396.000000	0.278296
397.000000	0.279935
398.000000	0.278822
399.000000	0.280098
400.000000	0.282322
401.000000	0.281354
402.000000	0.280030
403.000000	0.279939
404.000000	0.281509
405.000000	0.280560
406.000000	0.280656
407.000000	0.282781
408.000000	0.283328
409.000000	0.282772
410.000000	0.282172
411.000000	0.283055
412.000000	0.284136
413.000000	0.285000
414.000000	0.285454
415.000000	0.285038
416.000000	0.284968
417.000000	0.285788
418.000000	0.286448
419.000000	0.287296
420.000000	0.288038
421.000000	0.287783
422.000000	0.287681
423.000000	0.287929
424.000000	0.288454
425.000000	0.288648
426.000000	0.288872
427.000000	0.289361
428.000000	0.289710
429.000000	0.289802
430.000000	0.289809
431.000000	0.290342
432.000000	0.290547
433.000000	0.290583
434.000000	0.291155
435.000000	0.291586
436.000000	0.291708
437.000000	0.291574
438.000000	0.291902
439.000000	0.292151
440.000000	0.292149
441.000000	0.292023
442.000000	0.292599
443.000000	0.293423
444.000000	0.293275
445.000000	0.293432
446.000000	0.293657
447.000000	0.293306
448.000000	0.293806
449.000000	0.294422
450.000000	0.294595
451.000000	0.294756
452.000000	0.295065
453.000000	0.295457
454.000000	0.295897
455.000000	0.296011
456.000000	0.296062
457.000000	0.296358
458.000000	0.296798
459.000000	0.297137
460.000000	0.297286
461.000000	0.297548
462.000000	0.297877
463.000000	0.298080
464.000000	0.298336
465.000000	0.298556
466.000000	0.298733
467.000000	0.299070
468.000000	0.299536
469.000000	0.299873
470.000000	0.300010
471.000000	0.299981
472.000000	0.300137
473.000000	0.300573
474.000000	0.300511
475.000000	0.300376
476.000000	0.300519
477.000000	0.300842
478.000000	0.301194
479.000000	0.301608
480.000000	0.301800
481.000000	0.302059
482.000000	0.302444
483.000000	0.302700
484.000000	0.302918
485.000000	0.303060
486.000000	0.303286
487.000000	0.303420
488.000000	0.303594
489.000000	0.303914
490.000000	0.304452
491.000000	0.304741
492.000000	0.304927
493.000000	0.305148
494.000000	0.305452
495.000000	0.305716
496.000000	0.305857
497.000000	0.306177
498.000000	0.306477
499.000000	0.306749
500.000000	0.306962
501.000000	0.307163
502.000000	0.307444
503.000000	0.307806
504.000000	0.308105
505.000000	0.308335
506.000000	0.308530
507.000000	0.308697
508.000000	0.308986
509.000000	0.309401
510.000000	0.309854
511.000000	0.310090
512.000000	0.310210
513.000000	0.310552
514.000000	0.310937
515.000000	0.311328
516.000000	0.311646
517.000000	0.311889
518.000000	0.312211
519.000000	0.312598
520.000000	0.312920
521.000000	0.313169
522.000000	0.313424
523.000000	0.313919
524.000000	0.314167
525.000000	0.314262
526.000000	0.314664
527.000000	0.314994
528.000000	0.315246
529.000000	0.315545
530.000000	0.315819
531.000000	0.316118
532.000000	0.316382
533.000000	0.316688
534.000000	0.316967
535.000000	0.317180
536.000000	0.317352
537.000000	0.317666
538.000000	0.318026
539.000000	0.318218
540.000000	0.318421
541.000000	0.318688
542.000000	0.319043
543.000000	0.319262
544.000000	0.319486
545.000000	0.319712
546.000000	0.319913
547.000000	0.320270
548.000000	0.320710
549.000000	0.320862
550.000000	0.321129
551.000000	0.321480
552.000000	0.321728
553.000000	0.322021
554.000000	0.322399
555.000000	0.322851
556.000000	0.323250
557.000000	0.323501
558.000000	0.323757
559.000000	0.324062
560.000000	0.324364
561.000000	0.324732
562.000000	0.325113
563.000000	0.325443
564.000000	0.325779
565.000000	0.326072
566.000000	0.326365
567.000000	0.326701
568.000000	0.327060
569.000000	0.327388
570.000000	0.327696
571.000000	0.327998
572.000000	0.328352
573.000000	0.328560
574.000000	0.328697
575.000000	0.329001
576.000000	0.329421
577.000000	0.329754
578.000000	0.329952
579.000000	0.330222
580.000000	0.330550
581.000000	0.330911
582.000000	0.331280
583.000000	0.331616
584.000000	0.331914
585.000000	0.332200
586.000000	0.332516
587.000000	0.332791
588.000000	0.332959
589.000000	0.333169
590.000000	0.333399
591.000000	0.333642
592.000000	0.334000
593.000000	0.334293
594.000000	0.334510
595.000000	0.334831
596.000000	0.334958
597.000000	0.335056
598.000000	0.335328
599.000000	0.335515
600.000000	0.335734
601.000000	0.336008
602.000000	0.336248
603.000000	0.336401
604.000000	0.336505
605.000000	0.336728
606.000000	0.336897
607.000000	0.337028
608.000000	0.337248
609.000000	0.337480
610.000000	0.337673
611.000000	0.337797
612.000000	0.337945
613.000000	0.338099
614.000000	0.338271
615.000000	0.338380
616.000000	0.338485
617.000000	0.338607
618.000000	0.338861
619.000000	0.339101
620.000000	0.339235
621.000000	0.339278
622.000000	0.339403
623.000000	0.339515
624.000000	0.339550
625.000000	0.339769
626.000000	0.340000
627.000000	0.340140
628.000000	0.340178
629.000000	0.340377
630.000000	0.340555
631.000000	0.340610
632.000000	0.340672
633.000000	0.340825
634.000000	0.341071
635.000000	0.341173
636.000000	0.341288
637.000000	0.341482
638.000000	0.341673
639.000000	0.341828
640.000000	0.341995
641.000000	0.342100
642.000000	0.342345
643.000000	0.342608
644.000000	0.342695
645.000000	0.342705
646.000000	0.342761
647.000000	0.342902
648.000000	0.343064
649.000000	0.343266
650.000000	0.343477
651.000000	0.343660
652.000000	0.343778
653.000000	0.343899
654.000000	0.344047
655.000000	0.344226
656.000000	0.344483
657.000000	0.344761
658.000000	0.344922
659.000000	0.345009
660.000000	0.345073
661.000000	0.345234
662.000000	0.345414
663.000000	0.345619
664.000000	0.345773
665.000000	0.345879
666.000000	0.345955
667.000000	0.346004
668.000000	0.346162
669.000000	0.346266
670.000000	0.346283
671.000000	0.346470
672.000000	0.346730
673.000000	0.346971
674.000000	0.347114
675.000000	0.347258
676.000000	0.347389
677.000000	0.347500
678.000000	0.347676
679.000000	0.347869
680.000000	0.348031
681.000000	0.348088
682.000000	0.348246
683.000000	0.348441
684.000000	0.348596
685.000000	0.348699
686.000000	0.348805
687.000000	0.348931
688.000000	0.349096
689.000000	0.349257
690.000000	0.349424
691.000000	0.349626
692.000000	0.349766
693.000000	0.349909
694.000000	0.350113
695.000000	0.350295
696.000000	0.350475
697.000000	0.350706
698.000000	0.350857
699.000000	0.350998
700.000000	0.351183
701.000000	0.351239
702.000000	0.351353
703.000000	0.351556
704.000000	0.351735
705.000000	0.351908
706.000000	0.352073
707.000000	0.352326
708.000000	0.352538
709.000000	0.352650
710.000000	0.352688
711.000000	0.352793
712.000000	0.352920
713.000000	0.353047
714.000000	0.353106
715.000000	0.353209
716.000000	0.353404
717.000000	0.353665
718.000000	0.353785
719.000000	0.353849
720.000000	0.353970
721.000000	0.354077
722.000000	0.354172
723.000000	0.354327
724.000000	0.354493
725.000000	0.354529
726.000000	0.354593
727.000000	0.354764
728.000000	0.354818
729.000000	0.354882
730.000000	0.355014
731.000000	0.355133
732.000000	0.355277
733.000000	0.355464
734.000000	0.355546
735.000000	0.355640
736.000000	0.355837
737.000000	0.355929
738.000000	0.355986
739.000000	0.356118
740.000000	0.356196
741.000000	0.356265
742.000000	0.356364
743.000000	0.356454
744.000000	0.356505
745.000000	0.356595
746.000000	0.356711
747.000000	0.356721
748.000000	0.356874
749.000000	0.357022
750.000000	0.357036
751.000000	0.357111
752.000000	0.357182
753.000000	0.357261
754.000000	0.357386
755.000000	0.357403
756.000000	0.357402
757.000000	0.357460
758.000000	0.357521
759.000000	0.357648
760.000000	0.357764
761.000000	0.357802
762.000000	0.357877
763.000000	0.357943
764.000000	0.357955
765.000000	0.357969
766.000000	0.358056
767.000000	0.358227
768.000000	0.358292
769.000000	0.358345
770.000000	0.358432
771.000000	0.358509
772.000000	0.358670
773.000000	0.358796
774.000000	0.358843
775.000000	0.358835
776.000000	0.358860
777.000000	0.358941
778.000000	0.358981
779.000000	0.359047
780.000000	0.359139
781.000000	0.359174
782.000000	0.359151
783.000000	0.359172
784.000000	0.359149
785.000000	0.359138
786.000000	0.359155
787.000000	0.359203
788.000000	0.359311
789.000000	0.359364
790.000000	0.359385
791.000000	0.359515
792.000000	0.359531
793.000000	0.359435
794.000000	0.359331
795.000000	0.359499
796.000000	0.359680
797.000000	0.359727
798.000000	0.359612
799.000000	0.359558
800.000000	0.359607
801.000000	0.359721
802.000000	0.359711
803.000000	0.359679
804.000000	0.359696
805.000000	0.359559
806.000000	0.359527
807.000000	0.359709
808.000000	0.359924
809.000000	0.359893
810.000000	0.359789
811.000000	0.359746
812.000000	0.359592
813.000000	0.359650
814.000000	0.359834
815.000000	0.359717
816.000000	0.359637
817.000000	0.359637
818.000000	0.359602
819.000000	0.359645
820.000000	0.359677
821.000000	0.359611
822.000000	0.359561
823.000000	0.359530
824.000000	0.359447
825.000000	0.359378
826.000000	0.359461
827.000000	0.359516
828.000000	0.359486
829.000000	0.359435
830.000000	0.359461
831.000000	0.359570
832.000000	0.359521
833.000000	0.359393
834.000000	0.359262
835.000000	0.359221
836.000000	0.359258
837.000000	0.359282
838.000000	0.359279
839.000000	0.359252
840.000000	0.359193
841.000000	0.359126
842.000000	0.359040
843.000000	0.359015
844.000000	0.358996
845.000000	0.358942
846.000000	0.358921
847.000000	0.358927
848.000000	0.358788
849.000000	0.358460
850.000000	0.358515
851.000000	0.358491
852.000000	0.358351
853.000000	0.358587
854.000000	0.358543
855.000000	0.358432
856.000000	0.358440
857.000000	0.358187
858.000000	0.358025
859.000000	0.357975
860.000000	0.357714
861.000000	0.357643
862.000000	0.357748
863.000000	0.357763
864.000000	0.357653
865.000000	0.357516
866.000000	0.357433
867.000000	0.357325
868.000000	0.357254
869.000000	0.357125
870.000000	0.356947
871.000000	0.356932
872.000000	0.356876
873.000000	0.356639
874.000000	0.356531
875.000000	0.356343
876.000000	0.356107
877.000000	0.355869
878.000000	0.355628
879.000000	0.355604
880.000000	0.355653
881.000000	0.355471
882.000000	0.355291
883.000000	0.355113
884.000000	0.354797
885.000000	0.354567
886.000000	0.354401
887.000000	0.354288
888.000000	0.354188
889.000000	0.354023
890.000000	0.353767
891.000000	0.353663
892.000000	0.353540
893.000000	0.353424
894.000000	0.353430
895.000000	0.353349
896.000000	0.353094
897.000000	0.352788
898.000000	0.352594
899.000000	0.352354
900.000000	0.352178
901.000000	0.352016
902.000000	0.351736
903.000000	0.351669
904.000000	0.351643
905.000000	0.351318
906.000000	0.351094
907.000000	0.350887
908.000000	0.350689
909.000000	0.350390
910.000000	0.350238
911.000000	0.350141
912.000000	0.350004
913.000000	0.349931
914.000000	0.349774
915.000000	0.349552
916.000000	0.349246
917.000000	0.349114
918.000000	0.349065
919.000000	0.348939
920.000000	0.348672
921.000000	0.348375
922.000000	0.348109
923.000000	0.347873
924.000000	0.347707
925.000000	0.347554
926.000000	0.347368
927.000000	0.346992
928.000000	0.346705
929.000000	0.346466
930.000000	0.346173
931.000000	0.345995
932.000000	0.345867
933.000000	0.345624
934.000000	0.344920
935.000000	0.344619
936.000000	0.344615
937.000000	0.344486
938.000000	0.344143
939.000000	0.343833
940.000000	0.343538
941.000000	0.343281
942.000000	0.343286
943.000000	0.343188
944.000000	0.342719
945.000000	0.342405
946.000000	0.342134
947.000000	0.341892
948.000000	0.341618
949.000000	0.341420
950.000000	0.341342
951.000000	0.341224
952.000000	0.340872
953.000000	0.340340
954.000000	0.340028
955.000000	0.339999
956.000000	0.339611
957.000000	0.339396
958.000000	0.339243
959.000000	0.338976
960.000000	0.338763
961.000000	0.338441
962.000000	0.338093
963.000000	0.338157
964.000000	0.337886
965.000000	0.337626
966.000000	0.337544
967.000000	0.337116
968.000000	0.336842
969.000000	0.336704
970.000000	0.336583
971.000000	0.336488
972.000000	0.336292
973.000000	0.335985
974.000000	0.335908
975.000000	0.335731
976.000000	0.335338
977.000000	0.334825
978.000000	0.334739
979.000000	0.334790
980.000000	0.334532
981.000000	0.334119
982.000000	0.334002
983.000000	0.333772
984.000000	0.333426
985.000000	0.333269
986.000000	0.333331
987.000000	0.333430
988.000000	0.333234
989.000000	0.332619
990.000000	0.332292
991.000000	0.332353
992.000000	0.332595
993.000000	0.332355
994.000000	0.332116
995.000000	0.332081
996.000000	0.331786
997.000000	0.331537
998.000000	0.331410
999.000000	0.331478
1000.000000	0.331559
1001.000000	0.331725
1002.000000	0.331674
1003.000000	0.331048
1004.000000	0.330585
1005.000000	0.329884
1006.000000	0.329473
1007.000000	0.329223
1008.000000	0.329024
1009.000000	0.328787
1010.000000	0.329059
1011.000000	0.329286
1012.000000	0.329380
1013.000000	0.329226
1014.000000	0.328669
1015.000000	0.328634
1016.000000	0.328835
1017.000000	0.328985
1018.000000	0.329326
1019.000000	0.329435
1020.000000	0.329515
1021.000000	0.329015
1022.000000	0.327942
1023.000000	0.327942
1024.000000	0.328054
1025.000000	0.328066
1026.000000	0.328733
1027.000000	0.329263
1028.000000	0.328627
1029.000000	0.327803
1030.000000	0.327116
1031.000000	0.326539
1032.000000	0.326865
1033.000000	0.327330
1034.000000	0.327574
1035.000000	0.328058
1036.000000	0.328228
1037.000000	0.328157
1038.000000	0.328002
1039.000000	0.327591
1040.000000	0.327683
1041.000000	0.328033
1042.000000	0.327885
1043.000000	0.327856
1044.000000	0.328208
1045.000000	0.328488
1046.000000	0.328533
1047.000000	0.328783
1048.000000	0.329285
1049.000000	0.329523
1050.000000	0.329775
1051.000000	0.329808
1052.000000	0.329486
1053.000000	0.329431
1054.000000	0.329549
1055.000000	0.329515
1056.000000	0.329610
1057.000000	0.329883
1058.000000	0.329180
1059.000000	0.329081
1060.000000	0.329783
1061.000000	0.329982
1062.000000	0.330388
1063.000000	0.330833
1064.000000	0.331094
1065.000000	0.330907
1066.000000	0.331068
1067.000000	0.331280
1068.000000	0.331502
1069.000000	0.331823
1070.000000	0.331949
1071.000000	0.331989
1072.000000	0.332250
1073.000000	0.332815
1074.000000	0.332759
1075.000000	0.332945
1076.000000	0.333497
1077.000000	0.333598
1078.000000	0.333685
1079.000000	0.333749
1080.000000	0.333866
1081.000000	0.333863
1082.000000	0.333650
1083.000000	0.333866
1084.000000	0.334320
1085.000000	0.334756
1086.000000	0.335613
1087.000000	0.336012
1088.000000	0.335968
1089.000000	0.336131
1090.000000	0.336108
1091.000000	0.336181
1092.000000	0.336574
1093.000000	0.336937
1094.000000	0.337183
1095.000000	0.337379
1096.000000	0.337450
1097.000000	0.337419
1098.000000	0.337371
1099.000000	0.336922
1100.000000	0.337089
1101.000000	0.337526
1102.000000	0.337796
1103.000000	0.338374
1104.000000	0.338769
1105.000000	0.338947
1106.000000	0.339152
1107.000000	0.339245
1108.000000	0.339428
1109.000000	0.339671
1110.000000	0.340000
1111.000000	0.340045
1112.000000	0.339986
1113.000000	0.340145
1114.000000	0.340147
1115.000000	0.340352
1116.000000	0.341048
1117.000000	0.341219
1118.000000	0.341009
1119.000000	0.341008
1120.000000	0.340965
1121.000000	0.340909
1122.000000	0.340983
1123.000000	0.341266
1124.000000	0.341270
1125.000000	0.341435
1126.000000	0.341891
1127.000000	0.342050
1128.000000	0.342087
1129.000000	0.342038
1130.000000	0.342054
1131.000000	0.341933
1132.000000	0.341903
1133.000000	0.341997
1134.000000	0.342106
1135.000000	0.342120
1136.000000	0.342220
1137.000000	0.342484
1138.000000	0.342556
1139.000000	0.342600
1140.000000	0.342784
1141.000000	0.342929
1142.000000	0.343042
1143.000000	0.343179
1144.000000	0.343364
1145.000000	0.343188
1146.000000	0.343164
1147.000000	0.343262
1148.000000	0.343376
1149.000000	0.343470
1150.000000	0.343770
1151.000000	0.343817
1152.000000	0.343619
1153.000000	0.343551
1154.000000	0.343324
1155.000000	0.343278
1156.000000	0.343428
1157.000000	0.343445
1158.000000	0.343362
1159.000000	0.343374
1160.000000	0.343330
1161.000000	0.343333
1162.000000	0.343522
1163.000000	0.343819
1164.000000	0.343839
1165.000000	0.343711
1166.000000	0.343696
1167.000000	0.343548
1168.000000	0.343456
1169.000000	0.343447
1170.000000	0.343463
1171.000000	0.343493
1172.000000	0.343570
1173.000000	0.343707
1174.000000	0.343813
1175.000000	0.343881
1176.000000	0.343893
1177.000000	0.344089
1178.000000	0.344080
1179.000000	0.343736
1180.000000	0.343635
1181.000000	0.343853
1182.000000	0.343708
1183.000000	0.343554
1184.000000	0.343648
1185.000000	0.343632
1186.000000	0.343390
1187.000000	0.343374
1188.000000	0.343586
1189.000000	0.343603
1190.000000	0.343564
1191.000000	0.343582
1192.000000	0.343735
1193.000000	0.343902
1194.000000	0.343970
1195.000000	0.344050
1196.000000	0.344080
1197.000000	0.344064
1198.000000	0.344035
1199.000000	0.344017
1200.000000	0.343886
1201.000000	0.343929
1202.000000	0.343938
1203.000000	0.343891
1204.000000	0.343837
1205.000000	0.343599
1206.000000	0.343476
1207.000000	0.343412
1208.000000	0.343395
1209.000000	0.343608
1210.000000	0.343628
1211.000000	0.343529
1212.000000	0.343564
1213.000000	0.343629
1214.000000	0.343687
1215.000000	0.343945
1216.000000	0.343975
1217.000000	0.343763
1218.000000	0.343601
1219.000000	0.343377
1220.000000	0.343196
1221.000000	0.343210
1222.000000	0.343238
1223.000000	0.343309
1224.000000	0.343438
1225.000000	0.343444
1226.000000	0.343454
1227.000000	0.343470
1228.000000	0.343564
1229.000000	0.343487
1230.000000	0.343257
1231.000000	0.343103
1232.000000	0.342923
1233.000000	0.343036
1234.000000	0.343438
1235.000000	0.343520
1236.000000	0.343463
1237.000000	0.343541
1238.000000	0.343435
1239.000000	0.343384
1240.000000	0.343526
1241.000000	0.343557
1242.000000	0.343311
1243.000000	0.343122
1244.000000	0.343115
1245.000000	0.343289
1246.000000	0.343423
1247.000000	0.343564
1248.000000	0.343481
1249.000000	0.343250
1250.000000	0.343205
1251.000000	0.343200
1252.000000	0.343169
1253.000000	0.343291
1254.000000	0.343275
1255.000000	0.343163
1256.000000	0.343046
1257.000000	0.342848
1258.000000	0.342835
1259.000000	0.342821
1260.000000	0.342853
1261.000000	0.343013
1262.000000	0.343059
1263.000000	0.343084
1264.000000	0.342955
1265.000000	0.342969
1266.000000	0.342880
1267.000000	0.342718
1268.000000	0.342746
1269.000000	0.342652
1270.000000	0.342515
1271.000000	0.342548
1272.000000	0.342670
1273.000000	0.342678
1274.000000	0.342677
1275.000000	0.342664
1276.000000	0.342538
1277.000000	0.342533
1278.000000	0.342589
1279.000000	0.342562
1280.000000	0.342427
1281.000000	0.342300
1282.000000	0.342110
1283.000000	0.342121
1284.000000	0.342218
1285.000000	0.342257
1286.000000	0.342345
1287.000000	0.342371
1288.000000	0.342389
1289.000000	0.342282
1290.000000	0.342099
1291.000000	0.342052
1292.000000	0.342030
1293.000000	0.341926
1294.000000	0.341898
1295.000000	0.341949
1296.000000	0.342028
1297.000000	0.342113
1298.000000	0.342105
1299.000000	0.341968
1300.000000	0.341831
1301.000000	0.341758
1302.000000	0.341623
1303.000000	0.341672
1304.000000	0.341684
1305.000000	0.341696
1306.000000	0.341725
1307.000000	0.342050
1308.000000	0.342108
1309.000000	0.341949
1310.000000	0.341852
1311.000000	0.341671
1312.000000	0.341501
1313.000000	0.341490
1314.000000	0.341518
1315.000000	0.341538
1316.000000	0.341513
1317.000000	0.341440
1318.000000	0.341443
1319.000000	0.341451
1320.000000	0.341474
1321.000000	0.341406
1322.000000	0.341251
1323.000000	0.340983
1324.000000	0.340649
1325.000000	0.340520
1326.000000	0.340505
1327.000000	0.340463
1328.000000	0.340494
1329.000000	0.340381
1330.000000	0.340106
1331.000000	0.339883
1332.000000	0.339722
1333.000000	0.339566
1334.000000	0.339393
1335.000000	0.339343
1336.000000	0.339435
1337.000000	0.339368
1338.000000	0.339222
1339.000000	0.339115
1340.000000	0.338850
1341.000000	0.338634
1342.000000	0.338492
1343.000000	0.338327
1344.000000	0.338266
1345.000000	0.338034
1346.000000	0.337870
1347.000000	0.337658
1348.000000	0.337403
1349.000000	0.337253
1350.000000	0.337216
1351.000000	0.337179
1352.000000	0.337088
1353.000000	0.336963
1354.000000	0.336871
1355.000000	0.336682
1356.000000	0.336529
1357.000000	0.336406
1358.000000	0.336107
1359.000000	0.335768
1360.000000	0.335621
1361.000000	0.335672
1362.000000	0.335579
1363.000000	0.335534
1364.000000	0.335454
1365.000000	0.335277
1366.000000	0.335120
1367.000000	0.334921
1368.000000	0.334840
1369.000000	0.334925
1370.000000	0.334719
1371.000000	0.334431
1372.000000	0.334158
1373.000000	0.333729
1374.000000	0.333301
1375.000000	0.332979
1376.000000	0.332719
1377.000000	0.332284
1378.000000	0.331585
1379.000000	0.330706
1380.000000	0.329773
1381.000000	0.328753
1382.000000	0.327556
1383.000000	0.326329
1384.000000	0.325006
1385.000000	0.323566
1386.000000	0.322295
1387.000000	0.321280
1388.000000	0.320325
1389.000000	0.319516
1390.000000	0.319043
1391.000000	0.318681
1392.000000	0.318434
1393.000000	0.318309
1394.000000	0.318547
1395.000000	0.318542
1396.000000	0.318495
1397.000000	0.318395
1398.000000	0.318176
1399.000000	0.317916
1400.000000	0.317744
1401.000000	0.317356
1402.000000	0.316870
1403.000000	0.316208
1404.000000	0.315693
1405.000000	0.314986
1406.000000	0.314383
1407.000000	0.313962
1408.000000	0.313241
1409.000000	0.312526
1410.000000	0.311895
1411.000000	0.311184
1412.000000	0.310497
1413.000000	0.310009
1414.000000	0.309579
1415.000000	0.309016
1416.000000	0.308499
1417.000000	0.307958
1418.000000	0.307371
1419.000000	0.306928
1420.000000	0.306486
1421.000000	0.306150
1422.000000	0.305794
1423.000000	0.305554
1424.000000	0.305277
1425.000000	0.305030
1426.000000	0.304692
1427.000000	0.304294
1428.000000	0.304038
1429.000000	0.303666
1430.000000	0.303413
1431.000000	0.303290
1432.000000	0.302990
1433.000000	0.302628
1434.000000	0.302297
1435.000000	0.301908
1436.000000	0.301606
1437.000000	0.301409
1438.000000	0.301111
1439.000000	0.300845
1440.000000	0.300591
1441.000000	0.300261
1442.000000	0.300032
1443.000000	0.299844
1444.000000	0.299620
1445.000000	0.299291
1446.000000	0.299012
1447.000000	0.298758
1448.000000	0.298457
1449.000000	0.298258
1450.000000	0.298004
1451.000000	0.297743
1452.000000	0.297614
1453.000000	0.297396
1454.000000	0.297288
1455.000000	0.297310
1456.000000	0.297219
1457.000000	0.297216
1458.000000	0.297333
1459.000000	0.297305
1460.000000	0.297206
1461.000000	0.297179
1462.000000	0.297036
1463.000000	0.296823
1464.000000	0.296720
1465.000000	0.296671
1466.000000	0.296623
1467.000000	0.296585
1468.000000	0.296605
1469.000000	0.296706
1470.000000	0.296698
1471.000000	0.296832
1472.000000	0.297082
1473.000000	0.297238
1474.000000	0.297398
1475.000000	0.297599
1476.000000	0.297761
1477.000000	0.298075
1478.000000	0.298357
1479.000000	0.298558
1480.000000	0.298834
1481.000000	0.299034
1482.000000	0.299173
1483.000000	0.299413
1484.000000	0.299681
1485.000000	0.299909
1486.000000	0.300135
1487.000000	0.300361
1488.000000	0.300588
1489.000000	0.300884
1490.000000	0.301090
1491.000000	0.301367
1492.000000	0.301668
1493.000000	0.301953
1494.000000	0.302191
1495.000000	0.302458
1496.000000	0.302749
1497.000000	0.303077
1498.000000	0.303476
1499.000000	0.303786
1500.000000	0.304108
1501.000000	0.304311
1502.000000	0.304409
1503.000000	0.304627
1504.000000	0.304896
1505.000000	0.305168
1506.000000	0.305453
1507.000000	0.305724
1508.000000	0.305995
1509.000000	0.306166
1510.000000	0.306348
1511.000000	0.306570
1512.000000	0.306748
1513.000000	0.306978
1514.000000	0.307179
1515.000000	0.307244
1516.000000	0.307302
1517.000000	0.307344
1518.000000	0.307504
1519.000000	0.307691
1520.000000	0.307774
1521.000000	0.307828
1522.000000	0.307941
1523.000000	0.308060
1524.000000	0.308282
1525.000000	0.308620
1526.000000	0.308795
1527.000000	0.308896
1528.000000	0.309025
1529.000000	0.309072
1530.000000	0.309067
1531.000000	0.309231
1532.000000	0.309382
1533.000000	0.309408
1534.000000	0.309515
1535.000000	0.309651
1536.000000	0.309630
1537.000000	0.309685
1538.000000	0.309782
1539.000000	0.309633
1540.000000	0.309625
1541.000000	0.309901
1542.000000	0.310014
1543.000000	0.310101
1544.000000	0.310201
1545.000000	0.310184
1546.000000	0.310100
1547.000000	0.310000
1548.000000	0.309988
1549.000000	0.309941
1550.000000	0.309871
1551.000000	0.309935
1552.000000	0.310032
1553.000000	0.310029
1554.000000	0.310116
1555.000000	0.310299
1556.000000	0.310276
1557.000000	0.310248
1558.000000	0.310248
1559.000000	0.310092
1560.000000	0.310033
1561.000000	0.310112
1562.000000	0.310114
1563.000000	0.310134
1564.000000	0.310232
1565.000000	0.310387
1566.000000	0.310377
1567.000000	0.310407
1568.000000	0.310430
1569.000000	0.310412
1570.000000	0.310452
1571.000000	0.310615
1572.000000	0.310645
1573.000000	0.310594
1574.000000	0.310607
1575.000000	0.310596
1576.000000	0.310623
1577.000000	0.310691
1578.000000	0.310693
1579.000000	0.310692
1580.000000	0.310722
1581.000000	0.310858
1582.000000	0.310913
1583.000000	0.310977
1584.000000	0.310965
1585.000000	0.310914
1586.000000	0.310926
1587.000000	0.310980
1588.000000	0.310943
1589.000000	0.310849
1590.000000	0.310823
1591.000000	0.310791
1592.000000	0.310802
1593.000000	0.310969
1594.000000	0.311003
1595.000000	0.311012
1596.000000	0.310980
1597.000000	0.310915
1598.000000	0.310883
1599.000000	0.310872
1600.000000	0.310805
1601.000000	0.310760
1602.000000	0.310782
1603.000000	0.310847
1604.000000	0.310909
1605.000000	0.311101
1606.000000	0.311139
1607.000000	0.311128
1608.000000	0.311102
1609.000000	0.311019
1610.000000	0.311056
1611.000000	0.311199
1612.000000	0.311290
1613.000000	0.311529
1614.000000	0.311629
1615.000000	0.311692
1616.000000	0.311736
1617.000000	0.311707
1618.000000	0.311713
1619.000000	0.311652
1620.000000	0.311668
1621.000000	0.311742
1622.000000	0.311877
1623.000000	0.312093
1624.000000	0.312167
1625.000000	0.312061
1626.000000	0.312019
1627.000000	0.311879
1628.000000	0.311940
1629.000000	0.312177
1630.000000	0.312285
1631.000000	0.312320
1632.000000	0.312392
1633.000000	0.312456
1634.000000	0.312542
1635.000000	0.312755
1636.000000	0.312815
1637.000000	0.312749
1638.000000	0.312785
1639.000000	0.312894
1640.000000	0.312960
1641.000000	0.313148
1642.000000	0.313229
1643.000000	0.313205
1644.000000	0.313288
1645.000000	0.313407
1646.000000	0.313467
1647.000000	0.313620
1648.000000	0.313677
1649.000000	0.313755
1650.000000	0.313823
1651.000000	0.313847
1652.000000	0.313994
1653.000000	0.314190
1654.000000	0.314246
1655.000000	0.314211
1656.000000	0.314205
1657.000000	0.314128
1658.000000	0.314244
1659.000000	0.314725
1660.000000	0.314873
1661.000000	0.314791
1662.000000	0.314892
1663.000000	0.314915
1664.000000	0.314986
1665.000000	0.315201
1666.000000	0.315360
1667.000000	0.315308
1668.000000	0.315437
1669.000000	0.315703
1670.000000	0.315795
1671.000000	0.315955
1672.000000	0.316131
1673.000000	0.316221
1674.000000	0.316386
1675.000000	0.316566
1676.000000	0.316702
1677.000000	0.316704
1678.000000	0.316654
1679.000000	0.316587
1680.000000	0.316339
1681.000000	0.316203
1682.000000	0.316214
1683.000000	0.316317
1684.000000	0.316443
1685.000000	0.316448
1686.000000	0.316463
1687.000000	0.316498
1688.000000	0.316570
1689.000000	0.316748
1690.000000	0.316670
1691.000000	0.316624
1692.000000	0.316637
1693.000000	0.316576
1694.000000	0.316623
1695.000000	0.316672
1696.000000	0.316668
1697.000000	0.316636
1698.000000	0.316627
1699.000000	0.316690
1700.000000	0.316822
1701.000000	0.316933
1702.000000	0.316862
1703.000000	0.316850
1704.000000	0.316905
1705.000000	0.316926
1706.000000	0.317013
1707.000000	0.317147
1708.000000	0.317254
1709.000000	0.317285
1710.000000	0.317512
1711.000000	0.317607
1712.000000	0.317518
1713.000000	0.317541
1714.000000	0.317608
1715.000000	0.317709
1716.000000	0.317960
1717.000000	0.318055
1718.000000	0.318052
1719.000000	0.318041
1720.000000	0.317976
1721.000000	0.317961
1722.000000	0.317969
1723.000000	0.317996
1724.000000	0.318121
1725.000000	0.318115
1726.000000	0.317952
1727.000000	0.317875
1728.000000	0.317638
1729.000000	0.317511
1730.000000	0.317606
1731.000000	0.317695
1732.000000	0.317848
1733.000000	0.318021
1734.000000	0.318185
1735.000000	0.318186
1736.000000	0.317993
1737.000000	0.318042
1738.000000	0.318133
1739.000000	0.318200
1740.000000	0.318422
1741.000000	0.318434
1742.000000	0.318274
1743.000000	0.318283
1744.000000	0.318313
1745.000000	0.318302
1746.000000	0.318275
1747.000000	0.318352
1748.000000	0.318355
1749.000000	0.318385
1750.000000	0.318407
1751.000000	0.318559
1752.000000	0.318695
1753.000000	0.318707
1754.000000	0.318717
1755.000000	0.318577
1756.000000	0.318490
1757.000000	0.318374
1758.000000	0.318400
1759.000000	0.318494
1760.000000	0.318607
1761.000000	0.318931
1762.000000	0.318987
1763.000000	0.318845
1764.000000	0.318849
1765.000000	0.318720
1766.000000	0.318698
1767.000000	0.318839
1768.000000	0.318747
1769.000000	0.318590
1770.000000	0.318527
1771.000000	0.318317
1772.000000	0.318272
1773.000000	0.318265
1774.000000	0.318364
1775.000000	0.318682
1776.000000	0.318850
1777.000000	0.319044
1778.000000	0.319099
1779.000000	0.319001
1780.000000	0.318953
1781.000000	0.318830
1782.000000	0.318747
1783.000000	0.318680
1784.000000	0.318881
1785.000000	0.318836
1786.000000	0.318783
1787.000000	0.318908
1788.000000	0.318948
1789.000000	0.318959
1790.000000	0.319059
1791.000000	0.319034
1792.000000	0.318957
1793.000000	0.318881
1794.000000	0.318699
1795.000000	0.318711
1796.000000	0.318877
1797.000000	0.318895
1798.000000	0.318947
1799.000000	0.319021
1800.000000	0.318909
1801.000000	0.318948
1802.000000	0.319216
1803.000000	0.318712
1804.000000	0.319285
1805.000000	0.320550
1806.000000	0.321316
1807.000000	0.322733
1808.000000	0.323347
1809.000000	0.323159
1810.000000	0.323367
1811.000000	0.323079
1812.000000	0.322178
1813.000000	0.321883
1814.000000	0.321554
1815.000000	0.321375
1816.000000	0.321637
1817.000000	0.321466
1818.000000	0.321200
1819.000000	0.321252
1820.000000	0.319897
1821.000000	0.318932
1822.000000	0.319246
1823.000000	0.320110
1824.000000	0.320639
1825.000000	0.322773
1826.000000	0.323607
1827.000000	0.323367
1828.000000	0.322987
1829.000000	0.323122
1830.000000	0.322814
1831.000000	0.322542
1832.000000	0.321976
1833.000000	0.321894
1834.000000	0.322133
1835.000000	0.321970
1836.000000	0.322133
1837.000000	0.321806
1838.000000	0.320689
1839.000000	0.319631
1840.000000	0.318838
1841.000000	0.317700
1842.000000	0.317187
1843.000000	0.316878
1844.000000	0.316746
1845.000000	0.317159
1846.000000	0.317350
1847.000000	0.317358
1848.000000	0.317341
1849.000000	0.317911
1850.000000	0.317948
1851.000000	0.318073
1852.000000	0.318396
1853.000000	0.318686
1854.000000	0.318876
1855.000000	0.318433
1856.000000	0.317827
1857.000000	0.316654
1858.000000	0.315298
1859.000000	0.314128
1860.000000	0.313133
1861.000000	0.312602
1862.000000	0.312065
1863.000000	0.311807
1864.000000	0.311265
1865.000000	0.310919
1866.000000	0.310363
1867.000000	0.309443
1868.000000	0.308470
1869.000000	0.307860
1870.000000	0.306837
1871.000000	0.305846
1872.000000	0.305169
1873.000000	0.304313
1874.000000	0.303566
1875.000000	0.302449
1876.000000	0.301314
1877.000000	0.299053
1878.000000	0.296341
1879.000000	0.293660
1880.000000	0.290122
1881.000000	0.287014
1882.000000	0.284288
1883.000000	0.281311
1884.000000	0.278965
1885.000000	0.277547
1886.000000	0.275114
1887.000000	0.272587
1888.000000	0.269687
1889.000000	0.265812
1890.000000	0.261866
1891.000000	0.258542
1892.000000	0.255520
1893.000000	0.253437
1894.000000	0.251085
1895.000000	0.248041
1896.000000	0.244619
1897.000000	0.241260
1898.000000	0.237672
1899.000000	0.234890
1900.000000	0.232667
1901.000000	0.230505
1902.000000	0.227774
1903.000000	0.225065
1904.000000	0.222892
1905.000000	0.220733
1906.000000	0.219052
1907.000000	0.218103
1908.000000	0.217145
1909.000000	0.216140
1910.000000	0.215179
1911.000000	0.214211
1912.000000	0.213458
1913.000000	0.212399
1914.000000	0.211875
1915.000000	0.211564
1916.000000	0.211218
1917.000000	0.210734
1918.000000	0.210594
1919.000000	0.209838
1920.000000	0.208749
1921.000000	0.208186
1922.000000	0.207618
1923.000000	0.207323
1924.000000	0.207723
1925.000000	0.207546
1926.000000	0.207266
1927.000000	0.207432
1928.000000	0.207305
1929.000000	0.206991
1930.000000	0.206743
1931.000000	0.206586
1932.000000	0.206684
1933.000000	0.206765
1934.000000	0.207043
1935.000000	0.207477
1936.000000	0.207240
1937.000000	0.207575
1938.000000	0.208266
1939.000000	0.208615
1940.000000	0.208878
1941.000000	0.209582
1942.000000	0.209830
1943.000000	0.209153
1944.000000	0.208999
1945.000000	0.208823
1946.000000	0.207979
1947.000000	0.208123
1948.000000	0.208592
1949.000000	0.208887
1950.000000	0.209524
1951.000000	0.209481
1952.000000	0.209068
1953.000000	0.208032
1954.000000	0.207562
1955.000000	0.207146
1956.000000	0.206901
1957.000000	0.207241
1958.000000	0.206775
1959.000000	0.206791
1960.000000	0.207818
1961.000000	0.208256
1962.000000	0.208614
1963.000000	0.209385
1964.000000	0.209490
1965.000000	0.208763
1966.000000	0.208482
1967.000000	0.207947
1968.000000	0.208035
1969.000000	0.208412
1970.000000	0.208660
1971.000000	0.209183
1972.000000	0.209277
1973.000000	0.209162
1974.000000	0.208630
1975.000000	0.208468
1976.000000	0.208196
1977.000000	0.208257
1978.000000	0.208707
1979.000000	0.209541
1980.000000	0.210506
1981.000000	0.211544
1982.000000	0.212092
1983.000000	0.212586
1984.000000	0.213087
1985.000000	0.213579
1986.000000	0.213662
1987.000000	0.213572
1988.000000	0.213660
1989.000000	0.213622
1990.000000	0.213662
1991.000000	0.214165
1992.000000	0.214742
1993.000000	0.214896
1994.000000	0.215111
1995.000000	0.215765
1996.000000	0.216622
1997.000000	0.217416
1998.000000	0.218757
1999.000000	0.219591
2000.000000	0.220279
2001.000000	0.220513
2002.000000	0.220643
2003.000000	0.220929
2004.000000	0.221296
2005.000000	0.221774
2006.000000	0.222672
2007.000000	0.223513
2008.000000	0.224426
2009.000000	0.225549
2010.000000	0.226530
2011.000000	0.227406
2012.000000	0.228208
2013.000000	0.228918
2014.000000	0.229416
2015.000000	0.229842
2016.000000	0.230629
2017.000000	0.231761
2018.000000	0.232296
2019.000000	0.232814
2020.000000	0.233483
2021.000000	0.234109
2022.000000	0.234623
2023.000000	0.235183
2024.000000	0.235869
2025.000000	0.236557
2026.000000	0.237322
2027.000000	0.237278
2028.000000	0.237483
2029.000000	0.237375
2030.000000	0.236723
2031.000000	0.236747
2032.000000	0.237726
2033.000000	0.239370
2034.000000	0.240911
2035.000000	0.243850
2036.000000	0.245053
2037.000000	0.245468
2038.000000	0.245931
2039.000000	0.245859
2040.000000	0.245409
2041.000000	0.245529
2042.000000	0.246291
2043.000000	0.246459
2044.000000	0.246436
2045.000000	0.247361
2046.000000	0.247792
2047.000000	0.248750
2048.000000	0.250872
2049.000000	0.252084
2050.000000	0.252753
2051.000000	0.253169
2052.000000	0.252741
2053.000000	0.252616
2054.000000	0.252480
2055.000000	0.252744
2056.000000	0.253033
2057.000000	0.253303
2058.000000	0.253216
2059.000000	0.253496
2060.000000	0.254004
2061.000000	0.254727
2062.000000	0.255330
2063.000000	0.256476
2064.000000	0.256893
2065.000000	0.257059
2066.000000	0.257375
2067.000000	0.257855
2068.000000	0.257740
2069.000000	0.258518
2070.000000	0.259844
2071.000000	0.260772
2072.000000	0.262042
2073.000000	0.262686
2074.000000	0.262522
2075.000000	0.262530
2076.000000	0.262013
2077.000000	0.261937
2078.000000	0.261976
2079.000000	0.262078
2080.000000	0.262269
2081.000000	0.262825
2082.000000	0.263816
2083.000000	0.264395
2084.000000	0.265262
2085.000000	0.265955
2086.000000	0.266099
2087.000000	0.266289
2088.000000	0.266883
2089.000000	0.267682
2090.000000	0.268296
2091.000000	0.269581
2092.000000	0.269879
2093.000000	0.269325
2094.000000	0.269188
2095.000000	0.268516
2096.000000	0.268379
2097.000000	0.268430
2098.000000	0.268952
2099.000000	0.269401
2100.000000	0.269768
2101.000000	0.270569
2102.000000	0.271192
2103.000000	0.272038
2104.000000	0.273614
2105.000000	0.274250
2106.000000	0.274649
2107.000000	0.274768
2108.000000	0.273737
2109.000000	0.273671
2110.000000	0.273775
2111.000000	0.274036
2112.000000	0.274669
2113.000000	0.275243
2114.000000	0.275510
2115.000000	0.275512
2116.000000	0.275583
2117.000000	0.275561
2118.000000	0.276092
2119.000000	0.276414
2120.000000	0.277051
2121.000000	0.278164
2122.000000	0.278715
2123.000000	0.279614
2124.000000	0.279774
2125.000000	0.278811
2126.000000	0.278488
2127.000000	0.277989
2128.000000	0.277698
2129.000000	0.277346
2130.000000	0.277877
2131.000000	0.278104
2132.000000	0.278257
2133.000000	0.279280
2134.000000	0.280145
2135.000000	0.280541
2136.000000	0.281214
2137.000000	0.281200
2138.000000	0.280148
2139.000000	0.280060
2140.000000	0.280132
2141.000000	0.280107
2142.000000	0.280401
2143.000000	0.280389
2144.000000	0.280424
2145.000000	0.280544
2146.000000	0.280757
2147.000000	0.281163
2148.000000	0.281430
2149.000000	0.281266
2150.000000	0.282048
2151.000000	0.282990
2152.000000	0.283909
2153.000000	0.284184
2154.000000	0.283970
2155.000000	0.282826
2156.000000	0.282088
2157.000000	0.280901
2158.000000	0.280501
2159.000000	0.280092
2160.000000	0.280465
2161.000000	0.282274
2162.000000	0.282822
2163.000000	0.283257
2164.000000	0.283459
2165.000000	0.282827
2166.000000	0.282013
2167.000000	0.282485
2168.000000	0.282308
2169.000000	0.282533
2170.000000	0.283737
2171.000000	0.284021
2172.000000	0.284506
2173.000000	0.284199
2174.000000	0.282568
2175.000000	0.282058
2176.000000	0.281290
2177.000000	0.281136
2178.000000	0.282609
2179.000000	0.282798
2180.000000	0.282635
2181.000000	0.282865
2182.000000	0.282309
2183.000000	0.280919
2184.000000	0.281851
2185.000000	0.280840
2186.000000	0.280468
2187.000000	0.281664
2188.000000	0.281907
2189.000000	0.282758
2190.000000	0.283284
2191.000000	0.284574
2192.000000	0.285303
2193.000000	0.286234
2194.000000	0.286080
2195.000000	0.284994
2196.000000	0.284052
2197.000000	0.281678
2198.000000	0.280976
2199.000000	0.281446
2200.000000	0.281963
2201.000000	0.284100
2202.000000	0.284939
2203.000000	0.285984
2204.000000	0.284362
2205.000000	0.282882
2206.000000	0.281960
2207.000000	0.281001
2208.000000	0.282217
2209.000000	0.282575
2210.000000	0.283162
2211.000000	0.283306
2212.000000	0.283496
2213.000000	0.283369
2214.000000	0.282598
2215.000000	0.282808
2216.000000	0.283326
2217.000000	0.283846
2218.000000	0.285080
2219.000000	0.285852
2220.000000	0.286265
2221.000000	0.286469
2222.000000	0.285867
2223.000000	0.286770
2224.000000	0.288399
2225.000000	0.290166
2226.000000	0.292087
2227.000000	0.292359
2228.000000	0.290352
2229.000000	0.285533
2230.000000	0.278624
2231.000000	0.276650
2232.000000	0.273286
2233.000000	0.271854
2234.000000	0.276114
2235.000000	0.277047
2236.000000	0.279016
2237.000000	0.283828
2238.000000	0.284733
2239.000000	0.283638
2240.000000	0.282380
2241.000000	0.278450
2242.000000	0.276662
2243.000000	0.274586
2244.000000	0.273590
2245.000000	0.274057
2246.000000	0.274647
2247.000000	0.275477
2248.000000	0.276978
2249.000000	0.279717
2250.000000	0.281778
2251.000000	0.283356
2252.000000	0.284819
2253.000000	0.284806
2254.000000	0.283718
2255.000000	0.282303
2256.000000	0.281198
2257.000000	0.279883
2258.000000	0.278950
2259.000000	0.278685
2260.000000	0.278464
2261.000000	0.277686
2262.000000	0.276362
2263.000000	0.276147
2264.000000	0.275527
2265.000000	0.276162
2266.000000	0.279287
2267.000000	0.279837
2268.000000	0.280541
2269.000000	0.279242
2270.000000	0.274574
2271.000000	0.272894
2272.000000	0.270816
2273.000000	0.270425
2274.000000	0.273374
2275.000000	0.273880
2276.000000	0.273848
2277.000000	0.273316
2278.000000	0.272640
2279.000000	0.271066
2280.000000	0.271552
2281.000000	0.273062
2282.000000	0.272614
2283.000000	0.271984
2284.000000	0.270039
2285.000000	0.266981
2286.000000	0.267632
2287.000000	0.268478
2288.000000	0.268373
2289.000000	0.269341
2290.000000	0.266523
2291.000000	0.264724
2292.000000	0.265348
2293.000000	0.264554
2294.000000	0.264065
2295.000000	0.264270
2296.000000	0.263575
2297.000000	0.261971
2298.000000	0.260871
2299.000000	0.259751
2300.000000	0.259461
2301.000000	0.259648
2302.000000	0.259257
2303.000000	0.259759
2304.000000	0.258906
2305.000000	0.256423
2306.000000	0.254979
2307.000000	0.253003
2308.000000	0.252518
2309.000000	0.252144
2310.000000	0.251591
2311.000000	0.251748
2312.000000	0.249866
2313.000000	0.250233
2314.000000	0.251041
2315.000000	0.249427
2316.000000	0.249544
2317.000000	0.249701
2318.000000	0.249047
2319.000000	0.250522
2320.000000	0.252337
2321.000000	0.252498
2322.000000	0.251280
2323.000000	0.250516
2324.000000	0.250092
2325.000000	0.247652
2326.000000	0.246336
2327.000000	0.246423
2328.000000	0.244753
2329.000000	0.245626
2330.000000	0.247718
2331.000000	0.248312
2332.000000	0.251523
2333.000000	0.251910
2334.000000	0.249196
2335.000000	0.248657
2336.000000	0.246700
2337.000000	0.245909
2338.000000	0.247610
2339.000000	0.247688
2340.000000	0.247039
2341.000000	0.246765
2342.000000	0.246734
2343.000000	0.246490
2344.000000	0.245348
2345.000000	0.245209
2346.000000	0.246110
2347.000000	0.245215
2348.000000	0.243728
2349.000000	0.243468
2350.000000	0.241480
2351.000000	0.238436
2352.000000	0.239156
2353.000000	0.239890
2354.000000	0.241787
2355.000000	0.242972
2356.000000	0.239385
2357.000000	0.237314
2358.000000	0.235429
2359.000000	0.233770
2360.000000	0.237982
2361.000000	0.240260
2362.000000	0.239006
2363.000000	0.241072
2364.000000	0.237639
2365.000000	0.236354
2366.000000	0.237578
2367.000000	0.233339
2368.000000	0.233468
2369.000000	0.231348
2370.000000	0.225119
2371.000000	0.222372
2372.000000	0.217049
2373.000000	0.214675
2374.000000	0.219825
2375.000000	0.225948
2376.000000	0.233541
2377.000000	0.235950
2378.000000	0.232706
2379.000000	0.227838
2380.000000	0.221627
2381.000000	0.216836
2382.000000	0.214698
2383.000000	0.211890
2384.000000	0.211309
2385.000000	0.218055
2386.000000	0.220853
2387.000000	0.222032
2388.000000	0.223818
2389.000000	0.219339
2390.000000	0.217606
2391.000000	0.219551
2392.000000	0.216369
2393.000000	0.216532
2394.000000	0.220564
2395.000000	0.218303
2396.000000	0.219496
2397.000000	0.219549
2398.000000	0.213741
2399.000000	0.209222
2400.000000	0.205178
2401.000000	0.204187
2402.000000	0.205881
2403.000000	0.209147
2404.000000	0.208962
2405.000000	0.209729
2406.000000	0.208877
2407.000000	0.201874
2408.000000	0.202952
2409.000000	0.201056
2410.000000	0.195546
2411.000000	0.200672
2412.000000	0.206032
2413.000000	0.208042
2414.000000	0.211056
2415.000000	0.212875
2416.000000	0.212902
2417.000000	0.215975
2418.000000	0.219238
2419.000000	0.215567
2420.000000	0.211733
2421.000000	0.207199
2422.000000	0.196274
2423.000000	0.192565
2424.000000	0.190857
2425.000000	0.188404
2426.000000	0.194021
2427.000000	0.196844
2428.000000	0.191784
2429.000000	0.182123
2430.000000	0.170955
2431.000000	0.165339
2432.000000	0.178724
2433.000000	0.195045
2434.000000	0.198932
2435.000000	0.195078
2436.000000	0.185678
2437.000000	0.181889
2438.000000	0.193652
2439.000000	0.210300
2440.000000	0.216099
2441.000000	0.211713
2442.000000	0.204538
2443.000000	0.205011
2444.000000	0.205621
2445.000000	0.213542
2446.000000	0.214608
2447.000000	0.201769
2448.000000	0.199717
2449.000000	0.194300
2450.000000	0.192088
2451.000000	0.194175
2452.000000	0.193813
2453.000000	0.197755
2454.000000	0.200864
2455.000000	0.201740
2456.000000	0.191700
2457.000000	0.186411
2458.000000	0.188197
2459.000000	0.182649
2460.000000	0.194591
2461.000000	0.210209
2462.000000	0.216144
2463.000000	0.223524
2464.000000	0.221802
2465.000000	0.207697
2466.000000	0.188490
2467.000000	0.167678
2468.000000	0.163212
2469.000000	0.166690
2470.000000	0.164994
2471.000000	0.169779
2472.000000	0.153822
2473.000000	0.147265
2474.000000	0.154604
2475.000000	0.168495
2476.000000	0.194716
2477.000000	0.205961
2478.000000	0.221681
2479.000000	0.222573
2480.000000	0.217945
2481.000000	0.212162
2482.000000	0.177730
2483.000000	0.163429
2484.000000	0.188071
2485.000000	0.185210
2486.000000	0.174120
2487.000000	0.188825
2488.000000	0.152599
2489.000000	0.132676
2490.000000	0.152683
2491.000000	0.094180
2492.000000	0.069905
2493.000000	0.042129
2494.000000	0.040747
2495.000000	0.119405
2496.000000	0.134406
2497.000000	0.136756
2498.000000	0.138020
2499.000000	0.087783
2500.000000	0.061890
