# Wavelength	SM1200H-40_HEX-20_FV7-40_00001.asd.rts.txt
350.000000	0.295514
351.000000	0.260688
352.000000	0.264065
353.000000	0.271139
354.000000	0.266260
355.000000	0.273864
356.000000	0.275852
357.000000	0.271206
358.000000	0.264625
359.000000	0.260613
360.000000	0.263749
361.000000	0.274491
362.000000	0.273201
363.000000	0.273387
364.000000	0.280048
365.000000	0.273442
366.000000	0.269520
367.000000	0.269219
368.000000	0.261552
369.000000	0.259841
370.000000	0.263089
371.000000	0.266184
372.000000	0.267888
373.000000	0.267988
374.000000	0.268345
375.000000	0.274011
376.000000	0.276149
377.000000	0.273647
378.000000	0.272799
379.000000	0.271808
380.000000	0.271216
381.000000	0.272661
382.000000	0.273406
383.000000	0.274942
384.000000	0.277862
385.000000	0.277689
386.000000	0.278269
387.000000	0.280227
388.000000	0.280438
389.000000	0.280058
390.000000	0.279087
391.000000	0.277130
392.000000	0.276961
393.000000	0.278156
394.000000	0.279866
395.000000	0.282059
396.000000	0.282522
397.000000	0.281308
398.000000	0.281565
399.000000	0.281877
400.000000	0.281870
401.000000	0.281406
402.000000	0.282284
403.000000	0.283296
404.000000	0.283335
405.000000	0.282833
406.000000	0.283394
407.000000	0.285177
408.000000	0.285959
409.000000	0.285797
410.000000	0.285283
411.000000	0.285385
412.000000	0.285928
413.000000	0.286384
414.000000	0.286406
415.000000	0.287056
416.000000	0.287694
417.000000	0.287819
418.000000	0.287192
419.000000	0.287672
420.000000	0.288938
421.000000	0.288738
422.000000	0.289129
423.000000	0.289642
424.000000	0.289348
425.000000	0.289552
426.000000	0.290015
427.000000	0.290407
428.000000	0.290885
429.000000	0.291190
430.000000	0.291253
431.000000	0.291165
432.000000	0.291546
433.000000	0.291993
434.000000	0.291808
435.000000	0.292291
436.000000	0.292910
437.000000	0.292958
438.000000	0.292685
439.000000	0.292754
440.000000	0.293357
441.000000	0.293347
442.000000	0.293441
443.000000	0.293646
444.000000	0.293715
445.000000	0.294034
446.000000	0.294618
447.000000	0.295117
448.000000	0.295207
449.000000	0.295205
450.000000	0.295447
451.000000	0.296156
452.000000	0.296672
453.000000	0.296727
454.000000	0.296714
455.000000	0.296855
456.000000	0.297167
457.000000	0.297346
458.000000	0.297542
459.000000	0.297959
460.000000	0.298654
461.000000	0.298716
462.000000	0.298726
463.000000	0.298879
464.000000	0.299291
465.000000	0.299562
466.000000	0.299643
467.000000	0.299868
468.000000	0.300071
469.000000	0.300201
470.000000	0.300425
471.000000	0.300605
472.000000	0.300794
473.000000	0.301068
474.000000	0.301401
475.000000	0.301482
476.000000	0.301506
477.000000	0.301845
478.000000	0.301919
479.000000	0.302004
480.000000	0.302270
481.000000	0.302356
482.000000	0.302541
483.000000	0.302836
484.000000	0.303173
485.000000	0.303372
486.000000	0.303583
487.000000	0.303856
488.000000	0.304120
489.000000	0.304342
490.000000	0.304477
491.000000	0.304641
492.000000	0.304976
493.000000	0.305399
494.000000	0.305566
495.000000	0.305790
496.000000	0.306217
497.000000	0.306584
498.000000	0.306845
499.000000	0.307073
500.000000	0.307236
501.000000	0.307536
502.000000	0.307900
503.000000	0.308033
504.000000	0.308166
505.000000	0.308429
506.000000	0.308836
507.000000	0.308883
508.000000	0.309076
509.000000	0.309566
510.000000	0.309876
511.000000	0.310176
512.000000	0.310525
513.000000	0.310849
514.000000	0.311069
515.000000	0.311331
516.000000	0.311732
517.000000	0.311956
518.000000	0.312234
519.000000	0.312623
520.000000	0.312871
521.000000	0.313123
522.000000	0.313426
523.000000	0.313662
524.000000	0.313808
525.000000	0.313977
526.000000	0.314412
527.000000	0.314774
528.000000	0.315039
529.000000	0.315311
530.000000	0.315529
531.000000	0.315752
532.000000	0.315955
533.000000	0.316321
534.000000	0.316633
535.000000	0.316825
536.000000	0.317027
537.000000	0.317306
538.000000	0.317584
539.000000	0.317732
540.000000	0.318034
541.000000	0.318358
542.000000	0.318606
543.000000	0.318940
544.000000	0.319246
545.000000	0.319418
546.000000	0.319644
547.000000	0.319956
548.000000	0.320340
549.000000	0.320620
550.000000	0.320935
551.000000	0.321273
552.000000	0.321531
553.000000	0.321808
554.000000	0.322116
555.000000	0.322455
556.000000	0.322805
557.000000	0.323093
558.000000	0.323424
559.000000	0.323702
560.000000	0.323980
561.000000	0.324315
562.000000	0.324593
563.000000	0.324824
564.000000	0.325087
565.000000	0.325344
566.000000	0.325717
567.000000	0.326084
568.000000	0.326340
569.000000	0.326525
570.000000	0.326789
571.000000	0.327141
572.000000	0.327502
573.000000	0.327823
574.000000	0.328111
575.000000	0.328456
576.000000	0.328778
577.000000	0.329063
578.000000	0.329377
579.000000	0.329645
580.000000	0.329897
581.000000	0.330157
582.000000	0.330464
583.000000	0.330729
584.000000	0.330997
585.000000	0.331387
586.000000	0.331609
587.000000	0.331755
588.000000	0.331997
589.000000	0.332324
590.000000	0.332638
591.000000	0.332886
592.000000	0.333143
593.000000	0.333377
594.000000	0.333595
595.000000	0.333856
596.000000	0.334054
597.000000	0.334246
598.000000	0.334434
599.000000	0.334560
600.000000	0.334707
601.000000	0.334868
602.000000	0.335100
603.000000	0.335294
604.000000	0.335431
605.000000	0.335618
606.000000	0.335762
607.000000	0.335886
608.000000	0.336071
609.000000	0.336277
610.000000	0.336475
611.000000	0.336635
612.000000	0.336706
613.000000	0.336838
614.000000	0.337112
615.000000	0.337204
616.000000	0.337294
617.000000	0.337409
618.000000	0.337562
619.000000	0.337708
620.000000	0.337831
621.000000	0.337992
622.000000	0.338116
623.000000	0.338191
624.000000	0.338235
625.000000	0.338353
626.000000	0.338459
627.000000	0.338545
628.000000	0.338737
629.000000	0.339010
630.000000	0.339177
631.000000	0.339289
632.000000	0.339417
633.000000	0.339578
634.000000	0.339750
635.000000	0.339935
636.000000	0.340102
637.000000	0.340219
638.000000	0.340312
639.000000	0.340484
640.000000	0.340729
641.000000	0.340758
642.000000	0.340874
643.000000	0.341033
644.000000	0.341110
645.000000	0.341188
646.000000	0.341288
647.000000	0.341393
648.000000	0.341543
649.000000	0.341705
650.000000	0.341859
651.000000	0.342081
652.000000	0.342186
653.000000	0.342261
654.000000	0.342409
655.000000	0.342529
656.000000	0.342661
657.000000	0.342790
658.000000	0.342945
659.000000	0.343128
660.000000	0.343314
661.000000	0.343496
662.000000	0.343611
663.000000	0.343733
664.000000	0.343898
665.000000	0.343972
666.000000	0.344025
667.000000	0.344122
668.000000	0.344255
669.000000	0.344400
670.000000	0.344549
671.000000	0.344692
672.000000	0.344871
673.000000	0.345056
674.000000	0.345177
675.000000	0.345289
676.000000	0.345423
677.000000	0.345613
678.000000	0.345821
679.000000	0.345987
680.000000	0.346109
681.000000	0.346301
682.000000	0.346511
683.000000	0.346654
684.000000	0.346871
685.000000	0.346979
686.000000	0.347043
687.000000	0.347143
688.000000	0.347257
689.000000	0.347357
690.000000	0.347481
691.000000	0.347707
692.000000	0.347891
693.000000	0.348066
694.000000	0.348272
695.000000	0.348469
696.000000	0.348642
697.000000	0.348787
698.000000	0.348879
699.000000	0.348987
700.000000	0.349168
701.000000	0.349360
702.000000	0.349549
703.000000	0.349696
704.000000	0.349783
705.000000	0.349901
706.000000	0.350009
707.000000	0.350119
708.000000	0.350227
709.000000	0.350322
710.000000	0.350431
711.000000	0.350624
712.000000	0.350823
713.000000	0.351007
714.000000	0.351169
715.000000	0.351325
716.000000	0.351444
717.000000	0.351462
718.000000	0.351566
719.000000	0.351699
720.000000	0.351822
721.000000	0.352039
722.000000	0.352200
723.000000	0.352321
724.000000	0.352439
725.000000	0.352532
726.000000	0.352670
727.000000	0.352762
728.000000	0.352842
729.000000	0.352961
730.000000	0.353082
731.000000	0.353166
732.000000	0.353221
733.000000	0.353304
734.000000	0.353412
735.000000	0.353445
736.000000	0.353530
737.000000	0.353589
738.000000	0.353682
739.000000	0.353840
740.000000	0.353885
741.000000	0.353941
742.000000	0.354050
743.000000	0.354155
744.000000	0.354182
745.000000	0.354159
746.000000	0.354186
747.000000	0.354250
748.000000	0.354301
749.000000	0.354368
750.000000	0.354436
751.000000	0.354509
752.000000	0.354587
753.000000	0.354664
754.000000	0.354690
755.000000	0.354816
756.000000	0.354975
757.000000	0.355019
758.000000	0.355078
759.000000	0.355206
760.000000	0.355327
761.000000	0.355417
762.000000	0.355589
763.000000	0.355756
764.000000	0.355806
765.000000	0.355845
766.000000	0.355871
767.000000	0.355858
768.000000	0.355840
769.000000	0.355860
770.000000	0.355913
771.000000	0.355898
772.000000	0.356042
773.000000	0.356161
774.000000	0.356095
775.000000	0.356143
776.000000	0.356200
777.000000	0.356161
778.000000	0.356172
779.000000	0.356207
780.000000	0.356270
781.000000	0.356366
782.000000	0.356383
783.000000	0.356411
784.000000	0.356382
785.000000	0.356396
786.000000	0.356435
787.000000	0.356487
788.000000	0.356590
789.000000	0.356652
790.000000	0.356680
791.000000	0.356778
792.000000	0.356840
793.000000	0.356866
794.000000	0.356884
795.000000	0.356923
796.000000	0.356969
797.000000	0.356989
798.000000	0.356946
799.000000	0.356880
800.000000	0.356863
801.000000	0.356941
802.000000	0.356960
803.000000	0.356926
804.000000	0.356912
805.000000	0.356955
806.000000	0.356955
807.000000	0.356965
808.000000	0.356935
809.000000	0.356939
810.000000	0.356920
811.000000	0.356843
812.000000	0.356867
813.000000	0.356904
814.000000	0.356923
815.000000	0.356962
816.000000	0.356901
817.000000	0.356802
818.000000	0.356679
819.000000	0.356695
820.000000	0.356783
821.000000	0.356818
822.000000	0.356765
823.000000	0.356798
824.000000	0.356782
825.000000	0.356659
826.000000	0.356642
827.000000	0.356556
828.000000	0.356400
829.000000	0.356480
830.000000	0.356483
831.000000	0.356426
832.000000	0.356304
833.000000	0.356170
834.000000	0.356149
835.000000	0.356297
836.000000	0.356299
837.000000	0.356278
838.000000	0.356275
839.000000	0.356213
840.000000	0.356150
841.000000	0.356111
842.000000	0.356076
843.000000	0.356136
844.000000	0.356159
845.000000	0.356070
846.000000	0.355945
847.000000	0.355789
848.000000	0.355662
849.000000	0.355633
850.000000	0.355481
851.000000	0.355363
852.000000	0.355362
853.000000	0.355304
854.000000	0.355289
855.000000	0.355371
856.000000	0.355361
857.000000	0.355277
858.000000	0.355181
859.000000	0.355056
860.000000	0.355036
861.000000	0.355035
862.000000	0.355012
863.000000	0.354871
864.000000	0.354757
865.000000	0.354635
866.000000	0.354525
867.000000	0.354493
868.000000	0.354427
869.000000	0.354329
870.000000	0.354346
871.000000	0.354193
872.000000	0.353941
873.000000	0.353666
874.000000	0.353631
875.000000	0.353615
876.000000	0.353536
877.000000	0.353299
878.000000	0.352952
879.000000	0.352773
880.000000	0.352702
881.000000	0.352569
882.000000	0.352420
883.000000	0.352254
884.000000	0.352007
885.000000	0.351887
886.000000	0.351639
887.000000	0.351232
888.000000	0.351021
889.000000	0.350882
890.000000	0.350670
891.000000	0.350495
892.000000	0.350293
893.000000	0.350144
894.000000	0.350138
895.000000	0.349894
896.000000	0.349661
897.000000	0.349505
898.000000	0.349410
899.000000	0.349252
900.000000	0.349081
901.000000	0.348887
902.000000	0.348717
903.000000	0.348505
904.000000	0.348353
905.000000	0.348221
906.000000	0.347899
907.000000	0.347660
908.000000	0.347619
909.000000	0.347500
910.000000	0.347352
911.000000	0.347156
912.000000	0.346933
913.000000	0.346788
914.000000	0.346542
915.000000	0.346255
916.000000	0.345977
917.000000	0.345777
918.000000	0.345563
919.000000	0.345288
920.000000	0.345222
921.000000	0.345120
922.000000	0.344914
923.000000	0.344615
924.000000	0.344450
925.000000	0.344225
926.000000	0.343892
927.000000	0.343594
928.000000	0.343304
929.000000	0.343012
930.000000	0.342730
931.000000	0.342537
932.000000	0.342304
933.000000	0.342045
934.000000	0.341813
935.000000	0.341538
936.000000	0.341229
937.000000	0.340826
938.000000	0.340474
939.000000	0.340333
940.000000	0.340200
941.000000	0.339874
942.000000	0.339616
943.000000	0.339384
944.000000	0.339039
945.000000	0.338843
946.000000	0.338465
947.000000	0.338024
948.000000	0.337667
949.000000	0.337372
950.000000	0.337070
951.000000	0.336806
952.000000	0.336850
953.000000	0.336805
954.000000	0.336745
955.000000	0.336639
956.000000	0.336235
957.000000	0.335971
958.000000	0.335849
959.000000	0.335782
960.000000	0.335435
961.000000	0.335082
962.000000	0.334891
963.000000	0.334910
964.000000	0.334796
965.000000	0.334599
966.000000	0.334316
967.000000	0.334109
968.000000	0.333818
969.000000	0.333380
970.000000	0.332968
971.000000	0.332795
972.000000	0.332702
973.000000	0.332482
974.000000	0.332148
975.000000	0.331822
976.000000	0.331645
977.000000	0.331643
978.000000	0.331576
979.000000	0.331306
980.000000	0.330868
981.000000	0.330848
982.000000	0.330774
983.000000	0.330388
984.000000	0.329976
985.000000	0.330133
986.000000	0.329922
987.000000	0.329698
988.000000	0.329618
989.000000	0.329313
990.000000	0.328987
991.000000	0.328726
992.000000	0.328599
993.000000	0.328508
994.000000	0.328401
995.000000	0.328261
996.000000	0.327758
997.000000	0.327956
998.000000	0.327895
999.000000	0.327409
1000.000000	0.327544
1001.000000	0.327597
1002.000000	0.327740
1003.000000	0.327512
1004.000000	0.327181
1005.000000	0.327154
1006.000000	0.326919
1007.000000	0.326114
1008.000000	0.325905
1009.000000	0.326411
1010.000000	0.326982
1011.000000	0.326633
1012.000000	0.325770
1013.000000	0.325457
1014.000000	0.325503
1015.000000	0.326289
1016.000000	0.327426
1017.000000	0.327268
1018.000000	0.326878
1019.000000	0.326597
1020.000000	0.326074
1021.000000	0.325369
1022.000000	0.324500
1023.000000	0.324369
1024.000000	0.324174
1025.000000	0.324489
1026.000000	0.325191
1027.000000	0.326099
1028.000000	0.325860
1029.000000	0.325157
1030.000000	0.324716
1031.000000	0.324157
1032.000000	0.324173
1033.000000	0.324929
1034.000000	0.325350
1035.000000	0.325973
1036.000000	0.326033
1037.000000	0.325717
1038.000000	0.325526
1039.000000	0.324945
1040.000000	0.325191
1041.000000	0.325227
1042.000000	0.325330
1043.000000	0.325386
1044.000000	0.325108
1045.000000	0.325611
1046.000000	0.325884
1047.000000	0.326374
1048.000000	0.327501
1049.000000	0.327562
1050.000000	0.326900
1051.000000	0.326954
1052.000000	0.326794
1053.000000	0.326527
1054.000000	0.326844
1055.000000	0.327067
1056.000000	0.327092
1057.000000	0.326849
1058.000000	0.327051
1059.000000	0.327511
1060.000000	0.327953
1061.000000	0.328278
1062.000000	0.328311
1063.000000	0.328708
1064.000000	0.329059
1065.000000	0.329237
1066.000000	0.329451
1067.000000	0.329991
1068.000000	0.329934
1069.000000	0.329103
1070.000000	0.329059
1071.000000	0.329371
1072.000000	0.329444
1073.000000	0.329839
1074.000000	0.330115
1075.000000	0.330164
1076.000000	0.330414
1077.000000	0.330762
1078.000000	0.331201
1079.000000	0.331385
1080.000000	0.331290
1081.000000	0.331472
1082.000000	0.331819
1083.000000	0.332013
1084.000000	0.332301
1085.000000	0.332573
1086.000000	0.332717
1087.000000	0.332899
1088.000000	0.332991
1089.000000	0.333153
1090.000000	0.333208
1091.000000	0.333413
1092.000000	0.333699
1093.000000	0.334297
1094.000000	0.334466
1095.000000	0.334356
1096.000000	0.334512
1097.000000	0.334583
1098.000000	0.334745
1099.000000	0.334963
1100.000000	0.335397
1101.000000	0.336079
1102.000000	0.336257
1103.000000	0.336186
1104.000000	0.336418
1105.000000	0.336361
1106.000000	0.336537
1107.000000	0.337434
1108.000000	0.337699
1109.000000	0.337629
1110.000000	0.337368
1111.000000	0.337426
1112.000000	0.337375
1113.000000	0.337448
1114.000000	0.337852
1115.000000	0.337975
1116.000000	0.337832
1117.000000	0.337935
1118.000000	0.338033
1119.000000	0.338265
1120.000000	0.338728
1121.000000	0.339019
1122.000000	0.339707
1123.000000	0.340025
1124.000000	0.339553
1125.000000	0.339524
1126.000000	0.339268
1127.000000	0.339193
1128.000000	0.339288
1129.000000	0.339873
1130.000000	0.339992
1131.000000	0.340008
1132.000000	0.340010
1133.000000	0.339840
1134.000000	0.339950
1135.000000	0.340147
1136.000000	0.340293
1137.000000	0.340567
1138.000000	0.340692
1139.000000	0.340854
1140.000000	0.341004
1141.000000	0.340934
1142.000000	0.341065
1143.000000	0.341306
1144.000000	0.341492
1145.000000	0.341495
1146.000000	0.341581
1147.000000	0.341545
1148.000000	0.341203
1149.000000	0.341102
1150.000000	0.341061
1151.000000	0.341139
1152.000000	0.341240
1153.000000	0.341386
1154.000000	0.341684
1155.000000	0.341783
1156.000000	0.341815
1157.000000	0.341834
1158.000000	0.341702
1159.000000	0.341625
1160.000000	0.341497
1161.000000	0.341433
1162.000000	0.341454
1163.000000	0.341606
1164.000000	0.341698
1165.000000	0.341718
1166.000000	0.341789
1167.000000	0.341786
1168.000000	0.341805
1169.000000	0.341939
1170.000000	0.341928
1171.000000	0.341797
1172.000000	0.341885
1173.000000	0.342000
1174.000000	0.342083
1175.000000	0.342399
1176.000000	0.342345
1177.000000	0.341987
1178.000000	0.341884
1179.000000	0.341749
1180.000000	0.341600
1181.000000	0.341709
1182.000000	0.341751
1183.000000	0.341558
1184.000000	0.341472
1185.000000	0.341508
1186.000000	0.341601
1187.000000	0.341651
1188.000000	0.341859
1189.000000	0.341858
1190.000000	0.341757
1191.000000	0.341719
1192.000000	0.341752
1193.000000	0.341864
1194.000000	0.341868
1195.000000	0.341920
1196.000000	0.341965
1197.000000	0.342001
1198.000000	0.342112
1199.000000	0.342143
1200.000000	0.342050
1201.000000	0.342093
1202.000000	0.342116
1203.000000	0.342005
1204.000000	0.342014
1205.000000	0.342022
1206.000000	0.341986
1207.000000	0.342040
1208.000000	0.342016
1209.000000	0.342032
1210.000000	0.342001
1211.000000	0.341852
1212.000000	0.341869
1213.000000	0.342012
1214.000000	0.342113
1215.000000	0.342344
1216.000000	0.342404
1217.000000	0.342329
1218.000000	0.342243
1219.000000	0.342103
1220.000000	0.341946
1221.000000	0.341898
1222.000000	0.341798
1223.000000	0.341648
1224.000000	0.341691
1225.000000	0.341812
1226.000000	0.341797
1227.000000	0.341751
1228.000000	0.341881
1229.000000	0.341887
1230.000000	0.341732
1231.000000	0.341683
1232.000000	0.341870
1233.000000	0.341937
1234.000000	0.341955
1235.000000	0.341928
1236.000000	0.341716
1237.000000	0.341677
1238.000000	0.341653
1239.000000	0.341577
1240.000000	0.341579
1241.000000	0.341426
1242.000000	0.341269
1243.000000	0.341188
1244.000000	0.341210
1245.000000	0.341350
1246.000000	0.341264
1247.000000	0.341279
1248.000000	0.341340
1249.000000	0.341226
1250.000000	0.341357
1251.000000	0.341485
1252.000000	0.341442
1253.000000	0.341354
1254.000000	0.341276
1255.000000	0.340990
1256.000000	0.340916
1257.000000	0.340984
1258.000000	0.341049
1259.000000	0.341137
1260.000000	0.341230
1261.000000	0.341280
1262.000000	0.341303
1263.000000	0.341309
1264.000000	0.341360
1265.000000	0.341338
1266.000000	0.341380
1267.000000	0.341470
1268.000000	0.341461
1269.000000	0.341456
1270.000000	0.341339
1271.000000	0.341198
1272.000000	0.341175
1273.000000	0.341159
1274.000000	0.341232
1275.000000	0.341171
1276.000000	0.341075
1277.000000	0.341028
1278.000000	0.340736
1279.000000	0.340697
1280.000000	0.340826
1281.000000	0.340742
1282.000000	0.340711
1283.000000	0.340751
1284.000000	0.340607
1285.000000	0.340530
1286.000000	0.340522
1287.000000	0.340522
1288.000000	0.340407
1289.000000	0.340400
1290.000000	0.340365
1291.000000	0.340300
1292.000000	0.340370
1293.000000	0.340237
1294.000000	0.340029
1295.000000	0.340003
1296.000000	0.339997
1297.000000	0.340121
1298.000000	0.340394
1299.000000	0.340555
1300.000000	0.340663
1301.000000	0.340655
1302.000000	0.340587
1303.000000	0.340571
1304.000000	0.340514
1305.000000	0.340466
1306.000000	0.340473
1307.000000	0.340543
1308.000000	0.340623
1309.000000	0.340751
1310.000000	0.340801
1311.000000	0.340876
1312.000000	0.340910
1313.000000	0.340741
1314.000000	0.340593
1315.000000	0.340428
1316.000000	0.340215
1317.000000	0.340104
1318.000000	0.340045
1319.000000	0.339873
1320.000000	0.339903
1321.000000	0.339953
1322.000000	0.339765
1323.000000	0.339722
1324.000000	0.339676
1325.000000	0.339480
1326.000000	0.339508
1327.000000	0.339473
1328.000000	0.339261
1329.000000	0.339001
1330.000000	0.338622
1331.000000	0.338411
1332.000000	0.338274
1333.000000	0.338163
1334.000000	0.338280
1335.000000	0.338210
1336.000000	0.337968
1337.000000	0.337902
1338.000000	0.337774
1339.000000	0.337764
1340.000000	0.337872
1341.000000	0.337827
1342.000000	0.337726
1343.000000	0.337616
1344.000000	0.337581
1345.000000	0.337616
1346.000000	0.337619
1347.000000	0.337543
1348.000000	0.337537
1349.000000	0.337454
1350.000000	0.337411
1351.000000	0.337316
1352.000000	0.337034
1353.000000	0.336806
1354.000000	0.336673
1355.000000	0.336387
1356.000000	0.336278
1357.000000	0.336217
1358.000000	0.335952
1359.000000	0.335868
1360.000000	0.335803
1361.000000	0.335838
1362.000000	0.335691
1363.000000	0.335482
1364.000000	0.335326
1365.000000	0.335044
1366.000000	0.334902
1367.000000	0.334886
1368.000000	0.334783
1369.000000	0.334670
1370.000000	0.334365
1371.000000	0.333948
1372.000000	0.333594
1373.000000	0.333288
1374.000000	0.332979
1375.000000	0.332619
1376.000000	0.332315
1377.000000	0.331782
1378.000000	0.331022
1379.000000	0.330230
1380.000000	0.329172
1381.000000	0.327864
1382.000000	0.326540
1383.000000	0.325084
1384.000000	0.323408
1385.000000	0.321959
1386.000000	0.320676
1387.000000	0.319373
1388.000000	0.318334
1389.000000	0.317419
1390.000000	0.316747
1391.000000	0.316393
1392.000000	0.316223
1393.000000	0.316128
1394.000000	0.316339
1395.000000	0.316392
1396.000000	0.316491
1397.000000	0.316478
1398.000000	0.316391
1399.000000	0.316295
1400.000000	0.316189
1401.000000	0.315876
1402.000000	0.315545
1403.000000	0.314994
1404.000000	0.314355
1405.000000	0.313789
1406.000000	0.313213
1407.000000	0.312730
1408.000000	0.312299
1409.000000	0.311887
1410.000000	0.311571
1411.000000	0.311273
1412.000000	0.310925
1413.000000	0.310630
1414.000000	0.310341
1415.000000	0.310046
1416.000000	0.309874
1417.000000	0.309753
1418.000000	0.309542
1419.000000	0.309444
1420.000000	0.309217
1421.000000	0.309019
1422.000000	0.309058
1423.000000	0.309074
1424.000000	0.308953
1425.000000	0.308912
1426.000000	0.308759
1427.000000	0.308671
1428.000000	0.308712
1429.000000	0.308728
1430.000000	0.308703
1431.000000	0.308595
1432.000000	0.308528
1433.000000	0.308496
1434.000000	0.308483
1435.000000	0.308606
1436.000000	0.308643
1437.000000	0.308691
1438.000000	0.308624
1439.000000	0.308453
1440.000000	0.308380
1441.000000	0.308352
1442.000000	0.308268
1443.000000	0.308127
1444.000000	0.308031
1445.000000	0.307867
1446.000000	0.307696
1447.000000	0.307611
1448.000000	0.307565
1449.000000	0.307546
1450.000000	0.307546
1451.000000	0.307512
1452.000000	0.307454
1453.000000	0.307382
1454.000000	0.307148
1455.000000	0.307008
1456.000000	0.307015
1457.000000	0.306978
1458.000000	0.307029
1459.000000	0.306957
1460.000000	0.306762
1461.000000	0.306654
1462.000000	0.306521
1463.000000	0.306425
1464.000000	0.306459
1465.000000	0.306481
1466.000000	0.306472
1467.000000	0.306549
1468.000000	0.306722
1469.000000	0.306996
1470.000000	0.307150
1471.000000	0.307234
1472.000000	0.307315
1473.000000	0.307487
1474.000000	0.307663
1475.000000	0.307906
1476.000000	0.308187
1477.000000	0.308332
1478.000000	0.308519
1479.000000	0.308833
1480.000000	0.309226
1481.000000	0.309515
1482.000000	0.309834
1483.000000	0.310119
1484.000000	0.310340
1485.000000	0.310539
1486.000000	0.310722
1487.000000	0.310979
1488.000000	0.311213
1489.000000	0.311480
1490.000000	0.311702
1491.000000	0.311970
1492.000000	0.312235
1493.000000	0.312499
1494.000000	0.312754
1495.000000	0.313015
1496.000000	0.313230
1497.000000	0.313444
1498.000000	0.313740
1499.000000	0.313898
1500.000000	0.313990
1501.000000	0.314131
1502.000000	0.314243
1503.000000	0.314390
1504.000000	0.314617
1505.000000	0.314795
1506.000000	0.314969
1507.000000	0.315125
1508.000000	0.315218
1509.000000	0.315472
1510.000000	0.315694
1511.000000	0.315808
1512.000000	0.315976
1513.000000	0.316060
1514.000000	0.316120
1515.000000	0.316263
1516.000000	0.316449
1517.000000	0.316491
1518.000000	0.316493
1519.000000	0.316587
1520.000000	0.316814
1521.000000	0.316979
1522.000000	0.317217
1523.000000	0.317434
1524.000000	0.317372
1525.000000	0.317488
1526.000000	0.317527
1527.000000	0.317468
1528.000000	0.317628
1529.000000	0.317584
1530.000000	0.317564
1531.000000	0.317756
1532.000000	0.317753
1533.000000	0.317806
1534.000000	0.317913
1535.000000	0.317923
1536.000000	0.318007
1537.000000	0.318184
1538.000000	0.318314
1539.000000	0.318435
1540.000000	0.318598
1541.000000	0.318743
1542.000000	0.318954
1543.000000	0.319153
1544.000000	0.319172
1545.000000	0.319183
1546.000000	0.319165
1547.000000	0.319177
1548.000000	0.319328
1549.000000	0.319448
1550.000000	0.319530
1551.000000	0.319600
1552.000000	0.319600
1553.000000	0.319586
1554.000000	0.319633
1555.000000	0.319686
1556.000000	0.319753
1557.000000	0.319804
1558.000000	0.319829
1559.000000	0.319752
1560.000000	0.319687
1561.000000	0.319582
1562.000000	0.319605
1563.000000	0.319768
1564.000000	0.319824
1565.000000	0.319923
1566.000000	0.319909
1567.000000	0.319825
1568.000000	0.319794
1569.000000	0.319874
1570.000000	0.319943
1571.000000	0.320029
1572.000000	0.320062
1573.000000	0.320093
1574.000000	0.320085
1575.000000	0.319986
1576.000000	0.320017
1577.000000	0.320122
1578.000000	0.320142
1579.000000	0.320303
1580.000000	0.320256
1581.000000	0.320089
1582.000000	0.319969
1583.000000	0.319696
1584.000000	0.319610
1585.000000	0.319716
1586.000000	0.319840
1587.000000	0.320148
1588.000000	0.320228
1589.000000	0.320238
1590.000000	0.320221
1591.000000	0.320078
1592.000000	0.320034
1593.000000	0.320067
1594.000000	0.320048
1595.000000	0.320032
1596.000000	0.320058
1597.000000	0.320161
1598.000000	0.320202
1599.000000	0.320310
1600.000000	0.320316
1601.000000	0.320259
1602.000000	0.320265
1603.000000	0.320322
1604.000000	0.320350
1605.000000	0.320450
1606.000000	0.320463
1607.000000	0.320455
1608.000000	0.320466
1609.000000	0.320515
1610.000000	0.320500
1611.000000	0.320491
1612.000000	0.320463
1613.000000	0.320434
1614.000000	0.320466
1615.000000	0.320664
1616.000000	0.320761
1617.000000	0.320791
1618.000000	0.320810
1619.000000	0.320719
1620.000000	0.320723
1621.000000	0.320855
1622.000000	0.320929
1623.000000	0.320955
1624.000000	0.320969
1625.000000	0.320744
1626.000000	0.320670
1627.000000	0.320722
1628.000000	0.320735
1629.000000	0.320799
1630.000000	0.320840
1631.000000	0.320703
1632.000000	0.320733
1633.000000	0.320888
1634.000000	0.320931
1635.000000	0.321109
1636.000000	0.321120
1637.000000	0.320964
1638.000000	0.320918
1639.000000	0.320937
1640.000000	0.320914
1641.000000	0.320973
1642.000000	0.320966
1643.000000	0.320900
1644.000000	0.320925
1645.000000	0.321026
1646.000000	0.321019
1647.000000	0.321034
1648.000000	0.320989
1649.000000	0.320919
1650.000000	0.320951
1651.000000	0.321059
1652.000000	0.321223
1653.000000	0.321398
1654.000000	0.321571
1655.000000	0.321760
1656.000000	0.321809
1657.000000	0.321859
1658.000000	0.321902
1659.000000	0.322000
1660.000000	0.322054
1661.000000	0.322050
1662.000000	0.321997
1663.000000	0.321776
1664.000000	0.321769
1665.000000	0.321787
1666.000000	0.321956
1667.000000	0.322306
1668.000000	0.322361
1669.000000	0.322290
1670.000000	0.322220
1671.000000	0.322100
1672.000000	0.322133
1673.000000	0.322248
1674.000000	0.322326
1675.000000	0.322413
1676.000000	0.322514
1677.000000	0.322570
1678.000000	0.322662
1679.000000	0.322617
1680.000000	0.322403
1681.000000	0.322264
1682.000000	0.322145
1683.000000	0.322010
1684.000000	0.321994
1685.000000	0.322152
1686.000000	0.322263
1687.000000	0.322488
1688.000000	0.322669
1689.000000	0.322670
1690.000000	0.322663
1691.000000	0.322647
1692.000000	0.322595
1693.000000	0.322553
1694.000000	0.322432
1695.000000	0.322388
1696.000000	0.322486
1697.000000	0.322435
1698.000000	0.322351
1699.000000	0.322386
1700.000000	0.322365
1701.000000	0.322481
1702.000000	0.322681
1703.000000	0.322717
1704.000000	0.322770
1705.000000	0.322778
1706.000000	0.322674
1707.000000	0.322687
1708.000000	0.322723
1709.000000	0.322704
1710.000000	0.322915
1711.000000	0.322950
1712.000000	0.322778
1713.000000	0.322781
1714.000000	0.322801
1715.000000	0.322903
1716.000000	0.323297
1717.000000	0.323431
1718.000000	0.323398
1719.000000	0.323391
1720.000000	0.323327
1721.000000	0.323296
1722.000000	0.323299
1723.000000	0.323305
1724.000000	0.323338
1725.000000	0.323341
1726.000000	0.323232
1727.000000	0.323224
1728.000000	0.323167
1729.000000	0.323093
1730.000000	0.323233
1731.000000	0.323233
1732.000000	0.323164
1733.000000	0.323165
1734.000000	0.322951
1735.000000	0.323020
1736.000000	0.323275
1737.000000	0.323245
1738.000000	0.323266
1739.000000	0.323185
1740.000000	0.322769
1741.000000	0.322715
1742.000000	0.322906
1743.000000	0.322919
1744.000000	0.322949
1745.000000	0.322870
1746.000000	0.322652
1747.000000	0.322498
1748.000000	0.322431
1749.000000	0.322610
1750.000000	0.322558
1751.000000	0.322509
1752.000000	0.322620
1753.000000	0.322518
1754.000000	0.322463
1755.000000	0.322550
1756.000000	0.322540
1757.000000	0.322383
1758.000000	0.322331
1759.000000	0.322308
1760.000000	0.322301
1761.000000	0.322283
1762.000000	0.322301
1763.000000	0.322419
1764.000000	0.322442
1765.000000	0.322347
1766.000000	0.322409
1767.000000	0.322497
1768.000000	0.322413
1769.000000	0.322412
1770.000000	0.322463
1771.000000	0.322316
1772.000000	0.322298
1773.000000	0.322434
1774.000000	0.322442
1775.000000	0.322377
1776.000000	0.322445
1777.000000	0.322607
1778.000000	0.322566
1779.000000	0.322451
1780.000000	0.322425
1781.000000	0.322204
1782.000000	0.322244
1783.000000	0.322629
1784.000000	0.322641
1785.000000	0.322435
1786.000000	0.322457
1787.000000	0.322488
1788.000000	0.322461
1789.000000	0.322778
1790.000000	0.322925
1791.000000	0.322913
1792.000000	0.322976
1793.000000	0.323042
1794.000000	0.322936
1795.000000	0.322989
1796.000000	0.323295
1797.000000	0.323385
1798.000000	0.323360
1799.000000	0.323352
1800.000000	0.323211
1801.000000	0.322500
1802.000000	0.322996
1803.000000	0.324428
1804.000000	0.324866
1805.000000	0.325397
1806.000000	0.325409
1807.000000	0.324397
1808.000000	0.323932
1809.000000	0.323430
1810.000000	0.322968
1811.000000	0.322897
1812.000000	0.323151
1813.000000	0.323395
1814.000000	0.324259
1815.000000	0.324482
1816.000000	0.324221
1817.000000	0.324291
1818.000000	0.324395
1819.000000	0.324364
1820.000000	0.325011
1821.000000	0.325769
1822.000000	0.325669
1823.000000	0.324840
1824.000000	0.324418
1825.000000	0.323424
1826.000000	0.322825
1827.000000	0.322482
1828.000000	0.322113
1829.000000	0.321792
1830.000000	0.321765
1831.000000	0.321219
1832.000000	0.320487
1833.000000	0.320192
1834.000000	0.319301
1835.000000	0.319421
1836.000000	0.320778
1837.000000	0.321185
1838.000000	0.321391
1839.000000	0.321646
1840.000000	0.321244
1841.000000	0.321281
1842.000000	0.321256
1843.000000	0.321599
1844.000000	0.321317
1845.000000	0.320339
1846.000000	0.319761
1847.000000	0.318880
1848.000000	0.318164
1849.000000	0.317584
1850.000000	0.318205
1851.000000	0.318378
1852.000000	0.318803
1853.000000	0.318848
1854.000000	0.318539
1855.000000	0.318118
1856.000000	0.317317
1857.000000	0.316645
1858.000000	0.316159
1859.000000	0.316310
1860.000000	0.316440
1861.000000	0.316248
1862.000000	0.315733
1863.000000	0.314769
1864.000000	0.314145
1865.000000	0.313400
1866.000000	0.312716
1867.000000	0.312264
1868.000000	0.311698
1869.000000	0.310478
1870.000000	0.309384
1871.000000	0.308187
1872.000000	0.306704
1873.000000	0.305621
1874.000000	0.305123
1875.000000	0.303850
1876.000000	0.302266
1877.000000	0.300289
1878.000000	0.297723
1879.000000	0.295007
1880.000000	0.292918
1881.000000	0.291020
1882.000000	0.288920
1883.000000	0.286653
1884.000000	0.284326
1885.000000	0.281315
1886.000000	0.278733
1887.000000	0.276519
1888.000000	0.273717
1889.000000	0.270647
1890.000000	0.267614
1891.000000	0.264201
1892.000000	0.260997
1893.000000	0.257717
1894.000000	0.254596
1895.000000	0.251511
1896.000000	0.248413
1897.000000	0.245637
1898.000000	0.243217
1899.000000	0.240791
1900.000000	0.238746
1901.000000	0.236667
1902.000000	0.234681
1903.000000	0.233128
1904.000000	0.231510
1905.000000	0.230382
1906.000000	0.229382
1907.000000	0.228659
1908.000000	0.228128
1909.000000	0.227773
1910.000000	0.227084
1911.000000	0.226905
1912.000000	0.226414
1913.000000	0.226448
1914.000000	0.226799
1915.000000	0.226649
1916.000000	0.227341
1917.000000	0.227355
1918.000000	0.227235
1919.000000	0.226787
1920.000000	0.226157
1921.000000	0.225180
1922.000000	0.224921
1923.000000	0.225031
1924.000000	0.225697
1925.000000	0.226891
1926.000000	0.227405
1927.000000	0.227828
1928.000000	0.228198
1929.000000	0.228445
1930.000000	0.228234
1931.000000	0.228431
1932.000000	0.229120
1933.000000	0.229495
1934.000000	0.229423
1935.000000	0.229862
1936.000000	0.229957
1937.000000	0.229993
1938.000000	0.230642
1939.000000	0.230901
1940.000000	0.230931
1941.000000	0.230915
1942.000000	0.230968
1943.000000	0.230578
1944.000000	0.230348
1945.000000	0.230536
1946.000000	0.230637
1947.000000	0.231094
1948.000000	0.232135
1949.000000	0.232619
1950.000000	0.233338
1951.000000	0.233760
1952.000000	0.234235
1953.000000	0.233780
1954.000000	0.233742
1955.000000	0.233539
1956.000000	0.233169
1957.000000	0.232815
1958.000000	0.232522
1959.000000	0.232434
1960.000000	0.232252
1961.000000	0.232525
1962.000000	0.232689
1963.000000	0.232854
1964.000000	0.233284
1965.000000	0.233878
1966.000000	0.234040
1967.000000	0.234654
1968.000000	0.234692
1969.000000	0.234534
1970.000000	0.235320
1971.000000	0.235636
1972.000000	0.235872
1973.000000	0.235929
1974.000000	0.235312
1975.000000	0.235374
1976.000000	0.235664
1977.000000	0.236371
1978.000000	0.237270
1979.000000	0.238586
1980.000000	0.238993
1981.000000	0.239263
1982.000000	0.239634
1983.000000	0.240246
1984.000000	0.240636
1985.000000	0.241421
1986.000000	0.241436
1987.000000	0.240929
1988.000000	0.240515
1989.000000	0.240443
1990.000000	0.240231
1991.000000	0.240561
1992.000000	0.241178
1993.000000	0.241773
1994.000000	0.243165
1995.000000	0.244344
1996.000000	0.245013
1997.000000	0.245525
1998.000000	0.245208
1999.000000	0.245765
2000.000000	0.246711
2001.000000	0.247431
2002.000000	0.248369
2003.000000	0.249472
2004.000000	0.249696
2005.000000	0.249694
2006.000000	0.250511
2007.000000	0.250659
2008.000000	0.250953
2009.000000	0.251562
2010.000000	0.252015
2011.000000	0.251903
2012.000000	0.252258
2013.000000	0.252910
2014.000000	0.253064
2015.000000	0.253319
2016.000000	0.254232
2017.000000	0.254943
2018.000000	0.255811
2019.000000	0.256954
2020.000000	0.257260
2021.000000	0.257658
2022.000000	0.257588
2023.000000	0.257961
2024.000000	0.258435
2025.000000	0.259183
2026.000000	0.260169
2027.000000	0.261061
2028.000000	0.261554
2029.000000	0.261881
2030.000000	0.262521
2031.000000	0.263106
2032.000000	0.264062
2033.000000	0.265305
2034.000000	0.265793
2035.000000	0.265737
2036.000000	0.265814
2037.000000	0.265525
2038.000000	0.265657
2039.000000	0.265999
2040.000000	0.266514
2041.000000	0.267328
2042.000000	0.267594
2043.000000	0.267565
2044.000000	0.267826
2045.000000	0.268242
2046.000000	0.268729
2047.000000	0.269290
2048.000000	0.270455
2049.000000	0.271042
2050.000000	0.270777
2051.000000	0.270967
2052.000000	0.271018
2053.000000	0.271059
2054.000000	0.271307
2055.000000	0.271898
2056.000000	0.272394
2057.000000	0.272992
2058.000000	0.273669
2059.000000	0.274181
2060.000000	0.274850
2061.000000	0.275751
2062.000000	0.276253
2063.000000	0.276847
2064.000000	0.277006
2065.000000	0.276716
2066.000000	0.276604
2067.000000	0.276509
2068.000000	0.276754
2069.000000	0.277189
2070.000000	0.278130
2071.000000	0.278554
2072.000000	0.279123
2073.000000	0.280136
2074.000000	0.280877
2075.000000	0.281201
2076.000000	0.281613
2077.000000	0.281537
2078.000000	0.280409
2079.000000	0.279909
2080.000000	0.279543
2081.000000	0.279438
2082.000000	0.279437
2083.000000	0.279795
2084.000000	0.280370
2085.000000	0.280871
2086.000000	0.281452
2087.000000	0.281801
2088.000000	0.282080
2089.000000	0.282838
2090.000000	0.283224
2091.000000	0.283531
2092.000000	0.283975
2093.000000	0.284442
2094.000000	0.284640
2095.000000	0.284809
2096.000000	0.285038
2097.000000	0.284981
2098.000000	0.284999
2099.000000	0.284902
2100.000000	0.285648
2101.000000	0.286309
2102.000000	0.286136
2103.000000	0.286188
2104.000000	0.286393
2105.000000	0.286499
2106.000000	0.286341
2107.000000	0.286545
2108.000000	0.287023
2109.000000	0.287255
2110.000000	0.287431
2111.000000	0.287558
2112.000000	0.287592
2113.000000	0.287069
2114.000000	0.286926
2115.000000	0.287228
2116.000000	0.287470
2117.000000	0.287987
2118.000000	0.288817
2119.000000	0.289131
2120.000000	0.289657
2121.000000	0.290312
2122.000000	0.290760
2123.000000	0.291334
2124.000000	0.291475
2125.000000	0.291191
2126.000000	0.291225
2127.000000	0.290821
2128.000000	0.291138
2129.000000	0.292273
2130.000000	0.292870
2131.000000	0.292562
2132.000000	0.291822
2133.000000	0.291407
2134.000000	0.291327
2135.000000	0.292364
2136.000000	0.293677
2137.000000	0.293905
2138.000000	0.293376
2139.000000	0.292954
2140.000000	0.291658
2141.000000	0.291111
2142.000000	0.290823
2143.000000	0.290436
2144.000000	0.290259
2145.000000	0.290593
2146.000000	0.291390
2147.000000	0.292203
2148.000000	0.293483
2149.000000	0.294693
2150.000000	0.294592
2151.000000	0.294115
2152.000000	0.293276
2153.000000	0.292517
2154.000000	0.292286
2155.000000	0.292867
2156.000000	0.292635
2157.000000	0.292097
2158.000000	0.292059
2159.000000	0.292038
2160.000000	0.292165
2161.000000	0.292799
2162.000000	0.293216
2163.000000	0.293400
2164.000000	0.293337
2165.000000	0.293132
2166.000000	0.293329
2167.000000	0.292375
2168.000000	0.292009
2169.000000	0.291922
2170.000000	0.292048
2171.000000	0.292537
2172.000000	0.293785
2173.000000	0.294084
2174.000000	0.294520
2175.000000	0.294364
2176.000000	0.293208
2177.000000	0.293041
2178.000000	0.293330
2179.000000	0.293024
2180.000000	0.292869
2181.000000	0.292607
2182.000000	0.291214
2183.000000	0.289931
2184.000000	0.288893
2185.000000	0.288592
2186.000000	0.288711
2187.000000	0.288873
2188.000000	0.289024
2189.000000	0.289056
2190.000000	0.290193
2191.000000	0.291882
2192.000000	0.292935
2193.000000	0.294875
2194.000000	0.295631
2195.000000	0.294878
2196.000000	0.294911
2197.000000	0.295150
2198.000000	0.295396
2199.000000	0.295942
2200.000000	0.295725
2201.000000	0.294183
2202.000000	0.293930
2203.000000	0.293570
2204.000000	0.293973
2205.000000	0.294904
2206.000000	0.296820
2207.000000	0.294567
2208.000000	0.293082
2209.000000	0.293675
2210.000000	0.292220
2211.000000	0.293690
2212.000000	0.295224
2213.000000	0.294682
2214.000000	0.292113
2215.000000	0.291035
2216.000000	0.289165
2217.000000	0.288037
2218.000000	0.287160
2219.000000	0.287712
2220.000000	0.289743
2221.000000	0.290810
2222.000000	0.293696
2223.000000	0.294044
2224.000000	0.292235
2225.000000	0.290079
2226.000000	0.289341
2227.000000	0.288039
2228.000000	0.288040
2229.000000	0.287960
2230.000000	0.288609
2231.000000	0.289339
2232.000000	0.288467
2233.000000	0.287438
2234.000000	0.284802
2235.000000	0.284530
2236.000000	0.285886
2237.000000	0.290614
2238.000000	0.292191
2239.000000	0.294073
2240.000000	0.294414
2241.000000	0.292473
2242.000000	0.291953
2243.000000	0.292107
2244.000000	0.291423
2245.000000	0.289657
2246.000000	0.289129
2247.000000	0.288972
2248.000000	0.288469
2249.000000	0.288881
2250.000000	0.288485
2251.000000	0.287257
2252.000000	0.285576
2253.000000	0.286461
2254.000000	0.287583
2255.000000	0.287182
2256.000000	0.288077
2257.000000	0.288345
2258.000000	0.288345
2259.000000	0.288350
2260.000000	0.289501
2261.000000	0.289070
2262.000000	0.286134
2263.000000	0.285408
2264.000000	0.285208
2265.000000	0.285302
2266.000000	0.287240
2267.000000	0.288507
2268.000000	0.289269
2269.000000	0.290362
2270.000000	0.292069
2271.000000	0.291558
2272.000000	0.290195
2273.000000	0.289242
2274.000000	0.286375
2275.000000	0.285458
2276.000000	0.286752
2277.000000	0.285627
2278.000000	0.283864
2279.000000	0.283044
2280.000000	0.281866
2281.000000	0.282360
2282.000000	0.285567
2283.000000	0.285497
2284.000000	0.282046
2285.000000	0.278428
2286.000000	0.275113
2287.000000	0.272938
2288.000000	0.273270
2289.000000	0.275405
2290.000000	0.274393
2291.000000	0.274308
2292.000000	0.274839
2293.000000	0.274297
2294.000000	0.273262
2295.000000	0.271425
2296.000000	0.269782
2297.000000	0.267016
2298.000000	0.265517
2299.000000	0.265916
2300.000000	0.265472
2301.000000	0.264418
2302.000000	0.263452
2303.000000	0.262943
2304.000000	0.261302
2305.000000	0.258579
2306.000000	0.257194
2307.000000	0.256184
2308.000000	0.253751
2309.000000	0.252548
2310.000000	0.251750
2311.000000	0.251393
2312.000000	0.250946
2313.000000	0.250598
2314.000000	0.252374
2315.000000	0.252173
2316.000000	0.250821
2317.000000	0.250295
2318.000000	0.249834
2319.000000	0.250823
2320.000000	0.252022
2321.000000	0.255972
2322.000000	0.259094
2323.000000	0.260564
2324.000000	0.264517
2325.000000	0.264142
2326.000000	0.263193
2327.000000	0.264857
2328.000000	0.263125
2329.000000	0.262243
2330.000000	0.263406
2331.000000	0.261614
2332.000000	0.259858
2333.000000	0.261217
2334.000000	0.262217
2335.000000	0.262049
2336.000000	0.261167
2337.000000	0.261539
2338.000000	0.260541
2339.000000	0.260289
2340.000000	0.262433
2341.000000	0.262904
2342.000000	0.262710
2343.000000	0.262794
2344.000000	0.262389
2345.000000	0.262297
2346.000000	0.261293
2347.000000	0.259979
2348.000000	0.258892
2349.000000	0.258201
2350.000000	0.256416
2351.000000	0.257775
2352.000000	0.258083
2353.000000	0.258625
2354.000000	0.259246
2355.000000	0.257657
2356.000000	0.254665
2357.000000	0.253177
2358.000000	0.252370
2359.000000	0.252628
2360.000000	0.256424
2361.000000	0.257839
2362.000000	0.255935
2363.000000	0.254910
2364.000000	0.252315
2365.000000	0.248307
2366.000000	0.246537
2367.000000	0.246498
2368.000000	0.244239
2369.000000	0.244141
2370.000000	0.249846
2371.000000	0.249353
2372.000000	0.248140
2373.000000	0.251556
2374.000000	0.249354
2375.000000	0.250180
2376.000000	0.251641
2377.000000	0.248535
2378.000000	0.244786
2379.000000	0.236567
2380.000000	0.230282
2381.000000	0.227615
2382.000000	0.226571
2383.000000	0.234296
2384.000000	0.243207
2385.000000	0.247801
2386.000000	0.250868
2387.000000	0.243979
2388.000000	0.238737
2389.000000	0.239473
2390.000000	0.236523
2391.000000	0.234537
2392.000000	0.229949
2393.000000	0.226871
2394.000000	0.224441
2395.000000	0.226928
2396.000000	0.236030
2397.000000	0.235258
2398.000000	0.240664
2399.000000	0.243195
2400.000000	0.234253
2401.000000	0.233888
2402.000000	0.228141
2403.000000	0.226039
2404.000000	0.229901
2405.000000	0.223158
2406.000000	0.226624
2407.000000	0.227744
2408.000000	0.222637
2409.000000	0.225654
2410.000000	0.216045
2411.000000	0.208560
2412.000000	0.207488
2413.000000	0.208997
2414.000000	0.218725
2415.000000	0.224874
2416.000000	0.232530
2417.000000	0.227777
2418.000000	0.220820
2419.000000	0.223616
2420.000000	0.215868
2421.000000	0.219929
2422.000000	0.229342
2423.000000	0.222662
2424.000000	0.220073
2425.000000	0.211283
2426.000000	0.200135
2427.000000	0.207235
2428.000000	0.216651
2429.000000	0.227744
2430.000000	0.237643
2431.000000	0.238302
2432.000000	0.236849
2433.000000	0.229605
2434.000000	0.230883
2435.000000	0.231820
2436.000000	0.223019
2437.000000	0.231368
2438.000000	0.242254
2439.000000	0.240587
2440.000000	0.237485
2441.000000	0.226916
2442.000000	0.203521
2443.000000	0.190560
2444.000000	0.196903
2445.000000	0.194066
2446.000000	0.195314
2447.000000	0.207209
2448.000000	0.200071
2449.000000	0.203249
2450.000000	0.207116
2451.000000	0.204312
2452.000000	0.215927
2453.000000	0.217211
2454.000000	0.231607
2455.000000	0.250934
2456.000000	0.250873
2457.000000	0.255922
2458.000000	0.245293
2459.000000	0.230930
2460.000000	0.224503
2461.000000	0.205927
2462.000000	0.201938
2463.000000	0.188709
2464.000000	0.160662
2465.000000	0.158666
2466.000000	0.158288
2467.000000	0.164214
2468.000000	0.192621
2469.000000	0.221608
2470.000000	0.226313
2471.000000	0.201250
2472.000000	0.192156
2473.000000	0.182052
2474.000000	0.165124
2475.000000	0.187116
2476.000000	0.190535
2477.000000	0.157788
2478.000000	0.150609
2479.000000	0.144696
2480.000000	0.133144
2481.000000	0.155723
2482.000000	0.185678
2483.000000	0.213189
2484.000000	0.249187
2485.000000	0.265238
2486.000000	0.283184
2487.000000	0.278783
2488.000000	0.247174
2489.000000	0.223188
2490.000000	0.202797
2491.000000	0.222461
2492.000000	0.219317
2493.000000	0.210859
2494.000000	0.215817
2495.000000	0.221085
2496.000000	0.218872
2497.000000	0.219869
2498.000000	0.245281
2499.000000	0.304375
2500.000000	0.295263
