# Wavelength	SM1200H-50_FV7-50_00003.asd.rts.txt
350.000000	0.267020
351.000000	0.258963
352.000000	0.257957
353.000000	0.260262
354.000000	0.263782
355.000000	0.261989
356.000000	0.263190
357.000000	0.268064
358.000000	0.267691
359.000000	0.268188
360.000000	0.270139
361.000000	0.272050
362.000000	0.270508
363.000000	0.271596
364.000000	0.276250
365.000000	0.273985
366.000000	0.272097
367.000000	0.272386
368.000000	0.273094
369.000000	0.272590
370.000000	0.272664
371.000000	0.275377
372.000000	0.275571
373.000000	0.275437
374.000000	0.276905
375.000000	0.276801
376.000000	0.277051
377.000000	0.277817
378.000000	0.277880
379.000000	0.279426
380.000000	0.280158
381.000000	0.278215
382.000000	0.279823
383.000000	0.281382
384.000000	0.280640
385.000000	0.280926
386.000000	0.281272
387.000000	0.281627
388.000000	0.282500
389.000000	0.283981
390.000000	0.285361
391.000000	0.285430
392.000000	0.285229
393.000000	0.285297
394.000000	0.285790
395.000000	0.285948
396.000000	0.286555
397.000000	0.287392
398.000000	0.286907
399.000000	0.286628
400.000000	0.286926
401.000000	0.287535
402.000000	0.288169
403.000000	0.288508
404.000000	0.288654
405.000000	0.289540
406.000000	0.290011
407.000000	0.289948
408.000000	0.291015
409.000000	0.291385
410.000000	0.291217
411.000000	0.291717
412.000000	0.291750
413.000000	0.291887
414.000000	0.292744
415.000000	0.292732
416.000000	0.292899
417.000000	0.293672
418.000000	0.293681
419.000000	0.293854
420.000000	0.294299
421.000000	0.294440
422.000000	0.294960
423.000000	0.295504
424.000000	0.295604
425.000000	0.295921
426.000000	0.296152
427.000000	0.296113
428.000000	0.296447
429.000000	0.296813
430.000000	0.297097
431.000000	0.297463
432.000000	0.297653
433.000000	0.297804
434.000000	0.298322
435.000000	0.298445
436.000000	0.298493
437.000000	0.298787
438.000000	0.298770
439.000000	0.298757
440.000000	0.299014
441.000000	0.299263
442.000000	0.299444
443.000000	0.299534
444.000000	0.299756
445.000000	0.300017
446.000000	0.300382
447.000000	0.300712
448.000000	0.300964
449.000000	0.301120
450.000000	0.301215
451.000000	0.301336
452.000000	0.301626
453.000000	0.302004
454.000000	0.302412
455.000000	0.302564
456.000000	0.302668
457.000000	0.302912
458.000000	0.303165
459.000000	0.303305
460.000000	0.303369
461.000000	0.303716
462.000000	0.304155
463.000000	0.304389
464.000000	0.304563
465.000000	0.304724
466.000000	0.304873
467.000000	0.305137
468.000000	0.305419
469.000000	0.305609
470.000000	0.305807
471.000000	0.305896
472.000000	0.305963
473.000000	0.306112
474.000000	0.306306
475.000000	0.306397
476.000000	0.306551
477.000000	0.306886
478.000000	0.306951
479.000000	0.307084
480.000000	0.307476
481.000000	0.307624
482.000000	0.307847
483.000000	0.308182
484.000000	0.308404
485.000000	0.308500
486.000000	0.308680
487.000000	0.308815
488.000000	0.309073
489.000000	0.309431
490.000000	0.309705
491.000000	0.309937
492.000000	0.310193
493.000000	0.310379
494.000000	0.310527
495.000000	0.310755
496.000000	0.311073
497.000000	0.311407
498.000000	0.311641
499.000000	0.311848
500.000000	0.312104
501.000000	0.312338
502.000000	0.312633
503.000000	0.313019
504.000000	0.313357
505.000000	0.313587
506.000000	0.313715
507.000000	0.313915
508.000000	0.314208
509.000000	0.314509
510.000000	0.314701
511.000000	0.314932
512.000000	0.315242
513.000000	0.315525
514.000000	0.315829
515.000000	0.316143
516.000000	0.316376
517.000000	0.316637
518.000000	0.316963
519.000000	0.317256
520.000000	0.317504
521.000000	0.317738
522.000000	0.317984
523.000000	0.318250
524.000000	0.318536
525.000000	0.318802
526.000000	0.319043
527.000000	0.319308
528.000000	0.319574
529.000000	0.319859
530.000000	0.320104
531.000000	0.320372
532.000000	0.320610
533.000000	0.320872
534.000000	0.321191
535.000000	0.321518
536.000000	0.321765
537.000000	0.321952
538.000000	0.322133
539.000000	0.322359
540.000000	0.322600
541.000000	0.322833
542.000000	0.323092
543.000000	0.323381
544.000000	0.323689
545.000000	0.323932
546.000000	0.324158
547.000000	0.324433
548.000000	0.324767
549.000000	0.325019
550.000000	0.325262
551.000000	0.325515
552.000000	0.325734
553.000000	0.326006
554.000000	0.326344
555.000000	0.326734
556.000000	0.327089
557.000000	0.327395
558.000000	0.327757
559.000000	0.328002
560.000000	0.328226
561.000000	0.328526
562.000000	0.328825
563.000000	0.329059
564.000000	0.329319
565.000000	0.329588
566.000000	0.329934
567.000000	0.330301
568.000000	0.330637
569.000000	0.331016
570.000000	0.331373
571.000000	0.331678
572.000000	0.331955
573.000000	0.332222
574.000000	0.332434
575.000000	0.332604
576.000000	0.332833
577.000000	0.333115
578.000000	0.333476
579.000000	0.333767
580.000000	0.334011
581.000000	0.334237
582.000000	0.334497
583.000000	0.334714
584.000000	0.334933
585.000000	0.335270
586.000000	0.335551
587.000000	0.335802
588.000000	0.336092
589.000000	0.336406
590.000000	0.336668
591.000000	0.336851
592.000000	0.337049
593.000000	0.337288
594.000000	0.337552
595.000000	0.337788
596.000000	0.338006
597.000000	0.338246
598.000000	0.338448
599.000000	0.338620
600.000000	0.338795
601.000000	0.338933
602.000000	0.339203
603.000000	0.339443
604.000000	0.339603
605.000000	0.339795
606.000000	0.339953
607.000000	0.340088
608.000000	0.340250
609.000000	0.340405
610.000000	0.340555
611.000000	0.340710
612.000000	0.340895
613.000000	0.341060
614.000000	0.341209
615.000000	0.341328
616.000000	0.341410
617.000000	0.341456
618.000000	0.341599
619.000000	0.341767
620.000000	0.341922
621.000000	0.342101
622.000000	0.342252
623.000000	0.342408
624.000000	0.342585
625.000000	0.342685
626.000000	0.342817
627.000000	0.343001
628.000000	0.343104
629.000000	0.343246
630.000000	0.343334
631.000000	0.343494
632.000000	0.343663
633.000000	0.343831
634.000000	0.343975
635.000000	0.344085
636.000000	0.344198
637.000000	0.344316
638.000000	0.344438
639.000000	0.344495
640.000000	0.344552
641.000000	0.344602
642.000000	0.344645
643.000000	0.344714
644.000000	0.344847
645.000000	0.344931
646.000000	0.345040
647.000000	0.345188
648.000000	0.345275
649.000000	0.345393
650.000000	0.345532
651.000000	0.345629
652.000000	0.345746
653.000000	0.345919
654.000000	0.346076
655.000000	0.346208
656.000000	0.346356
657.000000	0.346497
658.000000	0.346650
659.000000	0.346839
660.000000	0.347032
661.000000	0.347156
662.000000	0.347255
663.000000	0.347383
664.000000	0.347486
665.000000	0.347606
666.000000	0.347733
667.000000	0.347817
668.000000	0.347924
669.000000	0.348052
670.000000	0.348195
671.000000	0.348306
672.000000	0.348421
673.000000	0.348551
674.000000	0.348711
675.000000	0.348839
676.000000	0.348948
677.000000	0.349091
678.000000	0.349286
679.000000	0.349450
680.000000	0.349555
681.000000	0.349691
682.000000	0.349867
683.000000	0.350009
684.000000	0.350223
685.000000	0.350412
686.000000	0.350574
687.000000	0.350683
688.000000	0.350805
689.000000	0.350933
690.000000	0.351081
691.000000	0.351209
692.000000	0.351273
693.000000	0.351354
694.000000	0.351472
695.000000	0.351624
696.000000	0.351792
697.000000	0.351949
698.000000	0.352121
699.000000	0.352307
700.000000	0.352506
701.000000	0.352688
702.000000	0.352871
703.000000	0.353024
704.000000	0.353104
705.000000	0.353183
706.000000	0.353248
707.000000	0.353365
708.000000	0.353548
709.000000	0.353725
710.000000	0.353854
711.000000	0.353961
712.000000	0.354048
713.000000	0.354145
714.000000	0.354253
715.000000	0.354390
716.000000	0.354561
717.000000	0.354736
718.000000	0.354867
719.000000	0.354938
720.000000	0.354982
721.000000	0.355093
722.000000	0.355173
723.000000	0.355266
724.000000	0.355405
725.000000	0.355497
726.000000	0.355618
727.000000	0.355725
728.000000	0.355845
729.000000	0.355989
730.000000	0.356099
731.000000	0.356197
732.000000	0.356305
733.000000	0.356457
734.000000	0.356576
735.000000	0.356543
736.000000	0.356550
737.000000	0.356608
738.000000	0.356594
739.000000	0.356634
740.000000	0.356648
741.000000	0.356737
742.000000	0.356831
743.000000	0.356880
744.000000	0.356946
745.000000	0.356988
746.000000	0.357033
747.000000	0.357022
748.000000	0.357082
749.000000	0.357167
750.000000	0.357197
751.000000	0.357200
752.000000	0.357217
753.000000	0.357271
754.000000	0.357336
755.000000	0.357455
756.000000	0.357613
757.000000	0.357729
758.000000	0.357849
759.000000	0.357933
760.000000	0.357906
761.000000	0.357964
762.000000	0.357988
763.000000	0.357979
764.000000	0.358091
765.000000	0.358150
766.000000	0.358223
767.000000	0.358368
768.000000	0.358450
769.000000	0.358480
770.000000	0.358487
771.000000	0.358504
772.000000	0.358616
773.000000	0.358745
774.000000	0.358897
775.000000	0.358989
776.000000	0.359062
777.000000	0.359128
778.000000	0.359131
779.000000	0.359131
780.000000	0.359160
781.000000	0.359203
782.000000	0.359260
783.000000	0.359370
784.000000	0.359366
785.000000	0.359269
786.000000	0.359158
787.000000	0.359086
788.000000	0.359081
789.000000	0.359116
790.000000	0.359172
791.000000	0.359277
792.000000	0.359329
793.000000	0.359349
794.000000	0.359364
795.000000	0.359322
796.000000	0.359237
797.000000	0.359153
798.000000	0.359163
799.000000	0.359168
800.000000	0.359163
801.000000	0.359167
802.000000	0.359147
803.000000	0.359128
804.000000	0.359149
805.000000	0.359107
806.000000	0.359055
807.000000	0.359055
808.000000	0.358997
809.000000	0.358924
810.000000	0.358926
811.000000	0.359006
812.000000	0.358958
813.000000	0.358873
814.000000	0.358815
815.000000	0.358855
816.000000	0.358953
817.000000	0.359081
818.000000	0.359131
819.000000	0.359269
820.000000	0.359381
821.000000	0.359375
822.000000	0.359374
823.000000	0.359456
824.000000	0.359496
825.000000	0.359458
826.000000	0.359444
827.000000	0.359412
828.000000	0.359363
829.000000	0.359231
830.000000	0.359103
831.000000	0.359069
832.000000	0.359018
833.000000	0.359009
834.000000	0.359014
835.000000	0.359036
836.000000	0.359049
837.000000	0.359050
838.000000	0.359055
839.000000	0.359046
840.000000	0.359100
841.000000	0.359132
842.000000	0.359001
843.000000	0.358748
844.000000	0.358518
845.000000	0.358350
846.000000	0.358255
847.000000	0.358214
848.000000	0.358220
849.000000	0.358290
850.000000	0.358280
851.000000	0.358178
852.000000	0.358053
853.000000	0.357952
854.000000	0.357823
855.000000	0.357786
856.000000	0.357765
857.000000	0.357682
858.000000	0.357619
859.000000	0.357490
860.000000	0.357182
861.000000	0.356991
862.000000	0.356939
863.000000	0.356840
864.000000	0.356690
865.000000	0.356588
866.000000	0.356575
867.000000	0.356455
868.000000	0.356434
869.000000	0.356383
870.000000	0.356207
871.000000	0.356090
872.000000	0.356015
873.000000	0.355884
874.000000	0.355733
875.000000	0.355534
876.000000	0.355314
877.000000	0.355040
878.000000	0.354702
879.000000	0.354490
880.000000	0.354326
881.000000	0.354170
882.000000	0.354058
883.000000	0.353958
884.000000	0.353759
885.000000	0.353676
886.000000	0.353542
887.000000	0.353292
888.000000	0.353002
889.000000	0.352801
890.000000	0.352567
891.000000	0.352351
892.000000	0.352199
893.000000	0.352105
894.000000	0.352114
895.000000	0.351908
896.000000	0.351594
897.000000	0.351299
898.000000	0.351146
899.000000	0.351111
900.000000	0.351088
901.000000	0.350988
902.000000	0.350905
903.000000	0.350807
904.000000	0.350688
905.000000	0.350447
906.000000	0.350270
907.000000	0.349994
908.000000	0.349654
909.000000	0.349307
910.000000	0.349006
911.000000	0.348737
912.000000	0.348491
913.000000	0.348223
914.000000	0.348004
915.000000	0.347922
916.000000	0.347878
917.000000	0.347749
918.000000	0.347522
919.000000	0.347197
920.000000	0.346826
921.000000	0.346574
922.000000	0.346415
923.000000	0.346196
924.000000	0.346007
925.000000	0.345821
926.000000	0.345637
927.000000	0.345373
928.000000	0.345078
929.000000	0.344764
930.000000	0.344462
931.000000	0.344324
932.000000	0.344143
933.000000	0.343860
934.000000	0.343478
935.000000	0.343120
936.000000	0.342877
937.000000	0.342670
938.000000	0.342469
939.000000	0.342373
940.000000	0.342269
941.000000	0.342099
942.000000	0.341824
943.000000	0.341578
944.000000	0.341292
945.000000	0.340992
946.000000	0.340594
947.000000	0.340198
948.000000	0.339853
949.000000	0.339475
950.000000	0.339282
951.000000	0.339186
952.000000	0.338944
953.000000	0.338736
954.000000	0.338525
955.000000	0.338221
956.000000	0.338007
957.000000	0.337839
958.000000	0.337628
959.000000	0.337416
960.000000	0.337200
961.000000	0.336966
962.000000	0.336723
963.000000	0.336560
964.000000	0.336411
965.000000	0.336249
966.000000	0.335958
967.000000	0.335727
968.000000	0.335494
969.000000	0.335219
970.000000	0.334997
971.000000	0.334587
972.000000	0.334368
973.000000	0.334296
974.000000	0.333986
975.000000	0.333747
976.000000	0.333538
977.000000	0.333284
978.000000	0.333056
979.000000	0.333015
980.000000	0.332822
981.000000	0.332525
982.000000	0.332283
983.000000	0.332139
984.000000	0.332086
985.000000	0.331889
986.000000	0.331430
987.000000	0.331040
988.000000	0.330831
989.000000	0.330714
990.000000	0.330431
991.000000	0.330067
992.000000	0.329850
993.000000	0.329722
994.000000	0.329507
995.000000	0.329328
996.000000	0.329088
997.000000	0.328977
998.000000	0.328772
999.000000	0.328579
1000.000000	0.328759
1001.000000	0.328986
1002.000000	0.328774
1003.000000	0.328350
1004.000000	0.328250
1005.000000	0.328657
1006.000000	0.328497
1007.000000	0.328146
1008.000000	0.328128
1009.000000	0.328012
1010.000000	0.327434
1011.000000	0.327735
1012.000000	0.328002
1013.000000	0.327471
1014.000000	0.327347
1015.000000	0.327423
1016.000000	0.327434
1017.000000	0.327426
1018.000000	0.327485
1019.000000	0.327443
1020.000000	0.327245
1021.000000	0.326796
1022.000000	0.326504
1023.000000	0.326405
1024.000000	0.325956
1025.000000	0.326102
1026.000000	0.326094
1027.000000	0.325806
1028.000000	0.325995
1029.000000	0.325995
1030.000000	0.325714
1031.000000	0.325800
1032.000000	0.326008
1033.000000	0.325941
1034.000000	0.326093
1035.000000	0.326809
1036.000000	0.326995
1037.000000	0.326909
1038.000000	0.326756
1039.000000	0.326550
1040.000000	0.326305
1041.000000	0.325979
1042.000000	0.325958
1043.000000	0.326423
1044.000000	0.326629
1045.000000	0.326515
1046.000000	0.326642
1047.000000	0.326839
1048.000000	0.326862
1049.000000	0.326891
1050.000000	0.327180
1051.000000	0.327285
1052.000000	0.326960
1053.000000	0.326915
1054.000000	0.327442
1055.000000	0.327597
1056.000000	0.327613
1057.000000	0.327714
1058.000000	0.327470
1059.000000	0.327125
1060.000000	0.327321
1061.000000	0.327747
1062.000000	0.328070
1063.000000	0.328497
1064.000000	0.328875
1065.000000	0.329016
1066.000000	0.329232
1067.000000	0.329631
1068.000000	0.329803
1069.000000	0.329601
1070.000000	0.329673
1071.000000	0.329932
1072.000000	0.330082
1073.000000	0.330215
1074.000000	0.330589
1075.000000	0.330973
1076.000000	0.331221
1077.000000	0.331389
1078.000000	0.331803
1079.000000	0.331996
1080.000000	0.331987
1081.000000	0.332106
1082.000000	0.332349
1083.000000	0.332547
1084.000000	0.332837
1085.000000	0.333050
1086.000000	0.333173
1087.000000	0.333350
1088.000000	0.333393
1089.000000	0.333489
1090.000000	0.333618
1091.000000	0.333721
1092.000000	0.333853
1093.000000	0.334083
1094.000000	0.334319
1095.000000	0.334574
1096.000000	0.334823
1097.000000	0.335133
1098.000000	0.335330
1099.000000	0.335299
1100.000000	0.335587
1101.000000	0.335982
1102.000000	0.336227
1103.000000	0.336557
1104.000000	0.336866
1105.000000	0.337088
1106.000000	0.337226
1107.000000	0.337216
1108.000000	0.337351
1109.000000	0.337588
1110.000000	0.337684
1111.000000	0.337803
1112.000000	0.338037
1113.000000	0.338267
1114.000000	0.338396
1115.000000	0.338591
1116.000000	0.338994
1117.000000	0.339178
1118.000000	0.339145
1119.000000	0.339206
1120.000000	0.339231
1121.000000	0.339337
1122.000000	0.339568
1123.000000	0.339986
1124.000000	0.340393
1125.000000	0.340675
1126.000000	0.340845
1127.000000	0.340988
1128.000000	0.341069
1129.000000	0.341036
1130.000000	0.341134
1131.000000	0.341349
1132.000000	0.341362
1133.000000	0.341261
1134.000000	0.341409
1135.000000	0.341566
1136.000000	0.341658
1137.000000	0.342004
1138.000000	0.342005
1139.000000	0.341686
1140.000000	0.341714
1141.000000	0.341721
1142.000000	0.341791
1143.000000	0.342053
1144.000000	0.342286
1145.000000	0.342285
1146.000000	0.342249
1147.000000	0.342263
1148.000000	0.342146
1149.000000	0.342138
1150.000000	0.342175
1151.000000	0.342295
1152.000000	0.342405
1153.000000	0.342552
1154.000000	0.342771
1155.000000	0.342898
1156.000000	0.343009
1157.000000	0.343101
1158.000000	0.343119
1159.000000	0.343134
1160.000000	0.343126
1161.000000	0.343085
1162.000000	0.343040
1163.000000	0.343141
1164.000000	0.343197
1165.000000	0.343187
1166.000000	0.343298
1167.000000	0.343487
1168.000000	0.343499
1169.000000	0.343513
1170.000000	0.343532
1171.000000	0.343419
1172.000000	0.343516
1173.000000	0.343775
1174.000000	0.343865
1175.000000	0.343922
1176.000000	0.343953
1177.000000	0.343987
1178.000000	0.343975
1179.000000	0.343954
1180.000000	0.343867
1181.000000	0.343752
1182.000000	0.343674
1183.000000	0.343673
1184.000000	0.343741
1185.000000	0.343745
1186.000000	0.343752
1187.000000	0.343720
1188.000000	0.343652
1189.000000	0.343572
1190.000000	0.343517
1191.000000	0.343477
1192.000000	0.343518
1193.000000	0.343641
1194.000000	0.343690
1195.000000	0.343762
1196.000000	0.343810
1197.000000	0.343856
1198.000000	0.343959
1199.000000	0.344003
1200.000000	0.343983
1201.000000	0.344015
1202.000000	0.343949
1203.000000	0.343892
1204.000000	0.343847
1205.000000	0.343794
1206.000000	0.343757
1207.000000	0.343848
1208.000000	0.343844
1209.000000	0.343893
1210.000000	0.343903
1211.000000	0.343881
1212.000000	0.343861
1213.000000	0.343838
1214.000000	0.343908
1215.000000	0.344070
1216.000000	0.344073
1217.000000	0.343997
1218.000000	0.343944
1219.000000	0.343808
1220.000000	0.343753
1221.000000	0.343777
1222.000000	0.343806
1223.000000	0.343812
1224.000000	0.343795
1225.000000	0.343789
1226.000000	0.343758
1227.000000	0.343634
1228.000000	0.343562
1229.000000	0.343475
1230.000000	0.343352
1231.000000	0.343220
1232.000000	0.343230
1233.000000	0.343296
1234.000000	0.343290
1235.000000	0.343368
1236.000000	0.343509
1237.000000	0.343608
1238.000000	0.343688
1239.000000	0.343739
1240.000000	0.343770
1241.000000	0.343729
1242.000000	0.343720
1243.000000	0.343773
1244.000000	0.343822
1245.000000	0.343881
1246.000000	0.343877
1247.000000	0.343914
1248.000000	0.343876
1249.000000	0.343865
1250.000000	0.343953
1251.000000	0.343957
1252.000000	0.343953
1253.000000	0.344046
1254.000000	0.343997
1255.000000	0.343816
1256.000000	0.343733
1257.000000	0.343608
1258.000000	0.343629
1259.000000	0.343707
1260.000000	0.343758
1261.000000	0.343812
1262.000000	0.343847
1263.000000	0.343857
1264.000000	0.343888
1265.000000	0.343944
1266.000000	0.343955
1267.000000	0.343928
1268.000000	0.343846
1269.000000	0.343679
1270.000000	0.343574
1271.000000	0.343503
1272.000000	0.343484
1273.000000	0.343545
1274.000000	0.343489
1275.000000	0.343386
1276.000000	0.343236
1277.000000	0.343194
1278.000000	0.343031
1279.000000	0.342939
1280.000000	0.342816
1281.000000	0.342714
1282.000000	0.342698
1283.000000	0.342763
1284.000000	0.342866
1285.000000	0.342922
1286.000000	0.342979
1287.000000	0.342920
1288.000000	0.342915
1289.000000	0.342883
1290.000000	0.342752
1291.000000	0.342684
1292.000000	0.342659
1293.000000	0.342585
1294.000000	0.342529
1295.000000	0.342495
1296.000000	0.342428
1297.000000	0.342326
1298.000000	0.342310
1299.000000	0.342350
1300.000000	0.342361
1301.000000	0.342399
1302.000000	0.342370
1303.000000	0.342451
1304.000000	0.342362
1305.000000	0.342275
1306.000000	0.342201
1307.000000	0.342105
1308.000000	0.342055
1309.000000	0.342014
1310.000000	0.341994
1311.000000	0.342010
1312.000000	0.341995
1313.000000	0.341989
1314.000000	0.342071
1315.000000	0.342079
1316.000000	0.342144
1317.000000	0.342300
1318.000000	0.342319
1319.000000	0.342226
1320.000000	0.342151
1321.000000	0.342020
1322.000000	0.341934
1323.000000	0.341928
1324.000000	0.341952
1325.000000	0.341937
1326.000000	0.341915
1327.000000	0.341899
1328.000000	0.341840
1329.000000	0.341719
1330.000000	0.341554
1331.000000	0.341442
1332.000000	0.341389
1333.000000	0.341294
1334.000000	0.341216
1335.000000	0.341208
1336.000000	0.341203
1337.000000	0.341198
1338.000000	0.341208
1339.000000	0.341179
1340.000000	0.341144
1341.000000	0.341132
1342.000000	0.341001
1343.000000	0.340921
1344.000000	0.340895
1345.000000	0.340748
1346.000000	0.340715
1347.000000	0.340685
1348.000000	0.340590
1349.000000	0.340491
1350.000000	0.340479
1351.000000	0.340371
1352.000000	0.340315
1353.000000	0.340238
1354.000000	0.340176
1355.000000	0.340233
1356.000000	0.340217
1357.000000	0.340091
1358.000000	0.340009
1359.000000	0.339855
1360.000000	0.339781
1361.000000	0.339859
1362.000000	0.339848
1363.000000	0.339766
1364.000000	0.339777
1365.000000	0.339794
1366.000000	0.339769
1367.000000	0.339760
1368.000000	0.339755
1369.000000	0.339752
1370.000000	0.339544
1371.000000	0.339266
1372.000000	0.338991
1373.000000	0.338644
1374.000000	0.338367
1375.000000	0.338086
1376.000000	0.337774
1377.000000	0.337346
1378.000000	0.336700
1379.000000	0.335865
1380.000000	0.334942
1381.000000	0.333875
1382.000000	0.332643
1383.000000	0.331373
1384.000000	0.329978
1385.000000	0.328568
1386.000000	0.327344
1387.000000	0.326199
1388.000000	0.325156
1389.000000	0.324352
1390.000000	0.323776
1391.000000	0.323436
1392.000000	0.323353
1393.000000	0.323439
1394.000000	0.323876
1395.000000	0.324272
1396.000000	0.324883
1397.000000	0.325250
1398.000000	0.325547
1399.000000	0.325726
1400.000000	0.325742
1401.000000	0.325762
1402.000000	0.325808
1403.000000	0.325695
1404.000000	0.325603
1405.000000	0.325411
1406.000000	0.325113
1407.000000	0.324938
1408.000000	0.324655
1409.000000	0.324467
1410.000000	0.324487
1411.000000	0.324306
1412.000000	0.324152
1413.000000	0.324180
1414.000000	0.324120
1415.000000	0.324176
1416.000000	0.324358
1417.000000	0.324546
1418.000000	0.324753
1419.000000	0.325024
1420.000000	0.325228
1421.000000	0.325506
1422.000000	0.325721
1423.000000	0.325957
1424.000000	0.326111
1425.000000	0.326201
1426.000000	0.326335
1427.000000	0.326547
1428.000000	0.326758
1429.000000	0.326920
1430.000000	0.327087
1431.000000	0.327212
1432.000000	0.327316
1433.000000	0.327452
1434.000000	0.327593
1435.000000	0.327797
1436.000000	0.327965
1437.000000	0.328128
1438.000000	0.328281
1439.000000	0.328454
1440.000000	0.328620
1441.000000	0.328830
1442.000000	0.329016
1443.000000	0.329120
1444.000000	0.329217
1445.000000	0.329314
1446.000000	0.329372
1447.000000	0.329396
1448.000000	0.329409
1449.000000	0.329421
1450.000000	0.329427
1451.000000	0.329451
1452.000000	0.329421
1453.000000	0.329381
1454.000000	0.329346
1455.000000	0.329295
1456.000000	0.329342
1457.000000	0.329441
1458.000000	0.329481
1459.000000	0.329537
1460.000000	0.329624
1461.000000	0.329637
1462.000000	0.329674
1463.000000	0.329729
1464.000000	0.329773
1465.000000	0.329875
1466.000000	0.329917
1467.000000	0.329938
1468.000000	0.330024
1469.000000	0.330171
1470.000000	0.330235
1471.000000	0.330299
1472.000000	0.330326
1473.000000	0.330394
1474.000000	0.330469
1475.000000	0.330619
1476.000000	0.330802
1477.000000	0.330947
1478.000000	0.331124
1479.000000	0.331312
1480.000000	0.331505
1481.000000	0.331625
1482.000000	0.331729
1483.000000	0.331883
1484.000000	0.332008
1485.000000	0.332173
1486.000000	0.332395
1487.000000	0.332584
1488.000000	0.332800
1489.000000	0.332985
1490.000000	0.333019
1491.000000	0.333134
1492.000000	0.333170
1493.000000	0.333294
1494.000000	0.333457
1495.000000	0.333570
1496.000000	0.333700
1497.000000	0.333806
1498.000000	0.333866
1499.000000	0.333998
1500.000000	0.334136
1501.000000	0.334253
1502.000000	0.334387
1503.000000	0.334479
1504.000000	0.334592
1505.000000	0.334689
1506.000000	0.334753
1507.000000	0.334834
1508.000000	0.334878
1509.000000	0.334915
1510.000000	0.334978
1511.000000	0.334999
1512.000000	0.334982
1513.000000	0.335006
1514.000000	0.335058
1515.000000	0.335057
1516.000000	0.335092
1517.000000	0.335108
1518.000000	0.335116
1519.000000	0.335103
1520.000000	0.335114
1521.000000	0.335066
1522.000000	0.335046
1523.000000	0.335108
1524.000000	0.335093
1525.000000	0.335113
1526.000000	0.335105
1527.000000	0.335039
1528.000000	0.335052
1529.000000	0.335093
1530.000000	0.335039
1531.000000	0.335027
1532.000000	0.335085
1533.000000	0.335072
1534.000000	0.335070
1535.000000	0.335131
1536.000000	0.335105
1537.000000	0.335173
1538.000000	0.335236
1539.000000	0.335235
1540.000000	0.335289
1541.000000	0.335352
1542.000000	0.335481
1543.000000	0.335622
1544.000000	0.335699
1545.000000	0.335786
1546.000000	0.335871
1547.000000	0.335949
1548.000000	0.336060
1549.000000	0.336140
1550.000000	0.336142
1551.000000	0.336163
1552.000000	0.336174
1553.000000	0.336135
1554.000000	0.336116
1555.000000	0.336153
1556.000000	0.336228
1557.000000	0.336267
1558.000000	0.336310
1559.000000	0.336325
1560.000000	0.336284
1561.000000	0.336205
1562.000000	0.336168
1563.000000	0.336193
1564.000000	0.336171
1565.000000	0.336131
1566.000000	0.336072
1567.000000	0.336057
1568.000000	0.336065
1569.000000	0.336201
1570.000000	0.336236
1571.000000	0.336193
1572.000000	0.336225
1573.000000	0.336287
1574.000000	0.336345
1575.000000	0.336486
1576.000000	0.336548
1577.000000	0.336521
1578.000000	0.336519
1579.000000	0.336594
1580.000000	0.336616
1581.000000	0.336702
1582.000000	0.336696
1583.000000	0.336571
1584.000000	0.336507
1585.000000	0.336524
1586.000000	0.336560
1587.000000	0.336653
1588.000000	0.336694
1589.000000	0.336722
1590.000000	0.336731
1591.000000	0.336749
1592.000000	0.336772
1593.000000	0.336826
1594.000000	0.336819
1595.000000	0.336857
1596.000000	0.336827
1597.000000	0.336742
1598.000000	0.336662
1599.000000	0.336591
1600.000000	0.336466
1601.000000	0.336389
1602.000000	0.336316
1603.000000	0.336242
1604.000000	0.336181
1605.000000	0.336171
1606.000000	0.336146
1607.000000	0.336186
1608.000000	0.336145
1609.000000	0.336115
1610.000000	0.336092
1611.000000	0.336066
1612.000000	0.336058
1613.000000	0.336218
1614.000000	0.336221
1615.000000	0.336188
1616.000000	0.336227
1617.000000	0.336202
1618.000000	0.336160
1619.000000	0.336134
1620.000000	0.336082
1621.000000	0.335990
1622.000000	0.336017
1623.000000	0.336056
1624.000000	0.336078
1625.000000	0.336006
1626.000000	0.335933
1627.000000	0.335884
1628.000000	0.335853
1629.000000	0.335787
1630.000000	0.335799
1631.000000	0.335784
1632.000000	0.335753
1633.000000	0.335788
1634.000000	0.335796
1635.000000	0.335822
1636.000000	0.335791
1637.000000	0.335774
1638.000000	0.335691
1639.000000	0.335577
1640.000000	0.335502
1641.000000	0.335496
1642.000000	0.335467
1643.000000	0.335456
1644.000000	0.335471
1645.000000	0.335492
1646.000000	0.335510
1647.000000	0.335623
1648.000000	0.335630
1649.000000	0.335681
1650.000000	0.335731
1651.000000	0.335776
1652.000000	0.335842
1653.000000	0.335896
1654.000000	0.335925
1655.000000	0.335863
1656.000000	0.335777
1657.000000	0.335742
1658.000000	0.335669
1659.000000	0.335701
1660.000000	0.335685
1661.000000	0.335526
1662.000000	0.335441
1663.000000	0.335302
1664.000000	0.335263
1665.000000	0.335295
1666.000000	0.335375
1667.000000	0.335452
1668.000000	0.335482
1669.000000	0.335461
1670.000000	0.335458
1671.000000	0.335555
1672.000000	0.335671
1673.000000	0.335794
1674.000000	0.335894
1675.000000	0.336014
1676.000000	0.336021
1677.000000	0.336020
1678.000000	0.335943
1679.000000	0.335826
1680.000000	0.335821
1681.000000	0.335819
1682.000000	0.335829
1683.000000	0.335904
1684.000000	0.335937
1685.000000	0.335944
1686.000000	0.335853
1687.000000	0.335814
1688.000000	0.335783
1689.000000	0.335716
1690.000000	0.335678
1691.000000	0.335690
1692.000000	0.335582
1693.000000	0.335465
1694.000000	0.335320
1695.000000	0.335309
1696.000000	0.335372
1697.000000	0.335286
1698.000000	0.335237
1699.000000	0.335222
1700.000000	0.335086
1701.000000	0.335113
1702.000000	0.335160
1703.000000	0.335066
1704.000000	0.334993
1705.000000	0.334920
1706.000000	0.334803
1707.000000	0.334730
1708.000000	0.334705
1709.000000	0.334561
1710.000000	0.334442
1711.000000	0.334359
1712.000000	0.334281
1713.000000	0.334171
1714.000000	0.334065
1715.000000	0.334066
1716.000000	0.334123
1717.000000	0.334143
1718.000000	0.334259
1719.000000	0.334256
1720.000000	0.334187
1721.000000	0.334145
1722.000000	0.334087
1723.000000	0.334056
1724.000000	0.334053
1725.000000	0.334068
1726.000000	0.333991
1727.000000	0.334009
1728.000000	0.334038
1729.000000	0.333970
1730.000000	0.334067
1731.000000	0.334055
1732.000000	0.333942
1733.000000	0.333961
1734.000000	0.333890
1735.000000	0.333827
1736.000000	0.333759
1737.000000	0.333664
1738.000000	0.333544
1739.000000	0.333479
1740.000000	0.333403
1741.000000	0.333356
1742.000000	0.333335
1743.000000	0.333430
1744.000000	0.333602
1745.000000	0.333599
1746.000000	0.333593
1747.000000	0.333500
1748.000000	0.333381
1749.000000	0.333334
1750.000000	0.333245
1751.000000	0.333179
1752.000000	0.333265
1753.000000	0.333284
1754.000000	0.333363
1755.000000	0.333535
1756.000000	0.333610
1757.000000	0.333647
1758.000000	0.333726
1759.000000	0.333743
1760.000000	0.333794
1761.000000	0.333871
1762.000000	0.333913
1763.000000	0.333975
1764.000000	0.333991
1765.000000	0.333904
1766.000000	0.333914
1767.000000	0.333859
1768.000000	0.333791
1769.000000	0.333884
1770.000000	0.333943
1771.000000	0.333950
1772.000000	0.333879
1773.000000	0.333670
1774.000000	0.333610
1775.000000	0.333616
1776.000000	0.333583
1777.000000	0.333626
1778.000000	0.333551
1779.000000	0.333334
1780.000000	0.333195
1781.000000	0.333057
1782.000000	0.332873
1783.000000	0.332667
1784.000000	0.332544
1785.000000	0.332437
1786.000000	0.332505
1787.000000	0.332720
1788.000000	0.332832
1789.000000	0.332851
1790.000000	0.332827
1791.000000	0.332742
1792.000000	0.332736
1793.000000	0.332691
1794.000000	0.332590
1795.000000	0.332523
1796.000000	0.332466
1797.000000	0.332380
1798.000000	0.332304
1799.000000	0.332144
1800.000000	0.331930
1801.000000	0.331834
1802.000000	0.332075
1803.000000	0.332468
1804.000000	0.332776
1805.000000	0.333533
1806.000000	0.333449
1807.000000	0.332606
1808.000000	0.332365
1809.000000	0.332468
1810.000000	0.331293
1811.000000	0.330991
1812.000000	0.331349
1813.000000	0.331378
1814.000000	0.331336
1815.000000	0.331259
1816.000000	0.331139
1817.000000	0.331068
1818.000000	0.330787
1819.000000	0.331063
1820.000000	0.331365
1821.000000	0.331166
1822.000000	0.331332
1823.000000	0.331375
1824.000000	0.331342
1825.000000	0.331493
1826.000000	0.331683
1827.000000	0.331694
1828.000000	0.331564
1829.000000	0.331702
1830.000000	0.331331
1831.000000	0.331044
1832.000000	0.330258
1833.000000	0.330201
1834.000000	0.330774
1835.000000	0.330651
1836.000000	0.330361
1837.000000	0.330218
1838.000000	0.329666
1839.000000	0.329020
1840.000000	0.328917
1841.000000	0.328515
1842.000000	0.328398
1843.000000	0.328160
1844.000000	0.328246
1845.000000	0.328934
1846.000000	0.329162
1847.000000	0.329144
1848.000000	0.328829
1849.000000	0.328890
1850.000000	0.328513
1851.000000	0.328570
1852.000000	0.329013
1853.000000	0.329376
1854.000000	0.329843
1855.000000	0.329712
1856.000000	0.329345
1857.000000	0.328649
1858.000000	0.327697
1859.000000	0.327043
1860.000000	0.326886
1861.000000	0.326965
1862.000000	0.326702
1863.000000	0.326579
1864.000000	0.326192
1865.000000	0.325211
1866.000000	0.324784
1867.000000	0.324384
1868.000000	0.324477
1869.000000	0.324426
1870.000000	0.324297
1871.000000	0.323650
1872.000000	0.322408
1873.000000	0.321549
1874.000000	0.320491
1875.000000	0.319635
1876.000000	0.318803
1877.000000	0.317779
1878.000000	0.316284
1879.000000	0.315229
1880.000000	0.314203
1881.000000	0.313265
1882.000000	0.312306
1883.000000	0.310452
1884.000000	0.308854
1885.000000	0.306776
1886.000000	0.304674
1887.000000	0.302482
1888.000000	0.300515
1889.000000	0.297716
1890.000000	0.295122
1891.000000	0.292838
1892.000000	0.290304
1893.000000	0.288289
1894.000000	0.286943
1895.000000	0.285184
1896.000000	0.283551
1897.000000	0.281913
1898.000000	0.280051
1899.000000	0.277904
1900.000000	0.276298
1901.000000	0.275292
1902.000000	0.274669
1903.000000	0.274262
1904.000000	0.273984
1905.000000	0.273565
1906.000000	0.273187
1907.000000	0.272821
1908.000000	0.272895
1909.000000	0.273050
1910.000000	0.273389
1911.000000	0.273803
1912.000000	0.274317
1913.000000	0.274977
1914.000000	0.275485
1915.000000	0.276247
1916.000000	0.277150
1917.000000	0.277811
1918.000000	0.278291
1919.000000	0.279190
1920.000000	0.280097
1921.000000	0.280971
1922.000000	0.282191
1923.000000	0.283197
1924.000000	0.284001
1925.000000	0.284888
1926.000000	0.286019
1927.000000	0.286795
1928.000000	0.287374
1929.000000	0.287988
1930.000000	0.288629
1931.000000	0.288166
1932.000000	0.287875
1933.000000	0.288058
1934.000000	0.288015
1935.000000	0.288547
1936.000000	0.289293
1937.000000	0.289794
1938.000000	0.290062
1939.000000	0.290381
1940.000000	0.290597
1941.000000	0.290970
1942.000000	0.291467
1943.000000	0.291883
1944.000000	0.292265
1945.000000	0.292900
1946.000000	0.293253
1947.000000	0.293445
1948.000000	0.293805
1949.000000	0.293959
1950.000000	0.293929
1951.000000	0.293864
1952.000000	0.293893
1953.000000	0.293723
1954.000000	0.293667
1955.000000	0.293900
1956.000000	0.294142
1957.000000	0.294561
1958.000000	0.294859
1959.000000	0.295078
1960.000000	0.295336
1961.000000	0.295492
1962.000000	0.295575
1963.000000	0.295537
1964.000000	0.295791
1965.000000	0.296008
1966.000000	0.295921
1967.000000	0.296430
1968.000000	0.296776
1969.000000	0.297127
1970.000000	0.298186
1971.000000	0.298906
1972.000000	0.299251
1973.000000	0.299332
1974.000000	0.299040
1975.000000	0.298991
1976.000000	0.298741
1977.000000	0.298926
1978.000000	0.299046
1979.000000	0.299356
1980.000000	0.299984
1981.000000	0.300456
1982.000000	0.300983
1983.000000	0.301313
1984.000000	0.301482
1985.000000	0.301264
1986.000000	0.301191
1987.000000	0.301074
1988.000000	0.301411
1989.000000	0.301335
1990.000000	0.301695
1991.000000	0.302087
1992.000000	0.302079
1993.000000	0.302650
1994.000000	0.303267
1995.000000	0.304033
1996.000000	0.304972
1997.000000	0.305420
1998.000000	0.305536
1999.000000	0.305801
2000.000000	0.305822
2001.000000	0.305902
2002.000000	0.306178
2003.000000	0.306445
2004.000000	0.306543
2005.000000	0.306356
2006.000000	0.306434
2007.000000	0.306527
2008.000000	0.306662
2009.000000	0.306798
2010.000000	0.307139
2011.000000	0.307576
2012.000000	0.307805
2013.000000	0.308037
2014.000000	0.308061
2015.000000	0.307838
2016.000000	0.307780
2017.000000	0.307849
2018.000000	0.308016
2019.000000	0.308583
2020.000000	0.308851
2021.000000	0.309261
2022.000000	0.309901
2023.000000	0.310201
2024.000000	0.310375
2025.000000	0.310729
2026.000000	0.310810
2027.000000	0.310995
2028.000000	0.311442
2029.000000	0.311513
2030.000000	0.311562
2031.000000	0.311266
2032.000000	0.311035
2033.000000	0.311211
2034.000000	0.311293
2035.000000	0.311686
2036.000000	0.311768
2037.000000	0.311865
2038.000000	0.311964
2039.000000	0.311940
2040.000000	0.312256
2041.000000	0.312695
2042.000000	0.312827
2043.000000	0.312801
2044.000000	0.312689
2045.000000	0.312286
2046.000000	0.312013
2047.000000	0.311997
2048.000000	0.312079
2049.000000	0.312466
2050.000000	0.312961
2051.000000	0.313131
2052.000000	0.313260
2053.000000	0.313211
2054.000000	0.313043
2055.000000	0.313145
2056.000000	0.313127
2057.000000	0.312987
2058.000000	0.313329
2059.000000	0.313491
2060.000000	0.313585
2061.000000	0.313980
2062.000000	0.314028
2063.000000	0.313671
2064.000000	0.313437
2065.000000	0.313598
2066.000000	0.313348
2067.000000	0.312963
2068.000000	0.313087
2069.000000	0.312871
2070.000000	0.312842
2071.000000	0.313236
2072.000000	0.312716
2073.000000	0.312482
2074.000000	0.312089
2075.000000	0.312159
2076.000000	0.312609
2077.000000	0.313046
2078.000000	0.313981
2079.000000	0.314382
2080.000000	0.314358
2081.000000	0.314571
2082.000000	0.314853
2083.000000	0.314948
2084.000000	0.315039
2085.000000	0.315108
2086.000000	0.314878
2087.000000	0.314625
2088.000000	0.314710
2089.000000	0.314651
2090.000000	0.314495
2091.000000	0.314454
2092.000000	0.314125
2093.000000	0.313259
2094.000000	0.313140
2095.000000	0.313317
2096.000000	0.313391
2097.000000	0.313835
2098.000000	0.314024
2099.000000	0.313927
2100.000000	0.314112
2101.000000	0.314409
2102.000000	0.314341
2103.000000	0.314375
2104.000000	0.314222
2105.000000	0.314294
2106.000000	0.314667
2107.000000	0.314892
2108.000000	0.315117
2109.000000	0.315222
2110.000000	0.314908
2111.000000	0.314771
2112.000000	0.314382
2113.000000	0.314277
2114.000000	0.314556
2115.000000	0.314622
2116.000000	0.314670
2117.000000	0.314644
2118.000000	0.314708
2119.000000	0.314783
2120.000000	0.314909
2121.000000	0.315323
2122.000000	0.315511
2123.000000	0.315615
2124.000000	0.315581
2125.000000	0.315349
2126.000000	0.315148
2127.000000	0.314715
2128.000000	0.314641
2129.000000	0.314534
2130.000000	0.314921
2131.000000	0.315218
2132.000000	0.315364
2133.000000	0.315607
2134.000000	0.315901
2135.000000	0.316232
2136.000000	0.316787
2137.000000	0.317087
2138.000000	0.317476
2139.000000	0.317631
2140.000000	0.317354
2141.000000	0.317293
2142.000000	0.317304
2143.000000	0.317042
2144.000000	0.317005
2145.000000	0.316849
2146.000000	0.316552
2147.000000	0.316462
2148.000000	0.316233
2149.000000	0.316578
2150.000000	0.316690
2151.000000	0.316115
2152.000000	0.316018
2153.000000	0.315640
2154.000000	0.315421
2155.000000	0.315544
2156.000000	0.315676
2157.000000	0.315865
2158.000000	0.315867
2159.000000	0.315853
2160.000000	0.316019
2161.000000	0.316065
2162.000000	0.316246
2163.000000	0.316639
2164.000000	0.316969
2165.000000	0.317380
2166.000000	0.317483
2167.000000	0.317535
2168.000000	0.317155
2169.000000	0.316556
2170.000000	0.315881
2171.000000	0.315520
2172.000000	0.315556
2173.000000	0.315414
2174.000000	0.315191
2175.000000	0.315164
2176.000000	0.314998
2177.000000	0.315084
2178.000000	0.315958
2179.000000	0.316166
2180.000000	0.316114
2181.000000	0.316268
2182.000000	0.315608
2183.000000	0.314669
2184.000000	0.314831
2185.000000	0.314868
2186.000000	0.314105
2187.000000	0.314333
2188.000000	0.314732
2189.000000	0.314276
2190.000000	0.314839
2191.000000	0.315531
2192.000000	0.315066
2193.000000	0.313161
2194.000000	0.312364
2195.000000	0.311066
2196.000000	0.310785
2197.000000	0.311734
2198.000000	0.312129
2199.000000	0.312981
2200.000000	0.313540
2201.000000	0.313899
2202.000000	0.314293
2203.000000	0.314676
2204.000000	0.314389
2205.000000	0.314277
2206.000000	0.313636
2207.000000	0.313916
2208.000000	0.315115
2209.000000	0.315007
2210.000000	0.316396
2211.000000	0.316026
2212.000000	0.314771
2213.000000	0.313861
2214.000000	0.312049
2215.000000	0.311282
2216.000000	0.311100
2217.000000	0.311296
2218.000000	0.312760
2219.000000	0.313663
2220.000000	0.314618
2221.000000	0.314710
2222.000000	0.314561
2223.000000	0.313968
2224.000000	0.312266
2225.000000	0.311204
2226.000000	0.311401
2227.000000	0.309699
2228.000000	0.310148
2229.000000	0.310014
2230.000000	0.308674
2231.000000	0.308613
2232.000000	0.306417
2233.000000	0.305545
2234.000000	0.305082
2235.000000	0.304129
2236.000000	0.303906
2237.000000	0.303813
2238.000000	0.304809
2239.000000	0.306880
2240.000000	0.308397
2241.000000	0.311587
2242.000000	0.312545
2243.000000	0.311442
2244.000000	0.311477
2245.000000	0.311473
2246.000000	0.310923
2247.000000	0.310005
2248.000000	0.309799
2249.000000	0.309363
2250.000000	0.308779
2251.000000	0.309904
2252.000000	0.310890
2253.000000	0.311230
2254.000000	0.311405
2255.000000	0.312650
2256.000000	0.314132
2257.000000	0.315141
2258.000000	0.316371
2259.000000	0.315211
2260.000000	0.313183
2261.000000	0.311405
2262.000000	0.308629
2263.000000	0.307201
2264.000000	0.306051
2265.000000	0.305849
2266.000000	0.307034
2267.000000	0.306896
2268.000000	0.306776
2269.000000	0.306658
2270.000000	0.306395
2271.000000	0.305565
2272.000000	0.304469
2273.000000	0.303679
2274.000000	0.301860
2275.000000	0.300788
2276.000000	0.300868
2277.000000	0.300088
2278.000000	0.298261
2279.000000	0.297908
2280.000000	0.297774
2281.000000	0.297524
2282.000000	0.298127
2283.000000	0.298723
2284.000000	0.297641
2285.000000	0.296061
2286.000000	0.295998
2287.000000	0.294702
2288.000000	0.294500
2289.000000	0.295938
2290.000000	0.295221
2291.000000	0.293891
2292.000000	0.292057
2293.000000	0.289653
2294.000000	0.288404
2295.000000	0.287784
2296.000000	0.287594
2297.000000	0.288575
2298.000000	0.288083
2299.000000	0.286873
2300.000000	0.286093
2301.000000	0.284929
2302.000000	0.284510
2303.000000	0.285040
2304.000000	0.284380
2305.000000	0.283122
2306.000000	0.281665
2307.000000	0.279094
2308.000000	0.278224
2309.000000	0.277150
2310.000000	0.276844
2311.000000	0.276499
2312.000000	0.276490
2313.000000	0.276587
2314.000000	0.276146
2315.000000	0.276036
2316.000000	0.275484
2317.000000	0.275065
2318.000000	0.275388
2319.000000	0.276056
2320.000000	0.277199
2321.000000	0.279543
2322.000000	0.281640
2323.000000	0.285093
2324.000000	0.288586
2325.000000	0.288885
2326.000000	0.289037
2327.000000	0.289347
2328.000000	0.289564
2329.000000	0.291366
2330.000000	0.293675
2331.000000	0.294159
2332.000000	0.294407
2333.000000	0.294704
2334.000000	0.294241
2335.000000	0.294648
2336.000000	0.294919
2337.000000	0.295484
2338.000000	0.296717
2339.000000	0.297557
2340.000000	0.298564
2341.000000	0.298589
2342.000000	0.298017
2343.000000	0.297390
2344.000000	0.296050
2345.000000	0.295354
2346.000000	0.294789
2347.000000	0.294506
2348.000000	0.294486
2349.000000	0.294550
2350.000000	0.294578
2351.000000	0.292967
2352.000000	0.291993
2353.000000	0.292371
2354.000000	0.291431
2355.000000	0.292938
2356.000000	0.292915
2357.000000	0.291077
2358.000000	0.290912
2359.000000	0.289484
2360.000000	0.289465
2361.000000	0.290469
2362.000000	0.291276
2363.000000	0.293089
2364.000000	0.292825
2365.000000	0.293635
2366.000000	0.294855
2367.000000	0.293068
2368.000000	0.292218
2369.000000	0.288194
2370.000000	0.283140
2371.000000	0.282826
2372.000000	0.284408
2373.000000	0.288750
2374.000000	0.290944
2375.000000	0.289483
2376.000000	0.289079
2377.000000	0.288185
2378.000000	0.288047
2379.000000	0.287483
2380.000000	0.284909
2381.000000	0.282987
2382.000000	0.281536
2383.000000	0.283774
2384.000000	0.286699
2385.000000	0.287378
2386.000000	0.287473
2387.000000	0.284986
2388.000000	0.283248
2389.000000	0.280733
2390.000000	0.279923
2391.000000	0.279936
2392.000000	0.276365
2393.000000	0.275843
2394.000000	0.276081
2395.000000	0.277505
2396.000000	0.282009
2397.000000	0.285991
2398.000000	0.287892
2399.000000	0.286077
2400.000000	0.283239
2401.000000	0.281019
2402.000000	0.279285
2403.000000	0.280738
2404.000000	0.284545
2405.000000	0.283432
2406.000000	0.282101
2407.000000	0.287175
2408.000000	0.290515
2409.000000	0.293703
2410.000000	0.293140
2411.000000	0.283785
2412.000000	0.276428
2413.000000	0.273003
2414.000000	0.277367
2415.000000	0.281184
2416.000000	0.281584
2417.000000	0.284903
2418.000000	0.286950
2419.000000	0.292015
2420.000000	0.296931
2421.000000	0.300226
2422.000000	0.303015
2423.000000	0.305144
2424.000000	0.301294
2425.000000	0.293603
2426.000000	0.287036
2427.000000	0.277073
2428.000000	0.275027
2429.000000	0.277525
2430.000000	0.275751
2431.000000	0.277962
2432.000000	0.280318
2433.000000	0.280853
2434.000000	0.281756
2435.000000	0.277860
2436.000000	0.273554
2437.000000	0.271765
2438.000000	0.268388
2439.000000	0.267892
2440.000000	0.269250
2441.000000	0.269652
2442.000000	0.270254
2443.000000	0.272134
2444.000000	0.270287
2445.000000	0.264800
2446.000000	0.265617
2447.000000	0.267589
2448.000000	0.275313
2449.000000	0.286011
2450.000000	0.287287
2451.000000	0.284271
2452.000000	0.279429
2453.000000	0.268038
2454.000000	0.256923
2455.000000	0.246195
2456.000000	0.236075
2457.000000	0.237161
2458.000000	0.244392
2459.000000	0.262602
2460.000000	0.280281
2461.000000	0.292201
2462.000000	0.296397
2463.000000	0.291997
2464.000000	0.282992
2465.000000	0.262725
2466.000000	0.257555
2467.000000	0.249058
2468.000000	0.235847
2469.000000	0.243216
2470.000000	0.242544
2471.000000	0.245323
2472.000000	0.260028
2473.000000	0.271857
2474.000000	0.277134
2475.000000	0.278326
2476.000000	0.272765
2477.000000	0.261704
2478.000000	0.263342
2479.000000	0.271176
2480.000000	0.281179
2481.000000	0.291694
2482.000000	0.283049
2483.000000	0.276822
2484.000000	0.279321
2485.000000	0.272265
2486.000000	0.261396
2487.000000	0.241645
2488.000000	0.221544
2489.000000	0.219291
2490.000000	0.244807
2491.000000	0.285864
2492.000000	0.299091
2493.000000	0.310008
2494.000000	0.313228
2495.000000	0.290187
2496.000000	0.280456
2497.000000	0.255952
2498.000000	0.246769
2499.000000	0.275768
2500.000000	0.275699
