# Wavelength	SM1200H-40_HEX-10_FV7-50_00000.asd.rts.txt
350.000000	0.257920
351.000000	0.296452
352.000000	0.286507
353.000000	0.272174
354.000000	0.277291
355.000000	0.267548
356.000000	0.260820
357.000000	0.262044
358.000000	0.263080
359.000000	0.265599
360.000000	0.265886
361.000000	0.261164
362.000000	0.265111
363.000000	0.270820
364.000000	0.271861
365.000000	0.268652
366.000000	0.266289
367.000000	0.264876
368.000000	0.260861
369.000000	0.265529
370.000000	0.271652
371.000000	0.268950
372.000000	0.271076
373.000000	0.273718
374.000000	0.273293
375.000000	0.270033
376.000000	0.269429
377.000000	0.271291
378.000000	0.270312
379.000000	0.273223
380.000000	0.276344
381.000000	0.274678
382.000000	0.270798
383.000000	0.270875
384.000000	0.276231
385.000000	0.273305
386.000000	0.270613
387.000000	0.271490
388.000000	0.273967
389.000000	0.274530
390.000000	0.274197
391.000000	0.275257
392.000000	0.277553
393.000000	0.278171
394.000000	0.276166
395.000000	0.278097
396.000000	0.279603
397.000000	0.279076
398.000000	0.278438
399.000000	0.278334
400.000000	0.278915
401.000000	0.279804
402.000000	0.279862
403.000000	0.279804
404.000000	0.280420
405.000000	0.280485
406.000000	0.280743
407.000000	0.281395
408.000000	0.281449
409.000000	0.281514
410.000000	0.281762
411.000000	0.282118
412.000000	0.282983
413.000000	0.283819
414.000000	0.284114
415.000000	0.284639
416.000000	0.284933
417.000000	0.284862
418.000000	0.285220
419.000000	0.285426
420.000000	0.285517
421.000000	0.286030
422.000000	0.286620
423.000000	0.287077
424.000000	0.287354
425.000000	0.287627
426.000000	0.287596
427.000000	0.287244
428.000000	0.287707
429.000000	0.288173
430.000000	0.288442
431.000000	0.289131
432.000000	0.289329
433.000000	0.289230
434.000000	0.289613
435.000000	0.289687
436.000000	0.289764
437.000000	0.290175
438.000000	0.290496
439.000000	0.290838
440.000000	0.291212
441.000000	0.290898
442.000000	0.290796
443.000000	0.291036
444.000000	0.291426
445.000000	0.291842
446.000000	0.292247
447.000000	0.292454
448.000000	0.292701
449.000000	0.292952
450.000000	0.293153
451.000000	0.293189
452.000000	0.293268
453.000000	0.293456
454.000000	0.293949
455.000000	0.294518
456.000000	0.294907
457.000000	0.294707
458.000000	0.295014
459.000000	0.295441
460.000000	0.295548
461.000000	0.295468
462.000000	0.295501
463.000000	0.295620
464.000000	0.295865
465.000000	0.296124
466.000000	0.296442
467.000000	0.297119
468.000000	0.297218
469.000000	0.297061
470.000000	0.297383
471.000000	0.297549
472.000000	0.297661
473.000000	0.297899
474.000000	0.298429
475.000000	0.298578
476.000000	0.298455
477.000000	0.298605
478.000000	0.298666
479.000000	0.298783
480.000000	0.298895
481.000000	0.299393
482.000000	0.299933
483.000000	0.299979
484.000000	0.300187
485.000000	0.300291
486.000000	0.300433
487.000000	0.300898
488.000000	0.301301
489.000000	0.301492
490.000000	0.301420
491.000000	0.301445
492.000000	0.301684
493.000000	0.301981
494.000000	0.302181
495.000000	0.302417
496.000000	0.302767
497.000000	0.303348
498.000000	0.303655
499.000000	0.303722
500.000000	0.304009
501.000000	0.304217
502.000000	0.304452
503.000000	0.304858
504.000000	0.305144
505.000000	0.305370
506.000000	0.305627
507.000000	0.305744
508.000000	0.305927
509.000000	0.306236
510.000000	0.306589
511.000000	0.306873
512.000000	0.307118
513.000000	0.307408
514.000000	0.307731
515.000000	0.308101
516.000000	0.308457
517.000000	0.308780
518.000000	0.309092
519.000000	0.309341
520.000000	0.309722
521.000000	0.309937
522.000000	0.309976
523.000000	0.310260
524.000000	0.310526
525.000000	0.310758
526.000000	0.311101
527.000000	0.311396
528.000000	0.311659
529.000000	0.311981
530.000000	0.312187
531.000000	0.312421
532.000000	0.312677
533.000000	0.312938
534.000000	0.313242
535.000000	0.313552
536.000000	0.313800
537.000000	0.314031
538.000000	0.314251
539.000000	0.314447
540.000000	0.314710
541.000000	0.314962
542.000000	0.315181
543.000000	0.315494
544.000000	0.315789
545.000000	0.315970
546.000000	0.316263
547.000000	0.316576
548.000000	0.316889
549.000000	0.317111
550.000000	0.317331
551.000000	0.317625
552.000000	0.317981
553.000000	0.318282
554.000000	0.318533
555.000000	0.318784
556.000000	0.319166
557.000000	0.319426
558.000000	0.319664
559.000000	0.320025
560.000000	0.320301
561.000000	0.320606
562.000000	0.321014
563.000000	0.321258
564.000000	0.321492
565.000000	0.321788
566.000000	0.322125
567.000000	0.322420
568.000000	0.322649
569.000000	0.323007
570.000000	0.323380
571.000000	0.323700
572.000000	0.323956
573.000000	0.324225
574.000000	0.324484
575.000000	0.324746
576.000000	0.325008
577.000000	0.325243
578.000000	0.325504
579.000000	0.325809
580.000000	0.326049
581.000000	0.326228
582.000000	0.326554
583.000000	0.326831
584.000000	0.327072
585.000000	0.327403
586.000000	0.327681
587.000000	0.327920
588.000000	0.328164
589.000000	0.328376
590.000000	0.328648
591.000000	0.328998
592.000000	0.329237
593.000000	0.329475
594.000000	0.329721
595.000000	0.329898
596.000000	0.330127
597.000000	0.330396
598.000000	0.330532
599.000000	0.330575
600.000000	0.330684
601.000000	0.330876
602.000000	0.331041
603.000000	0.331184
604.000000	0.331332
605.000000	0.331508
606.000000	0.331637
607.000000	0.331772
608.000000	0.332045
609.000000	0.332327
610.000000	0.332560
611.000000	0.332716
612.000000	0.332836
613.000000	0.332974
614.000000	0.333188
615.000000	0.333383
616.000000	0.333546
617.000000	0.333646
618.000000	0.333745
619.000000	0.333867
620.000000	0.333986
621.000000	0.334121
622.000000	0.334213
623.000000	0.334297
624.000000	0.334398
625.000000	0.334452
626.000000	0.334553
627.000000	0.334723
628.000000	0.334868
629.000000	0.335034
630.000000	0.335120
631.000000	0.335263
632.000000	0.335328
633.000000	0.335404
634.000000	0.335569
635.000000	0.335702
636.000000	0.335871
637.000000	0.336072
638.000000	0.336190
639.000000	0.336311
640.000000	0.336474
641.000000	0.336501
642.000000	0.336685
643.000000	0.336918
644.000000	0.336995
645.000000	0.337087
646.000000	0.337201
647.000000	0.337304
648.000000	0.337430
649.000000	0.337548
650.000000	0.337673
651.000000	0.337970
652.000000	0.338144
653.000000	0.338254
654.000000	0.338413
655.000000	0.338583
656.000000	0.338738
657.000000	0.338804
658.000000	0.338891
659.000000	0.339009
660.000000	0.339128
661.000000	0.339212
662.000000	0.339310
663.000000	0.339467
664.000000	0.339607
665.000000	0.339760
666.000000	0.339923
667.000000	0.340062
668.000000	0.340240
669.000000	0.340438
670.000000	0.340629
671.000000	0.340761
672.000000	0.340917
673.000000	0.341101
674.000000	0.341282
675.000000	0.341363
676.000000	0.341482
677.000000	0.341794
678.000000	0.341864
679.000000	0.341906
680.000000	0.342088
681.000000	0.342234
682.000000	0.342428
683.000000	0.342612
684.000000	0.342854
685.000000	0.342972
686.000000	0.343062
687.000000	0.343237
688.000000	0.343408
689.000000	0.343538
690.000000	0.343665
691.000000	0.343871
692.000000	0.344040
693.000000	0.344194
694.000000	0.344310
695.000000	0.344391
696.000000	0.344475
697.000000	0.344616
698.000000	0.344773
699.000000	0.344929
700.000000	0.345086
701.000000	0.345261
702.000000	0.345406
703.000000	0.345497
704.000000	0.345604
705.000000	0.345721
706.000000	0.345831
707.000000	0.346007
708.000000	0.346106
709.000000	0.346170
710.000000	0.346276
711.000000	0.346395
712.000000	0.346516
713.000000	0.346655
714.000000	0.346798
715.000000	0.346875
716.000000	0.346957
717.000000	0.347135
718.000000	0.347250
719.000000	0.347336
720.000000	0.347455
721.000000	0.347563
722.000000	0.347648
723.000000	0.347759
724.000000	0.347818
725.000000	0.347897
726.000000	0.348073
727.000000	0.348223
728.000000	0.348327
729.000000	0.348465
730.000000	0.348626
731.000000	0.348740
732.000000	0.348819
733.000000	0.348914
734.000000	0.348982
735.000000	0.349038
736.000000	0.349186
737.000000	0.349277
738.000000	0.349353
739.000000	0.349481
740.000000	0.349524
741.000000	0.349601
742.000000	0.349673
743.000000	0.349715
744.000000	0.349815
745.000000	0.349840
746.000000	0.349884
747.000000	0.349994
748.000000	0.350135
749.000000	0.350283
750.000000	0.350382
751.000000	0.350460
752.000000	0.350476
753.000000	0.350466
754.000000	0.350505
755.000000	0.350591
756.000000	0.350695
757.000000	0.350740
758.000000	0.350811
759.000000	0.350944
760.000000	0.351060
761.000000	0.351166
762.000000	0.351259
763.000000	0.351304
764.000000	0.351335
765.000000	0.351374
766.000000	0.351385
767.000000	0.351347
768.000000	0.351373
769.000000	0.351469
770.000000	0.351599
771.000000	0.351665
772.000000	0.351704
773.000000	0.351687
774.000000	0.351716
775.000000	0.351737
776.000000	0.351779
777.000000	0.351832
778.000000	0.351843
779.000000	0.351879
780.000000	0.351939
781.000000	0.351933
782.000000	0.351888
783.000000	0.351917
784.000000	0.351933
785.000000	0.351949
786.000000	0.351942
787.000000	0.351907
788.000000	0.351908
789.000000	0.351900
790.000000	0.351869
791.000000	0.351871
792.000000	0.351972
793.000000	0.352088
794.000000	0.352145
795.000000	0.352168
796.000000	0.352170
797.000000	0.352148
798.000000	0.352099
799.000000	0.352132
800.000000	0.352220
801.000000	0.352295
802.000000	0.352344
803.000000	0.352322
804.000000	0.352271
805.000000	0.352241
806.000000	0.352250
807.000000	0.352318
808.000000	0.352285
809.000000	0.352306
810.000000	0.352318
811.000000	0.352256
812.000000	0.352212
813.000000	0.352164
814.000000	0.352092
815.000000	0.352007
816.000000	0.351993
817.000000	0.352092
818.000000	0.352196
819.000000	0.352178
820.000000	0.352136
821.000000	0.352074
822.000000	0.352020
823.000000	0.352023
824.000000	0.352009
825.000000	0.352002
826.000000	0.351936
827.000000	0.351840
828.000000	0.351787
829.000000	0.351746
830.000000	0.351672
831.000000	0.351659
832.000000	0.351673
833.000000	0.351647
834.000000	0.351641
835.000000	0.351716
836.000000	0.351693
837.000000	0.351675
838.000000	0.351694
839.000000	0.351679
840.000000	0.351595
841.000000	0.351446
842.000000	0.351244
843.000000	0.351237
844.000000	0.351178
845.000000	0.351017
846.000000	0.351015
847.000000	0.351019
848.000000	0.351014
849.000000	0.351038
850.000000	0.350953
851.000000	0.350820
852.000000	0.350758
853.000000	0.350837
854.000000	0.350706
855.000000	0.350606
856.000000	0.350663
857.000000	0.350482
858.000000	0.350343
859.000000	0.350288
860.000000	0.350172
861.000000	0.350042
862.000000	0.349918
863.000000	0.349738
864.000000	0.349677
865.000000	0.349606
866.000000	0.349472
867.000000	0.349301
868.000000	0.349209
869.000000	0.349131
870.000000	0.349049
871.000000	0.348887
872.000000	0.348755
873.000000	0.348652
874.000000	0.348576
875.000000	0.348416
876.000000	0.348274
877.000000	0.348227
878.000000	0.348023
879.000000	0.347837
880.000000	0.347629
881.000000	0.347435
882.000000	0.347290
883.000000	0.347155
884.000000	0.346909
885.000000	0.346769
886.000000	0.346678
887.000000	0.346575
888.000000	0.346335
889.000000	0.346146
890.000000	0.345913
891.000000	0.345702
892.000000	0.345503
893.000000	0.345330
894.000000	0.345269
895.000000	0.345067
896.000000	0.344886
897.000000	0.344703
898.000000	0.344452
899.000000	0.344199
900.000000	0.344008
901.000000	0.343845
902.000000	0.343698
903.000000	0.343596
904.000000	0.343549
905.000000	0.343421
906.000000	0.343157
907.000000	0.343028
908.000000	0.343011
909.000000	0.342570
910.000000	0.342314
911.000000	0.342184
912.000000	0.342012
913.000000	0.341731
914.000000	0.341429
915.000000	0.341208
916.000000	0.340985
917.000000	0.340680
918.000000	0.340446
919.000000	0.340326
920.000000	0.340058
921.000000	0.339875
922.000000	0.339715
923.000000	0.339372
924.000000	0.339130
925.000000	0.338878
926.000000	0.338584
927.000000	0.338291
928.000000	0.338034
929.000000	0.337868
930.000000	0.337804
931.000000	0.337611
932.000000	0.337393
933.000000	0.337231
934.000000	0.337045
935.000000	0.336616
936.000000	0.336266
937.000000	0.336104
938.000000	0.335701
939.000000	0.335331
940.000000	0.335043
941.000000	0.334905
942.000000	0.334628
943.000000	0.334327
944.000000	0.333993
945.000000	0.333773
946.000000	0.333609
947.000000	0.333430
948.000000	0.333123
949.000000	0.332858
950.000000	0.332657
951.000000	0.332428
952.000000	0.332117
953.000000	0.331821
954.000000	0.331606
955.000000	0.331390
956.000000	0.331031
957.000000	0.330881
958.000000	0.330837
959.000000	0.330740
960.000000	0.330430
961.000000	0.330198
962.000000	0.330036
963.000000	0.329638
964.000000	0.329407
965.000000	0.329208
966.000000	0.328806
967.000000	0.328637
968.000000	0.328478
969.000000	0.328127
970.000000	0.327638
971.000000	0.327610
972.000000	0.327689
973.000000	0.327511
974.000000	0.327049
975.000000	0.326856
976.000000	0.326774
977.000000	0.326565
978.000000	0.326282
979.000000	0.326101
980.000000	0.325805
981.000000	0.325552
982.000000	0.325276
983.000000	0.325098
984.000000	0.324977
985.000000	0.324558
986.000000	0.324327
987.000000	0.324290
988.000000	0.324177
989.000000	0.323768
990.000000	0.323602
991.000000	0.323482
992.000000	0.323166
993.000000	0.323250
994.000000	0.323034
995.000000	0.322681
996.000000	0.322551
997.000000	0.322506
998.000000	0.322563
999.000000	0.322650
1000.000000	0.322281
1001.000000	0.323177
1002.000000	0.322552
1003.000000	0.321765
1004.000000	0.321379
1005.000000	0.320749
1006.000000	0.320344
1007.000000	0.320296
1008.000000	0.320519
1009.000000	0.320486
1010.000000	0.320665
1011.000000	0.320818
1012.000000	0.320982
1013.000000	0.321442
1014.000000	0.321245
1015.000000	0.320499
1016.000000	0.320207
1017.000000	0.319597
1018.000000	0.319154
1019.000000	0.319099
1020.000000	0.320055
1021.000000	0.319814
1022.000000	0.318991
1023.000000	0.319183
1024.000000	0.319407
1025.000000	0.319825
1026.000000	0.320253
1027.000000	0.320347
1028.000000	0.319782
1029.000000	0.319467
1030.000000	0.319834
1031.000000	0.320029
1032.000000	0.319681
1033.000000	0.319243
1034.000000	0.319189
1035.000000	0.319015
1036.000000	0.319278
1037.000000	0.320468
1038.000000	0.320578
1039.000000	0.320447
1040.000000	0.320093
1041.000000	0.319491
1042.000000	0.319371
1043.000000	0.319449
1044.000000	0.319642
1045.000000	0.319637
1046.000000	0.319498
1047.000000	0.319630
1048.000000	0.319742
1049.000000	0.319931
1050.000000	0.320555
1051.000000	0.320735
1052.000000	0.320416
1053.000000	0.320509
1054.000000	0.320933
1055.000000	0.321097
1056.000000	0.321130
1057.000000	0.321870
1058.000000	0.322081
1059.000000	0.321852
1060.000000	0.322098
1061.000000	0.322335
1062.000000	0.322388
1063.000000	0.322529
1064.000000	0.322665
1065.000000	0.322670
1066.000000	0.322786
1067.000000	0.322908
1068.000000	0.323139
1069.000000	0.323550
1070.000000	0.323771
1071.000000	0.323963
1072.000000	0.324189
1073.000000	0.324520
1074.000000	0.324599
1075.000000	0.324529
1076.000000	0.324659
1077.000000	0.324506
1078.000000	0.324494
1079.000000	0.324764
1080.000000	0.325479
1081.000000	0.325819
1082.000000	0.326427
1083.000000	0.326616
1084.000000	0.326541
1085.000000	0.326476
1086.000000	0.325806
1087.000000	0.325909
1088.000000	0.326355
1089.000000	0.326682
1090.000000	0.327532
1091.000000	0.328029
1092.000000	0.328081
1093.000000	0.328280
1094.000000	0.328349
1095.000000	0.328236
1096.000000	0.328264
1097.000000	0.328177
1098.000000	0.328335
1099.000000	0.328549
1100.000000	0.328847
1101.000000	0.329408
1102.000000	0.329693
1103.000000	0.329814
1104.000000	0.330051
1105.000000	0.330110
1106.000000	0.330358
1107.000000	0.330957
1108.000000	0.331160
1109.000000	0.331088
1110.000000	0.331246
1111.000000	0.331523
1112.000000	0.331778
1113.000000	0.331925
1114.000000	0.332282
1115.000000	0.332501
1116.000000	0.332432
1117.000000	0.332511
1118.000000	0.332876
1119.000000	0.332873
1120.000000	0.332404
1121.000000	0.332391
1122.000000	0.332781
1123.000000	0.332979
1124.000000	0.332937
1125.000000	0.333090
1126.000000	0.332864
1127.000000	0.332902
1128.000000	0.333124
1129.000000	0.333817
1130.000000	0.334103
1131.000000	0.334396
1132.000000	0.334519
1133.000000	0.334504
1134.000000	0.334576
1135.000000	0.334574
1136.000000	0.334554
1137.000000	0.334424
1138.000000	0.334442
1139.000000	0.334702
1140.000000	0.334819
1141.000000	0.334828
1142.000000	0.334966
1143.000000	0.335055
1144.000000	0.335160
1145.000000	0.335137
1146.000000	0.335153
1147.000000	0.335187
1148.000000	0.334945
1149.000000	0.335025
1150.000000	0.335435
1151.000000	0.335563
1152.000000	0.335558
1153.000000	0.335632
1154.000000	0.335536
1155.000000	0.335577
1156.000000	0.335810
1157.000000	0.335901
1158.000000	0.335889
1159.000000	0.335934
1160.000000	0.335978
1161.000000	0.335938
1162.000000	0.335931
1163.000000	0.336042
1164.000000	0.335963
1165.000000	0.335765
1166.000000	0.335724
1167.000000	0.335623
1168.000000	0.335657
1169.000000	0.335884
1170.000000	0.335977
1171.000000	0.336160
1172.000000	0.336259
1173.000000	0.336184
1174.000000	0.336210
1175.000000	0.336188
1176.000000	0.336216
1177.000000	0.336425
1178.000000	0.336538
1179.000000	0.336667
1180.000000	0.336711
1181.000000	0.336862
1182.000000	0.336736
1183.000000	0.336756
1184.000000	0.336874
1185.000000	0.336902
1186.000000	0.336941
1187.000000	0.336937
1188.000000	0.336870
1189.000000	0.336798
1190.000000	0.336804
1191.000000	0.336689
1192.000000	0.336562
1193.000000	0.336575
1194.000000	0.336439
1195.000000	0.336381
1196.000000	0.336370
1197.000000	0.336358
1198.000000	0.336385
1199.000000	0.336351
1200.000000	0.336220
1201.000000	0.336216
1202.000000	0.336279
1203.000000	0.336500
1204.000000	0.336700
1205.000000	0.336798
1206.000000	0.336750
1207.000000	0.336538
1208.000000	0.336433
1209.000000	0.336350
1210.000000	0.336324
1211.000000	0.336353
1212.000000	0.336359
1213.000000	0.336511
1214.000000	0.336540
1215.000000	0.336392
1216.000000	0.336377
1217.000000	0.336277
1218.000000	0.336292
1219.000000	0.336475
1220.000000	0.336759
1221.000000	0.336829
1222.000000	0.336749
1223.000000	0.336688
1224.000000	0.336587
1225.000000	0.336515
1226.000000	0.336674
1227.000000	0.336753
1228.000000	0.336725
1229.000000	0.336669
1230.000000	0.336579
1231.000000	0.336432
1232.000000	0.336324
1233.000000	0.336300
1234.000000	0.336280
1235.000000	0.336186
1236.000000	0.335922
1237.000000	0.335871
1238.000000	0.335938
1239.000000	0.335825
1240.000000	0.335691
1241.000000	0.335558
1242.000000	0.335423
1243.000000	0.335329
1244.000000	0.335427
1245.000000	0.335634
1246.000000	0.335689
1247.000000	0.335747
1248.000000	0.335855
1249.000000	0.335929
1250.000000	0.336045
1251.000000	0.336088
1252.000000	0.336081
1253.000000	0.336091
1254.000000	0.336104
1255.000000	0.336037
1256.000000	0.335982
1257.000000	0.335971
1258.000000	0.335966
1259.000000	0.335805
1260.000000	0.335843
1261.000000	0.335974
1262.000000	0.336015
1263.000000	0.336095
1264.000000	0.336167
1265.000000	0.336213
1266.000000	0.336244
1267.000000	0.336267
1268.000000	0.336194
1269.000000	0.335983
1270.000000	0.335855
1271.000000	0.335756
1272.000000	0.335699
1273.000000	0.335674
1274.000000	0.335709
1275.000000	0.335618
1276.000000	0.335408
1277.000000	0.335418
1278.000000	0.335326
1279.000000	0.335275
1280.000000	0.335334
1281.000000	0.335319
1282.000000	0.335425
1283.000000	0.335445
1284.000000	0.335236
1285.000000	0.335192
1286.000000	0.335153
1287.000000	0.334998
1288.000000	0.335047
1289.000000	0.335152
1290.000000	0.335031
1291.000000	0.334935
1292.000000	0.335017
1293.000000	0.334972
1294.000000	0.334925
1295.000000	0.334992
1296.000000	0.334786
1297.000000	0.334625
1298.000000	0.334693
1299.000000	0.334685
1300.000000	0.334823
1301.000000	0.335052
1302.000000	0.335110
1303.000000	0.335196
1304.000000	0.335148
1305.000000	0.335106
1306.000000	0.334996
1307.000000	0.334820
1308.000000	0.334735
1309.000000	0.334614
1310.000000	0.334513
1311.000000	0.334488
1312.000000	0.334381
1313.000000	0.334286
1314.000000	0.334228
1315.000000	0.334108
1316.000000	0.334123
1317.000000	0.334068
1318.000000	0.333895
1319.000000	0.333809
1320.000000	0.333709
1321.000000	0.333614
1322.000000	0.333623
1323.000000	0.333601
1324.000000	0.333535
1325.000000	0.333471
1326.000000	0.333491
1327.000000	0.333587
1328.000000	0.333608
1329.000000	0.333448
1330.000000	0.333145
1331.000000	0.332955
1332.000000	0.332709
1333.000000	0.332565
1334.000000	0.332539
1335.000000	0.332605
1336.000000	0.332798
1337.000000	0.332835
1338.000000	0.332866
1339.000000	0.332830
1340.000000	0.332675
1341.000000	0.332437
1342.000000	0.332284
1343.000000	0.332383
1344.000000	0.332419
1345.000000	0.332306
1346.000000	0.332369
1347.000000	0.332242
1348.000000	0.332083
1349.000000	0.331976
1350.000000	0.331867
1351.000000	0.331706
1352.000000	0.331555
1353.000000	0.331461
1354.000000	0.331332
1355.000000	0.331235
1356.000000	0.331225
1357.000000	0.331193
1358.000000	0.331221
1359.000000	0.331147
1360.000000	0.331051
1361.000000	0.330968
1362.000000	0.330834
1363.000000	0.330580
1364.000000	0.330468
1365.000000	0.330347
1366.000000	0.330261
1367.000000	0.330264
1368.000000	0.330174
1369.000000	0.330091
1370.000000	0.329996
1371.000000	0.329794
1372.000000	0.329577
1373.000000	0.329270
1374.000000	0.328813
1375.000000	0.328319
1376.000000	0.327820
1377.000000	0.327318
1378.000000	0.326813
1379.000000	0.326106
1380.000000	0.325190
1381.000000	0.324136
1382.000000	0.322939
1383.000000	0.321689
1384.000000	0.320402
1385.000000	0.319086
1386.000000	0.317861
1387.000000	0.316745
1388.000000	0.315770
1389.000000	0.315144
1390.000000	0.314796
1391.000000	0.314555
1392.000000	0.314595
1393.000000	0.314617
1394.000000	0.314750
1395.000000	0.314926
1396.000000	0.315243
1397.000000	0.315340
1398.000000	0.315445
1399.000000	0.315395
1400.000000	0.315128
1401.000000	0.314897
1402.000000	0.314664
1403.000000	0.314325
1404.000000	0.314121
1405.000000	0.313781
1406.000000	0.313387
1407.000000	0.313091
1408.000000	0.312659
1409.000000	0.312281
1410.000000	0.312121
1411.000000	0.311856
1412.000000	0.311486
1413.000000	0.311360
1414.000000	0.311116
1415.000000	0.310836
1416.000000	0.310823
1417.000000	0.310784
1418.000000	0.310737
1419.000000	0.310875
1420.000000	0.310839
1421.000000	0.310842
1422.000000	0.310968
1423.000000	0.311057
1424.000000	0.311106
1425.000000	0.311213
1426.000000	0.311138
1427.000000	0.311102
1428.000000	0.311249
1429.000000	0.311337
1430.000000	0.311466
1431.000000	0.311593
1432.000000	0.311649
1433.000000	0.311671
1434.000000	0.311696
1435.000000	0.311754
1436.000000	0.311810
1437.000000	0.311862
1438.000000	0.311814
1439.000000	0.311739
1440.000000	0.311774
1441.000000	0.311834
1442.000000	0.311889
1443.000000	0.311981
1444.000000	0.312000
1445.000000	0.311859
1446.000000	0.311665
1447.000000	0.311523
1448.000000	0.311407
1449.000000	0.311308
1450.000000	0.311287
1451.000000	0.311296
1452.000000	0.311180
1453.000000	0.311086
1454.000000	0.311031
1455.000000	0.310946
1456.000000	0.311070
1457.000000	0.311286
1458.000000	0.311292
1459.000000	0.311307
1460.000000	0.311320
1461.000000	0.311176
1462.000000	0.311232
1463.000000	0.311284
1464.000000	0.311290
1465.000000	0.311436
1466.000000	0.311464
1467.000000	0.311566
1468.000000	0.311694
1469.000000	0.311762
1470.000000	0.311875
1471.000000	0.312024
1472.000000	0.312112
1473.000000	0.312400
1474.000000	0.312673
1475.000000	0.312809
1476.000000	0.312949
1477.000000	0.313012
1478.000000	0.313079
1479.000000	0.313195
1480.000000	0.313303
1481.000000	0.313406
1482.000000	0.313552
1483.000000	0.313720
1484.000000	0.313892
1485.000000	0.314083
1486.000000	0.314286
1487.000000	0.314465
1488.000000	0.314667
1489.000000	0.314890
1490.000000	0.315007
1491.000000	0.315140
1492.000000	0.315202
1493.000000	0.315384
1494.000000	0.315593
1495.000000	0.315742
1496.000000	0.315926
1497.000000	0.316098
1498.000000	0.316221
1499.000000	0.316322
1500.000000	0.316638
1501.000000	0.316869
1502.000000	0.316933
1503.000000	0.317087
1504.000000	0.317136
1505.000000	0.317170
1506.000000	0.317343
1507.000000	0.317508
1508.000000	0.317655
1509.000000	0.317838
1510.000000	0.318110
1511.000000	0.318315
1512.000000	0.318444
1513.000000	0.318596
1514.000000	0.318641
1515.000000	0.318640
1516.000000	0.318763
1517.000000	0.318778
1518.000000	0.318717
1519.000000	0.318639
1520.000000	0.318565
1521.000000	0.318499
1522.000000	0.318457
1523.000000	0.318494
1524.000000	0.318515
1525.000000	0.318484
1526.000000	0.318448
1527.000000	0.318455
1528.000000	0.318440
1529.000000	0.318426
1530.000000	0.318502
1531.000000	0.318695
1532.000000	0.318815
1533.000000	0.318894
1534.000000	0.318962
1535.000000	0.318908
1536.000000	0.318910
1537.000000	0.319053
1538.000000	0.319120
1539.000000	0.319181
1540.000000	0.319293
1541.000000	0.319392
1542.000000	0.319500
1543.000000	0.319585
1544.000000	0.319619
1545.000000	0.319636
1546.000000	0.319583
1547.000000	0.319649
1548.000000	0.319827
1549.000000	0.319941
1550.000000	0.320105
1551.000000	0.320187
1552.000000	0.320204
1553.000000	0.320284
1554.000000	0.320387
1555.000000	0.320578
1556.000000	0.320714
1557.000000	0.320706
1558.000000	0.320791
1559.000000	0.320834
1560.000000	0.320839
1561.000000	0.320952
1562.000000	0.320932
1563.000000	0.320795
1564.000000	0.320772
1565.000000	0.320711
1566.000000	0.320618
1567.000000	0.320689
1568.000000	0.320697
1569.000000	0.320737
1570.000000	0.320793
1571.000000	0.320874
1572.000000	0.320838
1573.000000	0.320745
1574.000000	0.320640
1575.000000	0.320472
1576.000000	0.320401
1577.000000	0.320322
1578.000000	0.320305
1579.000000	0.320458
1580.000000	0.320454
1581.000000	0.320503
1582.000000	0.320487
1583.000000	0.320330
1584.000000	0.320214
1585.000000	0.320178
1586.000000	0.320154
1587.000000	0.320112
1588.000000	0.320134
1589.000000	0.320277
1590.000000	0.320327
1591.000000	0.320362
1592.000000	0.320403
1593.000000	0.320414
1594.000000	0.320407
1595.000000	0.320532
1596.000000	0.320537
1597.000000	0.320452
1598.000000	0.320463
1599.000000	0.320484
1600.000000	0.320451
1601.000000	0.320538
1602.000000	0.320547
1603.000000	0.320508
1604.000000	0.320529
1605.000000	0.320584
1606.000000	0.320648
1607.000000	0.320783
1608.000000	0.320858
1609.000000	0.321047
1610.000000	0.321075
1611.000000	0.320985
1612.000000	0.320976
1613.000000	0.321061
1614.000000	0.321043
1615.000000	0.321086
1616.000000	0.321105
1617.000000	0.320920
1618.000000	0.320853
1619.000000	0.320870
1620.000000	0.320863
1621.000000	0.320959
1622.000000	0.321006
1623.000000	0.320912
1624.000000	0.320947
1625.000000	0.320892
1626.000000	0.320836
1627.000000	0.320863
1628.000000	0.320950
1629.000000	0.321014
1630.000000	0.321096
1631.000000	0.321254
1632.000000	0.321291
1633.000000	0.321204
1634.000000	0.321227
1635.000000	0.321363
1636.000000	0.321350
1637.000000	0.321340
1638.000000	0.321261
1639.000000	0.321105
1640.000000	0.320936
1641.000000	0.320791
1642.000000	0.320706
1643.000000	0.320635
1644.000000	0.320606
1645.000000	0.320619
1646.000000	0.320663
1647.000000	0.320789
1648.000000	0.320837
1649.000000	0.321021
1650.000000	0.321168
1651.000000	0.321325
1652.000000	0.321416
1653.000000	0.321443
1654.000000	0.321460
1655.000000	0.321287
1656.000000	0.321204
1657.000000	0.321306
1658.000000	0.321247
1659.000000	0.321230
1660.000000	0.321205
1661.000000	0.320965
1662.000000	0.320939
1663.000000	0.321030
1664.000000	0.321046
1665.000000	0.321082
1666.000000	0.321199
1667.000000	0.321214
1668.000000	0.321287
1669.000000	0.321512
1670.000000	0.321423
1671.000000	0.321247
1672.000000	0.321245
1673.000000	0.321096
1674.000000	0.321236
1675.000000	0.321523
1676.000000	0.321665
1677.000000	0.321731
1678.000000	0.321621
1679.000000	0.321421
1680.000000	0.321382
1681.000000	0.321364
1682.000000	0.321499
1683.000000	0.321806
1684.000000	0.321857
1685.000000	0.321928
1686.000000	0.321982
1687.000000	0.321913
1688.000000	0.321929
1689.000000	0.321968
1690.000000	0.322016
1691.000000	0.322136
1692.000000	0.322135
1693.000000	0.322102
1694.000000	0.322020
1695.000000	0.322048
1696.000000	0.322141
1697.000000	0.322115
1698.000000	0.322053
1699.000000	0.322064
1700.000000	0.322156
1701.000000	0.322163
1702.000000	0.321945
1703.000000	0.321758
1704.000000	0.321466
1705.000000	0.321346
1706.000000	0.321479
1707.000000	0.321505
1708.000000	0.321556
1709.000000	0.321480
1710.000000	0.321364
1711.000000	0.321308
1712.000000	0.321195
1713.000000	0.321194
1714.000000	0.321402
1715.000000	0.321477
1716.000000	0.321627
1717.000000	0.321601
1718.000000	0.321254
1719.000000	0.321179
1720.000000	0.321259
1721.000000	0.321245
1722.000000	0.321365
1723.000000	0.321397
1724.000000	0.321353
1725.000000	0.321285
1726.000000	0.321107
1727.000000	0.320991
1728.000000	0.320686
1729.000000	0.320556
1730.000000	0.320751
1731.000000	0.320776
1732.000000	0.320771
1733.000000	0.320914
1734.000000	0.320953
1735.000000	0.321027
1736.000000	0.321192
1737.000000	0.321269
1738.000000	0.321302
1739.000000	0.321303
1740.000000	0.321282
1741.000000	0.321220
1742.000000	0.321069
1743.000000	0.321079
1744.000000	0.321136
1745.000000	0.321129
1746.000000	0.321148
1747.000000	0.321047
1748.000000	0.321000
1749.000000	0.321175
1750.000000	0.321085
1751.000000	0.320914
1752.000000	0.320935
1753.000000	0.320639
1754.000000	0.320563
1755.000000	0.320800
1756.000000	0.320864
1757.000000	0.320939
1758.000000	0.320949
1759.000000	0.320778
1760.000000	0.320727
1761.000000	0.320686
1762.000000	0.320607
1763.000000	0.320597
1764.000000	0.320545
1765.000000	0.320321
1766.000000	0.320294
1767.000000	0.320356
1768.000000	0.320270
1769.000000	0.320273
1770.000000	0.320312
1771.000000	0.320217
1772.000000	0.320200
1773.000000	0.320257
1774.000000	0.320266
1775.000000	0.320308
1776.000000	0.320294
1777.000000	0.320237
1778.000000	0.320147
1779.000000	0.319971
1780.000000	0.319849
1781.000000	0.319705
1782.000000	0.319605
1783.000000	0.319523
1784.000000	0.319679
1785.000000	0.319683
1786.000000	0.319823
1787.000000	0.320063
1788.000000	0.319852
1789.000000	0.319586
1790.000000	0.319553
1791.000000	0.319484
1792.000000	0.319876
1793.000000	0.320024
1794.000000	0.319897
1795.000000	0.319894
1796.000000	0.319859
1797.000000	0.319876
1798.000000	0.319959
1799.000000	0.320035
1800.000000	0.320196
1801.000000	0.319889
1802.000000	0.320020
1803.000000	0.320281
1804.000000	0.320080
1805.000000	0.319130
1806.000000	0.318853
1807.000000	0.318587
1808.000000	0.318530
1809.000000	0.318841
1810.000000	0.319139
1811.000000	0.319383
1812.000000	0.319458
1813.000000	0.319854
1814.000000	0.320908
1815.000000	0.321054
1816.000000	0.320908
1817.000000	0.320799
1818.000000	0.320118
1819.000000	0.319716
1820.000000	0.319937
1821.000000	0.319761
1822.000000	0.319706
1823.000000	0.319586
1824.000000	0.319215
1825.000000	0.318450
1826.000000	0.318304
1827.000000	0.317790
1828.000000	0.318076
1829.000000	0.319055
1830.000000	0.319488
1831.000000	0.319813
1832.000000	0.319941
1833.000000	0.320141
1834.000000	0.320523
1835.000000	0.320420
1836.000000	0.319769
1837.000000	0.319632
1838.000000	0.319332
1839.000000	0.318951
1840.000000	0.318482
1841.000000	0.318189
1842.000000	0.318210
1843.000000	0.318117
1844.000000	0.317954
1845.000000	0.318443
1846.000000	0.318441
1847.000000	0.317643
1848.000000	0.316934
1849.000000	0.317160
1850.000000	0.316983
1851.000000	0.317072
1852.000000	0.317729
1853.000000	0.317696
1854.000000	0.317195
1855.000000	0.316824
1856.000000	0.316001
1857.000000	0.315351
1858.000000	0.315345
1859.000000	0.314793
1860.000000	0.314776
1861.000000	0.315181
1862.000000	0.314818
1863.000000	0.314280
1864.000000	0.313759
1865.000000	0.312344
1866.000000	0.311628
1867.000000	0.311179
1868.000000	0.311248
1869.000000	0.310759
1870.000000	0.310299
1871.000000	0.309808
1872.000000	0.308670
1873.000000	0.307682
1874.000000	0.306848
1875.000000	0.305729
1876.000000	0.304109
1877.000000	0.302362
1878.000000	0.300631
1879.000000	0.298951
1880.000000	0.297390
1881.000000	0.295439
1882.000000	0.293280
1883.000000	0.291244
1884.000000	0.289269
1885.000000	0.287282
1886.000000	0.285013
1887.000000	0.282775
1888.000000	0.280013
1889.000000	0.277078
1890.000000	0.273901
1891.000000	0.271461
1892.000000	0.269308
1893.000000	0.266820
1894.000000	0.265219
1895.000000	0.263035
1896.000000	0.260790
1897.000000	0.258116
1898.000000	0.255642
1899.000000	0.253325
1900.000000	0.251513
1901.000000	0.250469
1902.000000	0.249870
1903.000000	0.249312
1904.000000	0.248903
1905.000000	0.247905
1906.000000	0.247074
1907.000000	0.246243
1908.000000	0.245521
1909.000000	0.244690
1910.000000	0.244869
1911.000000	0.245408
1912.000000	0.246067
1913.000000	0.246645
1914.000000	0.246899
1915.000000	0.246760
1916.000000	0.245941
1917.000000	0.245812
1918.000000	0.246122
1919.000000	0.246726
1920.000000	0.246817
1921.000000	0.247357
1922.000000	0.247081
1923.000000	0.246581
1924.000000	0.246465
1925.000000	0.246762
1926.000000	0.247786
1927.000000	0.248722
1928.000000	0.249362
1929.000000	0.250115
1930.000000	0.250474
1931.000000	0.250694
1932.000000	0.250726
1933.000000	0.250927
1934.000000	0.251561
1935.000000	0.251553
1936.000000	0.251995
1937.000000	0.252732
1938.000000	0.252473
1939.000000	0.252403
1940.000000	0.252422
1941.000000	0.252511
1942.000000	0.252024
1943.000000	0.251876
1944.000000	0.252111
1945.000000	0.251562
1946.000000	0.251096
1947.000000	0.251548
1948.000000	0.251881
1949.000000	0.252754
1950.000000	0.254097
1951.000000	0.254789
1952.000000	0.255278
1953.000000	0.255438
1954.000000	0.255358
1955.000000	0.255377
1956.000000	0.255411
1957.000000	0.255382
1958.000000	0.255536
1959.000000	0.255584
1960.000000	0.255302
1961.000000	0.255093
1962.000000	0.255094
1963.000000	0.255152
1964.000000	0.255334
1965.000000	0.256160
1966.000000	0.256786
1967.000000	0.257074
1968.000000	0.257121
1969.000000	0.256612
1970.000000	0.256665
1971.000000	0.256625
1972.000000	0.256616
1973.000000	0.256831
1974.000000	0.257139
1975.000000	0.257557
1976.000000	0.258363
1977.000000	0.259293
1978.000000	0.259752
1979.000000	0.260190
1980.000000	0.260278
1981.000000	0.260575
1982.000000	0.260926
1983.000000	0.261212
1984.000000	0.261498
1985.000000	0.261998
1986.000000	0.261976
1987.000000	0.261472
1988.000000	0.261827
1989.000000	0.262003
1990.000000	0.262253
1991.000000	0.263205
1992.000000	0.263799
1993.000000	0.264404
1994.000000	0.265175
1995.000000	0.265808
1996.000000	0.266459
1997.000000	0.267157
1998.000000	0.268110
1999.000000	0.268742
2000.000000	0.269412
2001.000000	0.269661
2002.000000	0.269723
2003.000000	0.269457
2004.000000	0.269616
2005.000000	0.270007
2006.000000	0.270203
2007.000000	0.270967
2008.000000	0.271255
2009.000000	0.271060
2010.000000	0.271112
2011.000000	0.270835
2012.000000	0.270941
2013.000000	0.271133
2014.000000	0.271656
2015.000000	0.272052
2016.000000	0.272151
2017.000000	0.272132
2018.000000	0.271964
2019.000000	0.272065
2020.000000	0.273007
2021.000000	0.273865
2022.000000	0.275244
2023.000000	0.275737
2024.000000	0.275881
2025.000000	0.276273
2026.000000	0.275932
2027.000000	0.276291
2028.000000	0.277119
2029.000000	0.277654
2030.000000	0.278379
2031.000000	0.278656
2032.000000	0.278796
2033.000000	0.279182
2034.000000	0.279679
2035.000000	0.280457
2036.000000	0.280779
2037.000000	0.281378
2038.000000	0.281787
2039.000000	0.281977
2040.000000	0.281477
2041.000000	0.282328
2042.000000	0.282546
2043.000000	0.282169
2044.000000	0.282741
2045.000000	0.282383
2046.000000	0.282189
2047.000000	0.282468
2048.000000	0.283054
2049.000000	0.283513
2050.000000	0.284108
2051.000000	0.284346
2052.000000	0.284148
2053.000000	0.284341
2054.000000	0.284783
2055.000000	0.285287
2056.000000	0.286014
2057.000000	0.286208
2058.000000	0.286195
2059.000000	0.286122
2060.000000	0.286414
2061.000000	0.287217
2062.000000	0.287340
2063.000000	0.287390
2064.000000	0.287262
2065.000000	0.286646
2066.000000	0.286318
2067.000000	0.286249
2068.000000	0.286683
2069.000000	0.286890
2070.000000	0.287618
2071.000000	0.288558
2072.000000	0.288753
2073.000000	0.288694
2074.000000	0.288346
2075.000000	0.288119
2076.000000	0.287430
2077.000000	0.287284
2078.000000	0.287603
2079.000000	0.287697
2080.000000	0.288047
2081.000000	0.288254
2082.000000	0.288620
2083.000000	0.288058
2084.000000	0.288299
2085.000000	0.288461
2086.000000	0.288769
2087.000000	0.289455
2088.000000	0.289344
2089.000000	0.289501
2090.000000	0.289771
2091.000000	0.289915
2092.000000	0.290402
2093.000000	0.291620
2094.000000	0.292029
2095.000000	0.292226
2096.000000	0.292519
2097.000000	0.292428
2098.000000	0.292227
2099.000000	0.292486
2100.000000	0.292887
2101.000000	0.293131
2102.000000	0.293530
2103.000000	0.293965
2104.000000	0.293976
2105.000000	0.293785
2106.000000	0.293119
2107.000000	0.293056
2108.000000	0.292781
2109.000000	0.292879
2110.000000	0.293593
2111.000000	0.293784
2112.000000	0.293403
2113.000000	0.293699
2114.000000	0.293585
2115.000000	0.293706
2116.000000	0.293998
2117.000000	0.293420
2118.000000	0.293621
2119.000000	0.294001
2120.000000	0.293815
2121.000000	0.293291
2122.000000	0.293493
2123.000000	0.293404
2124.000000	0.293729
2125.000000	0.295188
2126.000000	0.295833
2127.000000	0.296281
2128.000000	0.296440
2129.000000	0.296237
2130.000000	0.295901
2131.000000	0.295070
2132.000000	0.294546
2133.000000	0.294614
2134.000000	0.295732
2135.000000	0.297126
2136.000000	0.298283
2137.000000	0.298459
2138.000000	0.297846
2139.000000	0.297255
2140.000000	0.295250
2141.000000	0.294804
2142.000000	0.294950
2143.000000	0.295263
2144.000000	0.297010
2145.000000	0.297909
2146.000000	0.299190
2147.000000	0.299596
2148.000000	0.299288
2149.000000	0.298798
2150.000000	0.297640
2151.000000	0.297048
2152.000000	0.296052
2153.000000	0.295360
2154.000000	0.294795
2155.000000	0.293841
2156.000000	0.294087
2157.000000	0.295440
2158.000000	0.296083
2159.000000	0.297648
2160.000000	0.298378
2161.000000	0.297900
2162.000000	0.298379
2163.000000	0.299465
2164.000000	0.299801
2165.000000	0.300421
2166.000000	0.300219
2167.000000	0.299002
2168.000000	0.297564
2169.000000	0.296572
2170.000000	0.295557
2171.000000	0.295380
2172.000000	0.296241
2173.000000	0.296549
2174.000000	0.296897
2175.000000	0.297582
2176.000000	0.298360
2177.000000	0.299267
2178.000000	0.301509
2179.000000	0.302138
2180.000000	0.301449
2181.000000	0.301469
2182.000000	0.300517
2183.000000	0.299335
2184.000000	0.298757
2185.000000	0.298084
2186.000000	0.297148
2187.000000	0.296302
2188.000000	0.296848
2189.000000	0.298326
2190.000000	0.298552
2191.000000	0.299854
2192.000000	0.299670
2193.000000	0.297515
2194.000000	0.296563
2195.000000	0.295284
2196.000000	0.294955
2197.000000	0.296739
2198.000000	0.296160
2199.000000	0.294095
2200.000000	0.293241
2201.000000	0.290804
2202.000000	0.289924
2203.000000	0.290829
2204.000000	0.292348
2205.000000	0.292783
2206.000000	0.293417
2207.000000	0.294395
2208.000000	0.294547
2209.000000	0.295520
2210.000000	0.297955
2211.000000	0.298504
2212.000000	0.299551
2213.000000	0.299059
2214.000000	0.296335
2215.000000	0.293912
2216.000000	0.289702
2217.000000	0.289109
2218.000000	0.290235
2219.000000	0.291466
2220.000000	0.295625
2221.000000	0.297331
2222.000000	0.297743
2223.000000	0.298028
2224.000000	0.297920
2225.000000	0.297764
2226.000000	0.295819
2227.000000	0.292091
2228.000000	0.290699
2229.000000	0.288282
2230.000000	0.285981
2231.000000	0.287322
2232.000000	0.287993
2233.000000	0.288682
2234.000000	0.291454
2235.000000	0.291668
2236.000000	0.291997
2237.000000	0.291284
2238.000000	0.291113
2239.000000	0.290702
2240.000000	0.291359
2241.000000	0.291930
2242.000000	0.292796
2243.000000	0.295533
2244.000000	0.295915
2245.000000	0.294354
2246.000000	0.294293
2247.000000	0.293050
2248.000000	0.293494
2249.000000	0.296034
2250.000000	0.298274
2251.000000	0.300046
2252.000000	0.300946
2253.000000	0.300979
2254.000000	0.300692
2255.000000	0.298018
2256.000000	0.296499
2257.000000	0.295765
2258.000000	0.294745
2259.000000	0.294424
2260.000000	0.294480
2261.000000	0.293830
2262.000000	0.292164
2263.000000	0.290401
2264.000000	0.288151
2265.000000	0.287304
2266.000000	0.285578
2267.000000	0.286175
2268.000000	0.290135
2269.000000	0.291602
2270.000000	0.294655
2271.000000	0.294047
2272.000000	0.289487
2273.000000	0.286978
2274.000000	0.281885
2275.000000	0.279599
2276.000000	0.279685
2277.000000	0.280200
2278.000000	0.281064
2279.000000	0.280545
2280.000000	0.277926
2281.000000	0.276892
2282.000000	0.276174
2283.000000	0.276269
2284.000000	0.276126
2285.000000	0.275314
2286.000000	0.273165
2287.000000	0.270345
2288.000000	0.270228
2289.000000	0.269516
2290.000000	0.269300
2291.000000	0.271222
2292.000000	0.271620
2293.000000	0.271246
2294.000000	0.271671
2295.000000	0.271976
2296.000000	0.272048
2297.000000	0.274144
2298.000000	0.273378
2299.000000	0.269004
2300.000000	0.267607
2301.000000	0.266168
2302.000000	0.264874
2303.000000	0.265972
2304.000000	0.265943
2305.000000	0.264424
2306.000000	0.263668
2307.000000	0.263443
2308.000000	0.263053
2309.000000	0.261757
2310.000000	0.261828
2311.000000	0.262491
2312.000000	0.263957
2313.000000	0.265727
2314.000000	0.264884
2315.000000	0.263661
2316.000000	0.262700
2317.000000	0.261879
2318.000000	0.263386
2319.000000	0.266437
2320.000000	0.267868
2321.000000	0.267917
2322.000000	0.267978
2323.000000	0.265137
2324.000000	0.264354
2325.000000	0.267476
2326.000000	0.269416
2327.000000	0.272162
2328.000000	0.274332
2329.000000	0.273312
2330.000000	0.271335
2331.000000	0.271431
2332.000000	0.270560
2333.000000	0.269387
2334.000000	0.271875
2335.000000	0.272466
2336.000000	0.271772
2337.000000	0.270834
2338.000000	0.268019
2339.000000	0.266985
2340.000000	0.266548
2341.000000	0.265651
2342.000000	0.267338
2343.000000	0.266486
2344.000000	0.261587
2345.000000	0.260753
2346.000000	0.261288
2347.000000	0.261121
2348.000000	0.262702
2349.000000	0.264893
2350.000000	0.261862
2351.000000	0.260552
2352.000000	0.259170
2353.000000	0.259932
2354.000000	0.264071
2355.000000	0.266126
2356.000000	0.269105
2357.000000	0.271227
2358.000000	0.270779
2359.000000	0.269325
2360.000000	0.269779
2361.000000	0.267365
2362.000000	0.263107
2363.000000	0.264953
2364.000000	0.262048
2365.000000	0.257639
2366.000000	0.257505
2367.000000	0.254862
2368.000000	0.258015
2369.000000	0.265837
2370.000000	0.268702
2371.000000	0.273309
2372.000000	0.271889
2373.000000	0.264596
2374.000000	0.263462
2375.000000	0.258501
2376.000000	0.254311
2377.000000	0.253777
2378.000000	0.251236
2379.000000	0.249107
2380.000000	0.245674
2381.000000	0.245275
2382.000000	0.246636
2383.000000	0.250599
2384.000000	0.255443
2385.000000	0.254875
2386.000000	0.254438
2387.000000	0.249845
2388.000000	0.245339
2389.000000	0.247291
2390.000000	0.245752
2391.000000	0.246520
2392.000000	0.250447
2393.000000	0.247780
2394.000000	0.244725
2395.000000	0.242386
2396.000000	0.238236
2397.000000	0.239176
2398.000000	0.242084
2399.000000	0.241896
2400.000000	0.246481
2401.000000	0.248772
2402.000000	0.246652
2403.000000	0.241824
2404.000000	0.229490
2405.000000	0.223039
2406.000000	0.222426
2407.000000	0.230521
2408.000000	0.244693
2409.000000	0.254601
2410.000000	0.258689
2411.000000	0.254529
2412.000000	0.249885
2413.000000	0.251766
2414.000000	0.258280
2415.000000	0.259626
2416.000000	0.261494
2417.000000	0.253968
2418.000000	0.238065
2419.000000	0.238697
2420.000000	0.238330
2421.000000	0.243212
2422.000000	0.257360
2423.000000	0.260008
2424.000000	0.272222
2425.000000	0.285264
2426.000000	0.282016
2427.000000	0.281499
2428.000000	0.275072
2429.000000	0.256591
2430.000000	0.243094
2431.000000	0.235876
2432.000000	0.226215
2433.000000	0.228088
2434.000000	0.237673
2435.000000	0.235300
2436.000000	0.230774
2437.000000	0.234514
2438.000000	0.236646
2439.000000	0.235115
2440.000000	0.240913
2441.000000	0.238194
2442.000000	0.228543
2443.000000	0.236196
2444.000000	0.248467
2445.000000	0.248761
2446.000000	0.248804
2447.000000	0.239906
2448.000000	0.231378
2449.000000	0.235247
2450.000000	0.228140
2451.000000	0.227094
2452.000000	0.224383
2453.000000	0.212337
2454.000000	0.216876
2455.000000	0.213547
2456.000000	0.202035
2457.000000	0.204691
2458.000000	0.208592
2459.000000	0.215496
2460.000000	0.218369
2461.000000	0.213191
2462.000000	0.203548
2463.000000	0.188506
2464.000000	0.178696
2465.000000	0.174922
2466.000000	0.185413
2467.000000	0.208099
2468.000000	0.231481
2469.000000	0.233166
2470.000000	0.210618
2471.000000	0.180675
2472.000000	0.147650
2473.000000	0.139007
2474.000000	0.140508
2475.000000	0.127766
2476.000000	0.147226
2477.000000	0.150842
2478.000000	0.146877
2479.000000	0.182864
2480.000000	0.180887
2481.000000	0.194204
2482.000000	0.235901
2483.000000	0.241086
2484.000000	0.254611
2485.000000	0.236972
2486.000000	0.209423
2487.000000	0.204944
2488.000000	0.196212
2489.000000	0.181708
2490.000000	0.124109
2491.000000	0.087716
2492.000000	0.077101
2493.000000	0.149731
2494.000000	0.188805
2495.000000	0.213180
2496.000000	0.227042
2497.000000	0.218595
2498.000000	0.210155
2499.000000	0.183623
2500.000000	0.191352
