# Wavelength	SM1200H-50_HEX-10_FV7-40_00002.asd.rts.txt
350.000000	0.274516
351.000000	0.255335
352.000000	0.251193
353.000000	0.250138
354.000000	0.248510
355.000000	0.256904
356.000000	0.264177
357.000000	0.265827
358.000000	0.255259
359.000000	0.256448
360.000000	0.265182
361.000000	0.268937
362.000000	0.256388
363.000000	0.252488
364.000000	0.265823
365.000000	0.262181
366.000000	0.260728
367.000000	0.264385
368.000000	0.263765
369.000000	0.261486
370.000000	0.259402
371.000000	0.259150
372.000000	0.260698
373.000000	0.261552
374.000000	0.261732
375.000000	0.266523
376.000000	0.268134
377.000000	0.266426
378.000000	0.269009
379.000000	0.267192
380.000000	0.264819
381.000000	0.269004
382.000000	0.270022
383.000000	0.269419
384.000000	0.269832
385.000000	0.272243
386.000000	0.274319
387.000000	0.275169
388.000000	0.274745
389.000000	0.275386
390.000000	0.276615
391.000000	0.276718
392.000000	0.276662
393.000000	0.276258
394.000000	0.275800
395.000000	0.278014
396.000000	0.279153
397.000000	0.278443
398.000000	0.279106
399.000000	0.279753
400.000000	0.280151
401.000000	0.280265
402.000000	0.280026
403.000000	0.280033
404.000000	0.280708
405.000000	0.280360
406.000000	0.280865
407.000000	0.282511
408.000000	0.282639
409.000000	0.282495
410.000000	0.282530
411.000000	0.282808
412.000000	0.283316
413.000000	0.283679
414.000000	0.283671
415.000000	0.284198
416.000000	0.284807
417.000000	0.285094
418.000000	0.284796
419.000000	0.284981
420.000000	0.285609
421.000000	0.285658
422.000000	0.286514
423.000000	0.287474
424.000000	0.287459
425.000000	0.287365
426.000000	0.287544
427.000000	0.288047
428.000000	0.288382
429.000000	0.288697
430.000000	0.288994
431.000000	0.289000
432.000000	0.289310
433.000000	0.289643
434.000000	0.289468
435.000000	0.289227
436.000000	0.289320
437.000000	0.289907
438.000000	0.290332
439.000000	0.290648
440.000000	0.290973
441.000000	0.291056
442.000000	0.291053
443.000000	0.291197
444.000000	0.292005
445.000000	0.291917
446.000000	0.291820
447.000000	0.292732
448.000000	0.292900
449.000000	0.292952
450.000000	0.293426
451.000000	0.293925
452.000000	0.294147
453.000000	0.294100
454.000000	0.294432
455.000000	0.294688
456.000000	0.294963
457.000000	0.295321
458.000000	0.295506
459.000000	0.295738
460.000000	0.296218
461.000000	0.296410
462.000000	0.296490
463.000000	0.296484
464.000000	0.296748
465.000000	0.297040
466.000000	0.297213
467.000000	0.297319
468.000000	0.297425
469.000000	0.297490
470.000000	0.297680
471.000000	0.298231
472.000000	0.298687
473.000000	0.298843
474.000000	0.299202
475.000000	0.299180
476.000000	0.299018
477.000000	0.299505
478.000000	0.299637
479.000000	0.299724
480.000000	0.300125
481.000000	0.300275
482.000000	0.300431
483.000000	0.300642
484.000000	0.300961
485.000000	0.301109
486.000000	0.301203
487.000000	0.301384
488.000000	0.301626
489.000000	0.301936
490.000000	0.302296
491.000000	0.302398
492.000000	0.302572
493.000000	0.303051
494.000000	0.303298
495.000000	0.303658
496.000000	0.304236
497.000000	0.304417
498.000000	0.304550
499.000000	0.304817
500.000000	0.304993
501.000000	0.305191
502.000000	0.305527
503.000000	0.305992
504.000000	0.306141
505.000000	0.306269
506.000000	0.306661
507.000000	0.306769
508.000000	0.306930
509.000000	0.307262
510.000000	0.307520
511.000000	0.307831
512.000000	0.308215
513.000000	0.308548
514.000000	0.308888
515.000000	0.309252
516.000000	0.309560
517.000000	0.309782
518.000000	0.310034
519.000000	0.310310
520.000000	0.310618
521.000000	0.310852
522.000000	0.311042
523.000000	0.311428
524.000000	0.311696
525.000000	0.311873
526.000000	0.312220
527.000000	0.312528
528.000000	0.312834
529.000000	0.313243
530.000000	0.313464
531.000000	0.313654
532.000000	0.313849
533.000000	0.314107
534.000000	0.314360
535.000000	0.314590
536.000000	0.314876
537.000000	0.315213
538.000000	0.315496
539.000000	0.315592
540.000000	0.315846
541.000000	0.316168
542.000000	0.316463
543.000000	0.316722
544.000000	0.316977
545.000000	0.317200
546.000000	0.317541
547.000000	0.317857
548.000000	0.318157
549.000000	0.318439
550.000000	0.318726
551.000000	0.319023
552.000000	0.319270
553.000000	0.319522
554.000000	0.319820
555.000000	0.320161
556.000000	0.320392
557.000000	0.320631
558.000000	0.321041
559.000000	0.321427
560.000000	0.321702
561.000000	0.321955
562.000000	0.322197
563.000000	0.322481
564.000000	0.322799
565.000000	0.323027
566.000000	0.323361
567.000000	0.323706
568.000000	0.323974
569.000000	0.324199
570.000000	0.324482
571.000000	0.324825
572.000000	0.325170
573.000000	0.325493
574.000000	0.325785
575.000000	0.326111
576.000000	0.326446
577.000000	0.326785
578.000000	0.327161
579.000000	0.327375
580.000000	0.327604
581.000000	0.327912
582.000000	0.328198
583.000000	0.328440
584.000000	0.328664
585.000000	0.328930
586.000000	0.329185
587.000000	0.329447
588.000000	0.329742
589.000000	0.330012
590.000000	0.330262
591.000000	0.330508
592.000000	0.330767
593.000000	0.331048
594.000000	0.331314
595.000000	0.331486
596.000000	0.331665
597.000000	0.331912
598.000000	0.332147
599.000000	0.332252
600.000000	0.332399
601.000000	0.332640
602.000000	0.332853
603.000000	0.332989
604.000000	0.333087
605.000000	0.333324
606.000000	0.333498
607.000000	0.333630
608.000000	0.333875
609.000000	0.334036
610.000000	0.334178
611.000000	0.334394
612.000000	0.334520
613.000000	0.334645
614.000000	0.334848
615.000000	0.334946
616.000000	0.334997
617.000000	0.335054
618.000000	0.335309
619.000000	0.335480
620.000000	0.335548
621.000000	0.335667
622.000000	0.335796
623.000000	0.335928
624.000000	0.336056
625.000000	0.336204
626.000000	0.336337
627.000000	0.336473
628.000000	0.336723
629.000000	0.336975
630.000000	0.337078
631.000000	0.337178
632.000000	0.337292
633.000000	0.337444
634.000000	0.337614
635.000000	0.337725
636.000000	0.337815
637.000000	0.337902
638.000000	0.338025
639.000000	0.338160
640.000000	0.338329
641.000000	0.338399
642.000000	0.338562
643.000000	0.338762
644.000000	0.338876
645.000000	0.338945
646.000000	0.339004
647.000000	0.339081
648.000000	0.339334
649.000000	0.339582
650.000000	0.339745
651.000000	0.339938
652.000000	0.340037
653.000000	0.340110
654.000000	0.340216
655.000000	0.340372
656.000000	0.340570
657.000000	0.340739
658.000000	0.340945
659.000000	0.341145
660.000000	0.341290
661.000000	0.341369
662.000000	0.341461
663.000000	0.341617
664.000000	0.341749
665.000000	0.341912
666.000000	0.342088
667.000000	0.342221
668.000000	0.342365
669.000000	0.342494
670.000000	0.342603
671.000000	0.342703
672.000000	0.342883
673.000000	0.343086
674.000000	0.343148
675.000000	0.343276
676.000000	0.343425
677.000000	0.343518
678.000000	0.343724
679.000000	0.343914
680.000000	0.344011
681.000000	0.344099
682.000000	0.344272
683.000000	0.344451
684.000000	0.344629
685.000000	0.344765
686.000000	0.344928
687.000000	0.345143
688.000000	0.345246
689.000000	0.345301
690.000000	0.345430
691.000000	0.345674
692.000000	0.345869
693.000000	0.346028
694.000000	0.346165
695.000000	0.346333
696.000000	0.346500
697.000000	0.346602
698.000000	0.346705
699.000000	0.346828
700.000000	0.346994
701.000000	0.347231
702.000000	0.347417
703.000000	0.347519
704.000000	0.347685
705.000000	0.347882
706.000000	0.348056
707.000000	0.348240
708.000000	0.348422
709.000000	0.348552
710.000000	0.348640
711.000000	0.348835
712.000000	0.349001
713.000000	0.349117
714.000000	0.349266
715.000000	0.349408
716.000000	0.349517
717.000000	0.349554
718.000000	0.349716
719.000000	0.349870
720.000000	0.349928
721.000000	0.350133
722.000000	0.350257
723.000000	0.350303
724.000000	0.350392
725.000000	0.350435
726.000000	0.350531
727.000000	0.350656
728.000000	0.350771
729.000000	0.350907
730.000000	0.351026
731.000000	0.351111
732.000000	0.351197
733.000000	0.351314
734.000000	0.351354
735.000000	0.351372
736.000000	0.351513
737.000000	0.351655
738.000000	0.351751
739.000000	0.351886
740.000000	0.351947
741.000000	0.352068
742.000000	0.352203
743.000000	0.352286
744.000000	0.352326
745.000000	0.352371
746.000000	0.352495
747.000000	0.352637
748.000000	0.352679
749.000000	0.352718
750.000000	0.352793
751.000000	0.352890
752.000000	0.352997
753.000000	0.353097
754.000000	0.353136
755.000000	0.353249
756.000000	0.353366
757.000000	0.353339
758.000000	0.353318
759.000000	0.353406
760.000000	0.353539
761.000000	0.353628
762.000000	0.353787
763.000000	0.353942
764.000000	0.354001
765.000000	0.354060
766.000000	0.354127
767.000000	0.354182
768.000000	0.354204
769.000000	0.354215
770.000000	0.354244
771.000000	0.354297
772.000000	0.354447
773.000000	0.354558
774.000000	0.354575
775.000000	0.354621
776.000000	0.354639
777.000000	0.354577
778.000000	0.354555
779.000000	0.354598
780.000000	0.354706
781.000000	0.354822
782.000000	0.354876
783.000000	0.354944
784.000000	0.354932
785.000000	0.354953
786.000000	0.354965
787.000000	0.354957
788.000000	0.355016
789.000000	0.355021
790.000000	0.354983
791.000000	0.355031
792.000000	0.355097
793.000000	0.355162
794.000000	0.355214
795.000000	0.355206
796.000000	0.355178
797.000000	0.355135
798.000000	0.355058
799.000000	0.354994
800.000000	0.355023
801.000000	0.355188
802.000000	0.355214
803.000000	0.355190
804.000000	0.355218
805.000000	0.355221
806.000000	0.355182
807.000000	0.355218
808.000000	0.355317
809.000000	0.355287
810.000000	0.355261
811.000000	0.355317
812.000000	0.355274
813.000000	0.355249
814.000000	0.355287
815.000000	0.355396
816.000000	0.355385
817.000000	0.355338
818.000000	0.355290
819.000000	0.355287
820.000000	0.355346
821.000000	0.355376
822.000000	0.355303
823.000000	0.355314
824.000000	0.355333
825.000000	0.355329
826.000000	0.355218
827.000000	0.355091
828.000000	0.355067
829.000000	0.355134
830.000000	0.355071
831.000000	0.354945
832.000000	0.354799
833.000000	0.354775
834.000000	0.354831
835.000000	0.354914
836.000000	0.354886
837.000000	0.354846
838.000000	0.354823
839.000000	0.354746
840.000000	0.354732
841.000000	0.354725
842.000000	0.354637
843.000000	0.354655
844.000000	0.354662
845.000000	0.354589
846.000000	0.354515
847.000000	0.354411
848.000000	0.354330
849.000000	0.354336
850.000000	0.354177
851.000000	0.354025
852.000000	0.353986
853.000000	0.353917
854.000000	0.353879
855.000000	0.353965
856.000000	0.354025
857.000000	0.353906
858.000000	0.353799
859.000000	0.353712
860.000000	0.353595
861.000000	0.353556
862.000000	0.353564
863.000000	0.353462
864.000000	0.353357
865.000000	0.353268
866.000000	0.353213
867.000000	0.353133
868.000000	0.353052
869.000000	0.352956
870.000000	0.352922
871.000000	0.352706
872.000000	0.352471
873.000000	0.352280
874.000000	0.352183
875.000000	0.352162
876.000000	0.352117
877.000000	0.351861
878.000000	0.351590
879.000000	0.351477
880.000000	0.351419
881.000000	0.351385
882.000000	0.351257
883.000000	0.351026
884.000000	0.350692
885.000000	0.350535
886.000000	0.350399
887.000000	0.350212
888.000000	0.350044
889.000000	0.349915
890.000000	0.349690
891.000000	0.349449
892.000000	0.349173
893.000000	0.348944
894.000000	0.348879
895.000000	0.348683
896.000000	0.348506
897.000000	0.348356
898.000000	0.348200
899.000000	0.347996
900.000000	0.347837
901.000000	0.347693
902.000000	0.347502
903.000000	0.347341
904.000000	0.347222
905.000000	0.347015
906.000000	0.346769
907.000000	0.346539
908.000000	0.346396
909.000000	0.346228
910.000000	0.346076
911.000000	0.345878
912.000000	0.345630
913.000000	0.345517
914.000000	0.345313
915.000000	0.345095
916.000000	0.344973
917.000000	0.344753
918.000000	0.344422
919.000000	0.344041
920.000000	0.343868
921.000000	0.343785
922.000000	0.343659
923.000000	0.343357
924.000000	0.343202
925.000000	0.343059
926.000000	0.342848
927.000000	0.342526
928.000000	0.342149
929.000000	0.341846
930.000000	0.341696
931.000000	0.341396
932.000000	0.341080
933.000000	0.340860
934.000000	0.340672
935.000000	0.340418
936.000000	0.340165
937.000000	0.339897
938.000000	0.339720
939.000000	0.339677
940.000000	0.339544
941.000000	0.339168
942.000000	0.338781
943.000000	0.338609
944.000000	0.338484
945.000000	0.338027
946.000000	0.337571
947.000000	0.337207
948.000000	0.336867
949.000000	0.336618
950.000000	0.336400
951.000000	0.336218
952.000000	0.336272
953.000000	0.336213
954.000000	0.336098
955.000000	0.335924
956.000000	0.335633
957.000000	0.335349
958.000000	0.335050
959.000000	0.334811
960.000000	0.334705
961.000000	0.334462
962.000000	0.334056
963.000000	0.333832
964.000000	0.333721
965.000000	0.333622
966.000000	0.333325
967.000000	0.332897
968.000000	0.332743
969.000000	0.332651
970.000000	0.332324
971.000000	0.332218
972.000000	0.332222
973.000000	0.332058
974.000000	0.331547
975.000000	0.331061
976.000000	0.330920
977.000000	0.331093
978.000000	0.330649
979.000000	0.330467
980.000000	0.330361
981.000000	0.330242
982.000000	0.330113
983.000000	0.329761
984.000000	0.329360
985.000000	0.329304
986.000000	0.329294
987.000000	0.329060
988.000000	0.328465
989.000000	0.328088
990.000000	0.327974
991.000000	0.327869
992.000000	0.327598
993.000000	0.327683
994.000000	0.327883
995.000000	0.327991
996.000000	0.327508
997.000000	0.327360
998.000000	0.327076
999.000000	0.326655
1000.000000	0.326732
1001.000000	0.327523
1002.000000	0.326866
1003.000000	0.326074
1004.000000	0.325951
1005.000000	0.326059
1006.000000	0.325641
1007.000000	0.325436
1008.000000	0.325734
1009.000000	0.324657
1010.000000	0.324397
1011.000000	0.325079
1012.000000	0.324979
1013.000000	0.324278
1014.000000	0.323309
1015.000000	0.322662
1016.000000	0.322775
1017.000000	0.323229
1018.000000	0.323873
1019.000000	0.324337
1020.000000	0.324859
1021.000000	0.324359
1022.000000	0.323253
1023.000000	0.323440
1024.000000	0.323573
1025.000000	0.323472
1026.000000	0.324598
1027.000000	0.325108
1028.000000	0.324507
1029.000000	0.324316
1030.000000	0.323814
1031.000000	0.323346
1032.000000	0.323584
1033.000000	0.323432
1034.000000	0.323634
1035.000000	0.324658
1036.000000	0.324842
1037.000000	0.324603
1038.000000	0.324416
1039.000000	0.324021
1040.000000	0.323738
1041.000000	0.323219
1042.000000	0.323245
1043.000000	0.323718
1044.000000	0.323247
1045.000000	0.323060
1046.000000	0.323506
1047.000000	0.323686
1048.000000	0.323498
1049.000000	0.323838
1050.000000	0.324755
1051.000000	0.325002
1052.000000	0.325077
1053.000000	0.325115
1054.000000	0.324811
1055.000000	0.324898
1056.000000	0.325294
1057.000000	0.325728
1058.000000	0.325618
1059.000000	0.325293
1060.000000	0.325406
1061.000000	0.325571
1062.000000	0.325719
1063.000000	0.326392
1064.000000	0.326816
1065.000000	0.326902
1066.000000	0.327082
1067.000000	0.327459
1068.000000	0.327561
1069.000000	0.327194
1070.000000	0.327293
1071.000000	0.327592
1072.000000	0.327911
1073.000000	0.328665
1074.000000	0.329070
1075.000000	0.329098
1076.000000	0.329713
1077.000000	0.329632
1078.000000	0.329365
1079.000000	0.329482
1080.000000	0.329622
1081.000000	0.329825
1082.000000	0.330555
1083.000000	0.330825
1084.000000	0.330946
1085.000000	0.331051
1086.000000	0.330878
1087.000000	0.330944
1088.000000	0.330998
1089.000000	0.331038
1090.000000	0.331308
1091.000000	0.331143
1092.000000	0.331172
1093.000000	0.331454
1094.000000	0.331503
1095.000000	0.331385
1096.000000	0.331722
1097.000000	0.332165
1098.000000	0.332515
1099.000000	0.333240
1100.000000	0.333557
1101.000000	0.333364
1102.000000	0.333481
1103.000000	0.333526
1104.000000	0.333828
1105.000000	0.334453
1106.000000	0.334846
1107.000000	0.335471
1108.000000	0.335600
1109.000000	0.335215
1110.000000	0.334936
1111.000000	0.335035
1112.000000	0.335132
1113.000000	0.335319
1114.000000	0.335976
1115.000000	0.336280
1116.000000	0.336397
1117.000000	0.336468
1118.000000	0.336424
1119.000000	0.336494
1120.000000	0.336454
1121.000000	0.336517
1122.000000	0.337026
1123.000000	0.337335
1124.000000	0.336991
1125.000000	0.337145
1126.000000	0.337616
1127.000000	0.337695
1128.000000	0.337709
1129.000000	0.337852
1130.000000	0.338028
1131.000000	0.337905
1132.000000	0.338024
1133.000000	0.338596
1134.000000	0.338844
1135.000000	0.338921
1136.000000	0.338886
1137.000000	0.338657
1138.000000	0.338597
1139.000000	0.338493
1140.000000	0.338602
1141.000000	0.338961
1142.000000	0.339191
1143.000000	0.339384
1144.000000	0.339617
1145.000000	0.339697
1146.000000	0.339601
1147.000000	0.339609
1148.000000	0.339428
1149.000000	0.339467
1150.000000	0.339658
1151.000000	0.339773
1152.000000	0.339932
1153.000000	0.339977
1154.000000	0.339848
1155.000000	0.339822
1156.000000	0.339788
1157.000000	0.339790
1158.000000	0.339758
1159.000000	0.339802
1160.000000	0.339984
1161.000000	0.339969
1162.000000	0.339798
1163.000000	0.340063
1164.000000	0.340115
1165.000000	0.339855
1166.000000	0.339960
1167.000000	0.340303
1168.000000	0.340275
1169.000000	0.340216
1170.000000	0.340182
1171.000000	0.339958
1172.000000	0.339939
1173.000000	0.340059
1174.000000	0.340091
1175.000000	0.340069
1176.000000	0.340043
1177.000000	0.340099
1178.000000	0.340137
1179.000000	0.340162
1180.000000	0.340119
1181.000000	0.340120
1182.000000	0.340174
1183.000000	0.340041
1184.000000	0.340014
1185.000000	0.339950
1186.000000	0.339784
1187.000000	0.339757
1188.000000	0.339845
1189.000000	0.339836
1190.000000	0.339894
1191.000000	0.339860
1192.000000	0.339830
1193.000000	0.339957
1194.000000	0.340089
1195.000000	0.340086
1196.000000	0.339931
1197.000000	0.339888
1198.000000	0.339792
1199.000000	0.339749
1200.000000	0.339760
1201.000000	0.339898
1202.000000	0.339974
1203.000000	0.340071
1204.000000	0.340312
1205.000000	0.340438
1206.000000	0.340363
1207.000000	0.340203
1208.000000	0.340115
1209.000000	0.339902
1210.000000	0.339894
1211.000000	0.340082
1212.000000	0.340124
1213.000000	0.340200
1214.000000	0.340305
1215.000000	0.340421
1216.000000	0.340434
1217.000000	0.340403
1218.000000	0.340344
1219.000000	0.340206
1220.000000	0.340068
1221.000000	0.340109
1222.000000	0.340108
1223.000000	0.340041
1224.000000	0.340080
1225.000000	0.340069
1226.000000	0.340102
1227.000000	0.340205
1228.000000	0.340338
1229.000000	0.340348
1230.000000	0.340262
1231.000000	0.340154
1232.000000	0.340067
1233.000000	0.340107
1234.000000	0.340216
1235.000000	0.340198
1236.000000	0.340015
1237.000000	0.340043
1238.000000	0.340098
1239.000000	0.340085
1240.000000	0.340171
1241.000000	0.340191
1242.000000	0.340077
1243.000000	0.339788
1244.000000	0.339754
1245.000000	0.339837
1246.000000	0.339753
1247.000000	0.339886
1248.000000	0.339901
1249.000000	0.339862
1250.000000	0.340034
1251.000000	0.340144
1252.000000	0.340147
1253.000000	0.340143
1254.000000	0.340077
1255.000000	0.339813
1256.000000	0.339793
1257.000000	0.339905
1258.000000	0.339984
1259.000000	0.340099
1260.000000	0.340189
1261.000000	0.340176
1262.000000	0.340203
1263.000000	0.340287
1264.000000	0.340316
1265.000000	0.340333
1266.000000	0.340299
1267.000000	0.340408
1268.000000	0.340423
1269.000000	0.340227
1270.000000	0.340220
1271.000000	0.340205
1272.000000	0.340016
1273.000000	0.339955
1274.000000	0.339960
1275.000000	0.339872
1276.000000	0.339675
1277.000000	0.339717
1278.000000	0.339790
1279.000000	0.339793
1280.000000	0.339743
1281.000000	0.339703
1282.000000	0.339732
1283.000000	0.339758
1284.000000	0.339782
1285.000000	0.339765
1286.000000	0.339659
1287.000000	0.339492
1288.000000	0.339527
1289.000000	0.339536
1290.000000	0.339477
1291.000000	0.339403
1292.000000	0.339289
1293.000000	0.339078
1294.000000	0.338913
1295.000000	0.338802
1296.000000	0.338698
1297.000000	0.338691
1298.000000	0.338787
1299.000000	0.338993
1300.000000	0.338955
1301.000000	0.338818
1302.000000	0.338753
1303.000000	0.338684
1304.000000	0.338661
1305.000000	0.338934
1306.000000	0.338979
1307.000000	0.338975
1308.000000	0.339066
1309.000000	0.339138
1310.000000	0.339171
1311.000000	0.339321
1312.000000	0.339235
1313.000000	0.339066
1314.000000	0.338922
1315.000000	0.338739
1316.000000	0.338669
1317.000000	0.338622
1318.000000	0.338607
1319.000000	0.338549
1320.000000	0.338483
1321.000000	0.338576
1322.000000	0.338537
1323.000000	0.338437
1324.000000	0.338483
1325.000000	0.338269
1326.000000	0.338065
1327.000000	0.338054
1328.000000	0.338105
1329.000000	0.338009
1330.000000	0.337898
1331.000000	0.337768
1332.000000	0.337598
1333.000000	0.337399
1334.000000	0.337217
1335.000000	0.337213
1336.000000	0.337257
1337.000000	0.337231
1338.000000	0.337267
1339.000000	0.337220
1340.000000	0.336995
1341.000000	0.336853
1342.000000	0.336659
1343.000000	0.336504
1344.000000	0.336532
1345.000000	0.336388
1346.000000	0.336375
1347.000000	0.336393
1348.000000	0.336200
1349.000000	0.335885
1350.000000	0.335687
1351.000000	0.335564
1352.000000	0.335403
1353.000000	0.335375
1354.000000	0.335402
1355.000000	0.335229
1356.000000	0.335185
1357.000000	0.335142
1358.000000	0.335105
1359.000000	0.335040
1360.000000	0.334921
1361.000000	0.334776
1362.000000	0.334689
1363.000000	0.334570
1364.000000	0.334441
1365.000000	0.334317
1366.000000	0.334146
1367.000000	0.333897
1368.000000	0.333706
1369.000000	0.333589
1370.000000	0.333387
1371.000000	0.333122
1372.000000	0.332754
1373.000000	0.332365
1374.000000	0.331905
1375.000000	0.331401
1376.000000	0.331046
1377.000000	0.330484
1378.000000	0.329737
1379.000000	0.328681
1380.000000	0.327287
1381.000000	0.325882
1382.000000	0.324256
1383.000000	0.322560
1384.000000	0.320872
1385.000000	0.319018
1386.000000	0.317278
1387.000000	0.315842
1388.000000	0.314714
1389.000000	0.313770
1390.000000	0.313090
1391.000000	0.312825
1392.000000	0.312760
1393.000000	0.312816
1394.000000	0.313347
1395.000000	0.313669
1396.000000	0.314083
1397.000000	0.314185
1398.000000	0.314117
1399.000000	0.314066
1400.000000	0.313787
1401.000000	0.313503
1402.000000	0.313361
1403.000000	0.312932
1404.000000	0.312300
1405.000000	0.311890
1406.000000	0.311366
1407.000000	0.310858
1408.000000	0.310567
1409.000000	0.310178
1410.000000	0.309816
1411.000000	0.309581
1412.000000	0.309368
1413.000000	0.309207
1414.000000	0.309124
1415.000000	0.309075
1416.000000	0.308918
1417.000000	0.308854
1418.000000	0.308725
1419.000000	0.308597
1420.000000	0.308576
1421.000000	0.308626
1422.000000	0.308718
1423.000000	0.308943
1424.000000	0.309097
1425.000000	0.309192
1426.000000	0.309305
1427.000000	0.309394
1428.000000	0.309391
1429.000000	0.309526
1430.000000	0.309730
1431.000000	0.309850
1432.000000	0.309940
1433.000000	0.310039
1434.000000	0.310136
1435.000000	0.310301
1436.000000	0.310417
1437.000000	0.310550
1438.000000	0.310579
1439.000000	0.310518
1440.000000	0.310533
1441.000000	0.310618
1442.000000	0.310678
1443.000000	0.310697
1444.000000	0.310658
1445.000000	0.310546
1446.000000	0.310460
1447.000000	0.310435
1448.000000	0.310353
1449.000000	0.310351
1450.000000	0.310351
1451.000000	0.310279
1452.000000	0.310239
1453.000000	0.310277
1454.000000	0.310264
1455.000000	0.310311
1456.000000	0.310427
1457.000000	0.310377
1458.000000	0.310333
1459.000000	0.310314
1460.000000	0.310231
1461.000000	0.310262
1462.000000	0.310348
1463.000000	0.310376
1464.000000	0.310524
1465.000000	0.310746
1466.000000	0.310896
1467.000000	0.311009
1468.000000	0.311129
1469.000000	0.311298
1470.000000	0.311339
1471.000000	0.311446
1472.000000	0.311573
1473.000000	0.311740
1474.000000	0.312030
1475.000000	0.312303
1476.000000	0.312580
1477.000000	0.312863
1478.000000	0.312975
1479.000000	0.313143
1480.000000	0.313331
1481.000000	0.313432
1482.000000	0.313490
1483.000000	0.313697
1484.000000	0.313882
1485.000000	0.314151
1486.000000	0.314580
1487.000000	0.314853
1488.000000	0.315054
1489.000000	0.315363
1490.000000	0.315595
1491.000000	0.315842
1492.000000	0.316126
1493.000000	0.316400
1494.000000	0.316510
1495.000000	0.316738
1496.000000	0.317045
1497.000000	0.317328
1498.000000	0.317691
1499.000000	0.318001
1500.000000	0.318146
1501.000000	0.318363
1502.000000	0.318476
1503.000000	0.318487
1504.000000	0.318655
1505.000000	0.318717
1506.000000	0.318667
1507.000000	0.318775
1508.000000	0.318991
1509.000000	0.319236
1510.000000	0.319424
1511.000000	0.319585
1512.000000	0.319691
1513.000000	0.319713
1514.000000	0.319927
1515.000000	0.320132
1516.000000	0.320161
1517.000000	0.320226
1518.000000	0.320293
1519.000000	0.320294
1520.000000	0.320439
1521.000000	0.320594
1522.000000	0.320745
1523.000000	0.320953
1524.000000	0.321109
1525.000000	0.321193
1526.000000	0.321196
1527.000000	0.321269
1528.000000	0.321421
1529.000000	0.321467
1530.000000	0.321422
1531.000000	0.321429
1532.000000	0.321400
1533.000000	0.321508
1534.000000	0.321810
1535.000000	0.322024
1536.000000	0.322168
1537.000000	0.322392
1538.000000	0.322469
1539.000000	0.322523
1540.000000	0.322701
1541.000000	0.322808
1542.000000	0.322894
1543.000000	0.323043
1544.000000	0.323034
1545.000000	0.322972
1546.000000	0.323053
1547.000000	0.323079
1548.000000	0.323140
1549.000000	0.323318
1550.000000	0.323295
1551.000000	0.323296
1552.000000	0.323557
1553.000000	0.323730
1554.000000	0.323805
1555.000000	0.323857
1556.000000	0.323793
1557.000000	0.323664
1558.000000	0.323670
1559.000000	0.323806
1560.000000	0.323807
1561.000000	0.323819
1562.000000	0.323803
1563.000000	0.323731
1564.000000	0.323704
1565.000000	0.323688
1566.000000	0.323638
1567.000000	0.323706
1568.000000	0.323787
1569.000000	0.323920
1570.000000	0.324004
1571.000000	0.324131
1572.000000	0.324140
1573.000000	0.324110
1574.000000	0.324077
1575.000000	0.323889
1576.000000	0.323922
1577.000000	0.324087
1578.000000	0.324123
1579.000000	0.324293
1580.000000	0.324356
1581.000000	0.324359
1582.000000	0.324323
1583.000000	0.324299
1584.000000	0.324207
1585.000000	0.324066
1586.000000	0.324012
1587.000000	0.323953
1588.000000	0.323919
1589.000000	0.323906
1590.000000	0.323965
1591.000000	0.324183
1592.000000	0.324270
1593.000000	0.324372
1594.000000	0.324398
1595.000000	0.324327
1596.000000	0.324348
1597.000000	0.324519
1598.000000	0.324510
1599.000000	0.324431
1600.000000	0.324360
1601.000000	0.324205
1602.000000	0.324184
1603.000000	0.324327
1604.000000	0.324367
1605.000000	0.324448
1606.000000	0.324491
1607.000000	0.324554
1608.000000	0.324591
1609.000000	0.324660
1610.000000	0.324649
1611.000000	0.324587
1612.000000	0.324562
1613.000000	0.324638
1614.000000	0.324663
1615.000000	0.324740
1616.000000	0.324802
1617.000000	0.324750
1618.000000	0.324783
1619.000000	0.324870
1620.000000	0.324946
1621.000000	0.325126
1622.000000	0.325234
1623.000000	0.325211
1624.000000	0.325268
1625.000000	0.325142
1626.000000	0.325138
1627.000000	0.325340
1628.000000	0.325389
1629.000000	0.325351
1630.000000	0.325409
1631.000000	0.325340
1632.000000	0.325338
1633.000000	0.325481
1634.000000	0.325556
1635.000000	0.325663
1636.000000	0.325703
1637.000000	0.325739
1638.000000	0.325700
1639.000000	0.325583
1640.000000	0.325529
1641.000000	0.325555
1642.000000	0.325577
1643.000000	0.325725
1644.000000	0.325744
1645.000000	0.325654
1646.000000	0.325587
1647.000000	0.325517
1648.000000	0.325416
1649.000000	0.325407
1650.000000	0.325415
1651.000000	0.325415
1652.000000	0.325475
1653.000000	0.325541
1654.000000	0.325664
1655.000000	0.325787
1656.000000	0.325809
1657.000000	0.325949
1658.000000	0.325927
1659.000000	0.325840
1660.000000	0.325883
1661.000000	0.325838
1662.000000	0.325877
1663.000000	0.326002
1664.000000	0.326008
1665.000000	0.325943
1666.000000	0.326054
1667.000000	0.326122
1668.000000	0.326147
1669.000000	0.326235
1670.000000	0.326189
1671.000000	0.326103
1672.000000	0.326139
1673.000000	0.326203
1674.000000	0.326061
1675.000000	0.326179
1676.000000	0.326251
1677.000000	0.326242
1678.000000	0.326317
1679.000000	0.326200
1680.000000	0.325981
1681.000000	0.325881
1682.000000	0.325821
1683.000000	0.325925
1684.000000	0.326097
1685.000000	0.326225
1686.000000	0.326285
1687.000000	0.326266
1688.000000	0.326141
1689.000000	0.326002
1690.000000	0.325972
1691.000000	0.326033
1692.000000	0.325979
1693.000000	0.325970
1694.000000	0.325844
1695.000000	0.325665
1696.000000	0.325482
1697.000000	0.325380
1698.000000	0.325372
1699.000000	0.325460
1700.000000	0.325796
1701.000000	0.326010
1702.000000	0.326009
1703.000000	0.325979
1704.000000	0.325876
1705.000000	0.325850
1706.000000	0.325893
1707.000000	0.325977
1708.000000	0.326111
1709.000000	0.326130
1710.000000	0.326272
1711.000000	0.326328
1712.000000	0.326313
1713.000000	0.326254
1714.000000	0.326098
1715.000000	0.326104
1716.000000	0.326221
1717.000000	0.326237
1718.000000	0.326354
1719.000000	0.326267
1720.000000	0.325980
1721.000000	0.325824
1722.000000	0.325621
1723.000000	0.325536
1724.000000	0.325556
1725.000000	0.325615
1726.000000	0.325695
1727.000000	0.325731
1728.000000	0.325774
1729.000000	0.325659
1730.000000	0.325511
1731.000000	0.325501
1732.000000	0.325505
1733.000000	0.325564
1734.000000	0.325601
1735.000000	0.325666
1736.000000	0.325722
1737.000000	0.325683
1738.000000	0.325647
1739.000000	0.325663
1740.000000	0.325583
1741.000000	0.325538
1742.000000	0.325615
1743.000000	0.325645
1744.000000	0.325561
1745.000000	0.325550
1746.000000	0.325609
1747.000000	0.325557
1748.000000	0.325505
1749.000000	0.325539
1750.000000	0.325442
1751.000000	0.325390
1752.000000	0.325417
1753.000000	0.325186
1754.000000	0.325103
1755.000000	0.325180
1756.000000	0.325097
1757.000000	0.324923
1758.000000	0.324859
1759.000000	0.324765
1760.000000	0.324643
1761.000000	0.324469
1762.000000	0.324456
1763.000000	0.324543
1764.000000	0.324546
1765.000000	0.324665
1766.000000	0.324705
1767.000000	0.324550
1768.000000	0.324324
1769.000000	0.324101
1770.000000	0.324043
1771.000000	0.323891
1772.000000	0.323817
1773.000000	0.323916
1774.000000	0.323906
1775.000000	0.323834
1776.000000	0.323858
1777.000000	0.323971
1778.000000	0.323908
1779.000000	0.323733
1780.000000	0.323675
1781.000000	0.323509
1782.000000	0.323532
1783.000000	0.323822
1784.000000	0.323802
1785.000000	0.323673
1786.000000	0.323583
1787.000000	0.323625
1788.000000	0.323706
1789.000000	0.323861
1790.000000	0.323819
1791.000000	0.323826
1792.000000	0.324030
1793.000000	0.324110
1794.000000	0.324277
1795.000000	0.324296
1796.000000	0.323989
1797.000000	0.323962
1798.000000	0.324045
1799.000000	0.324025
1800.000000	0.324194
1801.000000	0.324001
1802.000000	0.324324
1803.000000	0.323940
1804.000000	0.324091
1805.000000	0.324568
1806.000000	0.324666
1807.000000	0.324635
1808.000000	0.324626
1809.000000	0.324728
1810.000000	0.324403
1811.000000	0.323894
1812.000000	0.323084
1813.000000	0.322666
1814.000000	0.321886
1815.000000	0.321713
1816.000000	0.322300
1817.000000	0.322377
1818.000000	0.322549
1819.000000	0.322593
1820.000000	0.322825
1821.000000	0.322927
1822.000000	0.322991
1823.000000	0.323106
1824.000000	0.323024
1825.000000	0.322419
1826.000000	0.322349
1827.000000	0.322119
1828.000000	0.322438
1829.000000	0.322953
1830.000000	0.323280
1831.000000	0.323294
1832.000000	0.322950
1833.000000	0.322704
1834.000000	0.322125
1835.000000	0.322054
1836.000000	0.322284
1837.000000	0.322389
1838.000000	0.322638
1839.000000	0.322594
1840.000000	0.322137
1841.000000	0.321919
1842.000000	0.322014
1843.000000	0.322363
1844.000000	0.322444
1845.000000	0.322665
1846.000000	0.322614
1847.000000	0.321850
1848.000000	0.321810
1849.000000	0.321669
1850.000000	0.321381
1851.000000	0.321009
1852.000000	0.320551
1853.000000	0.319892
1854.000000	0.318478
1855.000000	0.318012
1856.000000	0.317880
1857.000000	0.317550
1858.000000	0.317684
1859.000000	0.317663
1860.000000	0.316961
1861.000000	0.316000
1862.000000	0.315628
1863.000000	0.315689
1864.000000	0.315462
1865.000000	0.315970
1866.000000	0.315530
1867.000000	0.314620
1868.000000	0.312903
1869.000000	0.310975
1870.000000	0.309432
1871.000000	0.308231
1872.000000	0.307235
1873.000000	0.306465
1874.000000	0.306330
1875.000000	0.305470
1876.000000	0.304241
1877.000000	0.303059
1878.000000	0.301022
1879.000000	0.298427
1880.000000	0.296210
1881.000000	0.294006
1882.000000	0.291674
1883.000000	0.289363
1884.000000	0.286694
1885.000000	0.283149
1886.000000	0.280059
1887.000000	0.276805
1888.000000	0.273743
1889.000000	0.271042
1890.000000	0.268017
1891.000000	0.265336
1892.000000	0.262482
1893.000000	0.259446
1894.000000	0.256455
1895.000000	0.253295
1896.000000	0.249948
1897.000000	0.246778
1898.000000	0.243755
1899.000000	0.241291
1900.000000	0.238817
1901.000000	0.237015
1902.000000	0.235380
1903.000000	0.233989
1904.000000	0.233555
1905.000000	0.232446
1906.000000	0.231497
1907.000000	0.230724
1908.000000	0.230031
1909.000000	0.228854
1910.000000	0.228877
1911.000000	0.229630
1912.000000	0.230809
1913.000000	0.232387
1914.000000	0.233461
1915.000000	0.234308
1916.000000	0.234425
1917.000000	0.234427
1918.000000	0.234039
1919.000000	0.234394
1920.000000	0.234416
1921.000000	0.235145
1922.000000	0.236227
1923.000000	0.236672
1924.000000	0.237112
1925.000000	0.237204
1926.000000	0.237414
1927.000000	0.237846
1928.000000	0.238107
1929.000000	0.238315
1930.000000	0.238718
1931.000000	0.239227
1932.000000	0.239504
1933.000000	0.239745
1934.000000	0.240287
1935.000000	0.240747
1936.000000	0.241466
1937.000000	0.242684
1938.000000	0.242970
1939.000000	0.243131
1940.000000	0.242977
1941.000000	0.242661
1942.000000	0.242217
1943.000000	0.242523
1944.000000	0.242941
1945.000000	0.243270
1946.000000	0.243151
1947.000000	0.243132
1948.000000	0.243273
1949.000000	0.243602
1950.000000	0.244281
1951.000000	0.244601
1952.000000	0.244872
1953.000000	0.244946
1954.000000	0.244907
1955.000000	0.245258
1956.000000	0.245632
1957.000000	0.245917
1958.000000	0.246244
1959.000000	0.245988
1960.000000	0.245889
1961.000000	0.245823
1962.000000	0.246066
1963.000000	0.246408
1964.000000	0.247426
1965.000000	0.248575
1966.000000	0.249690
1967.000000	0.250432
1968.000000	0.250860
1969.000000	0.251217
1970.000000	0.251307
1971.000000	0.251065
1972.000000	0.250755
1973.000000	0.250514
1974.000000	0.249908
1975.000000	0.250021
1976.000000	0.250690
1977.000000	0.251325
1978.000000	0.251841
1979.000000	0.252489
1980.000000	0.253027
1981.000000	0.253656
1982.000000	0.254527
1983.000000	0.255031
1984.000000	0.255480
1985.000000	0.255887
1986.000000	0.256159
1987.000000	0.256218
1988.000000	0.256635
1989.000000	0.257031
1990.000000	0.257120
1991.000000	0.257652
1992.000000	0.258532
1993.000000	0.258958
1994.000000	0.259513
1995.000000	0.260536
1996.000000	0.261126
1997.000000	0.261607
1998.000000	0.262313
1999.000000	0.262782
2000.000000	0.262825
2001.000000	0.262815
2002.000000	0.263660
2003.000000	0.264698
2004.000000	0.265197
2005.000000	0.265956
2006.000000	0.266431
2007.000000	0.266585
2008.000000	0.266880
2009.000000	0.267184
2010.000000	0.267663
2011.000000	0.268118
2012.000000	0.268556
2013.000000	0.269171
2014.000000	0.269488
2015.000000	0.269893
2016.000000	0.270108
2017.000000	0.270452
2018.000000	0.271486
2019.000000	0.272084
2020.000000	0.272429
2021.000000	0.273117
2022.000000	0.273954
2023.000000	0.274421
2024.000000	0.275158
2025.000000	0.275557
2026.000000	0.275492
2027.000000	0.275045
2028.000000	0.274831
2029.000000	0.274877
2030.000000	0.275030
2031.000000	0.275790
2032.000000	0.276715
2033.000000	0.277873
2034.000000	0.278732
2035.000000	0.279695
2036.000000	0.280153
2037.000000	0.280318
2038.000000	0.280652
2039.000000	0.280894
2040.000000	0.281174
2041.000000	0.281378
2042.000000	0.281530
2043.000000	0.281663
2044.000000	0.282200
2045.000000	0.283098
2046.000000	0.283834
2047.000000	0.284258
2048.000000	0.284192
2049.000000	0.284587
2050.000000	0.284734
2051.000000	0.284872
2052.000000	0.285160
2053.000000	0.285095
2054.000000	0.284767
2055.000000	0.284809
2056.000000	0.284728
2057.000000	0.285346
2058.000000	0.285837
2059.000000	0.285889
2060.000000	0.286071
2061.000000	0.285969
2062.000000	0.286141
2063.000000	0.286520
2064.000000	0.286915
2065.000000	0.288025
2066.000000	0.288264
2067.000000	0.288459
2068.000000	0.288633
2069.000000	0.287771
2070.000000	0.287231
2071.000000	0.287857
2072.000000	0.288365
2073.000000	0.288551
2074.000000	0.289321
2075.000000	0.289719
2076.000000	0.289479
2077.000000	0.289433
2078.000000	0.289594
2079.000000	0.289650
2080.000000	0.289332
2081.000000	0.289493
2082.000000	0.289884
2083.000000	0.290677
2084.000000	0.291416
2085.000000	0.291827
2086.000000	0.292227
2087.000000	0.292481
2088.000000	0.292342
2089.000000	0.292755
2090.000000	0.292652
2091.000000	0.292052
2092.000000	0.292007
2093.000000	0.291879
2094.000000	0.291957
2095.000000	0.292944
2096.000000	0.293258
2097.000000	0.293147
2098.000000	0.293035
2099.000000	0.292806
2100.000000	0.292741
2101.000000	0.293101
2102.000000	0.293726
2103.000000	0.294314
2104.000000	0.294519
2105.000000	0.294538
2106.000000	0.294023
2107.000000	0.294007
2108.000000	0.293782
2109.000000	0.293977
2110.000000	0.294436
2111.000000	0.295018
2112.000000	0.295779
2113.000000	0.296443
2114.000000	0.297223
2115.000000	0.297732
2116.000000	0.297384
2117.000000	0.297163
2118.000000	0.297186
2119.000000	0.296407
2120.000000	0.296213
2121.000000	0.296066
2122.000000	0.296423
2123.000000	0.297667
2124.000000	0.298012
2125.000000	0.298281
2126.000000	0.298571
2127.000000	0.298011
2128.000000	0.297957
2129.000000	0.298261
2130.000000	0.298913
2131.000000	0.298641
2132.000000	0.297939
2133.000000	0.297608
2134.000000	0.296465
2135.000000	0.296164
2136.000000	0.297302
2137.000000	0.297884
2138.000000	0.299210
2139.000000	0.299833
2140.000000	0.300079
2141.000000	0.300111
2142.000000	0.299630
2143.000000	0.299178
2144.000000	0.298697
2145.000000	0.298418
2146.000000	0.298168
2147.000000	0.298433
2148.000000	0.298784
2149.000000	0.298930
2150.000000	0.299194
2151.000000	0.300296
2152.000000	0.301275
2153.000000	0.302267
2154.000000	0.302421
2155.000000	0.302071
2156.000000	0.301553
2157.000000	0.300029
2158.000000	0.299234
2159.000000	0.298789
2160.000000	0.298524
2161.000000	0.298271
2162.000000	0.298578
2163.000000	0.299696
2164.000000	0.299916
2165.000000	0.300067
2166.000000	0.299986
2167.000000	0.299343
2168.000000	0.298862
2169.000000	0.298794
2170.000000	0.298568
2171.000000	0.298293
2172.000000	0.297931
2173.000000	0.297491
2174.000000	0.296669
2175.000000	0.296607
2176.000000	0.296780
2177.000000	0.297315
2178.000000	0.299117
2179.000000	0.299935
2180.000000	0.300235
2181.000000	0.300770
2182.000000	0.300810
2183.000000	0.300046
2184.000000	0.299217
2185.000000	0.299175
2186.000000	0.298681
2187.000000	0.298468
2188.000000	0.299213
2189.000000	0.299116
2190.000000	0.298898
2191.000000	0.300209
2192.000000	0.300433
2193.000000	0.300573
2194.000000	0.300291
2195.000000	0.299059
2196.000000	0.298371
2197.000000	0.297088
2198.000000	0.296942
2199.000000	0.298033
2200.000000	0.298824
2201.000000	0.300303
2202.000000	0.301888
2203.000000	0.303760
2204.000000	0.304473
2205.000000	0.306441
2206.000000	0.308111
2207.000000	0.306662
2208.000000	0.306068
2209.000000	0.305850
2210.000000	0.305084
2211.000000	0.306588
2212.000000	0.307947
2213.000000	0.306020
2214.000000	0.300606
2215.000000	0.298074
2216.000000	0.292824
2217.000000	0.292537
2218.000000	0.297826
2219.000000	0.298737
2220.000000	0.299579
2221.000000	0.300337
2222.000000	0.298891
2223.000000	0.298386
2224.000000	0.298197
2225.000000	0.300107
2226.000000	0.299176
2227.000000	0.297890
2228.000000	0.297784
2229.000000	0.295620
2230.000000	0.295903
2231.000000	0.296794
2232.000000	0.296928
2233.000000	0.297314
2234.000000	0.297806
2235.000000	0.299215
2236.000000	0.298895
2237.000000	0.298661
2238.000000	0.297843
2239.000000	0.293528
2240.000000	0.293286
2241.000000	0.296443
2242.000000	0.297146
2243.000000	0.299193
2244.000000	0.299347
2245.000000	0.296063
2246.000000	0.294936
2247.000000	0.294818
2248.000000	0.294077
2249.000000	0.293463
2250.000000	0.293121
2251.000000	0.292880
2252.000000	0.291994
2253.000000	0.291891
2254.000000	0.293663
2255.000000	0.293762
2256.000000	0.293890
2257.000000	0.296397
2258.000000	0.296603
2259.000000	0.297398
2260.000000	0.296239
2261.000000	0.294471
2262.000000	0.290347
2263.000000	0.289111
2264.000000	0.289084
2265.000000	0.288854
2266.000000	0.288665
2267.000000	0.289093
2268.000000	0.289925
2269.000000	0.290165
2270.000000	0.291751
2271.000000	0.291996
2272.000000	0.290134
2273.000000	0.289810
2274.000000	0.290317
2275.000000	0.289999
2276.000000	0.290319
2277.000000	0.289566
2278.000000	0.285979
2279.000000	0.284473
2280.000000	0.284388
2281.000000	0.283288
2282.000000	0.283468
2283.000000	0.284678
2284.000000	0.282738
2285.000000	0.280970
2286.000000	0.281237
2287.000000	0.279141
2288.000000	0.277703
2289.000000	0.277183
2290.000000	0.277183
2291.000000	0.275918
2292.000000	0.273136
2293.000000	0.271802
2294.000000	0.269547
2295.000000	0.265758
2296.000000	0.263214
2297.000000	0.259602
2298.000000	0.259105
2299.000000	0.260456
2300.000000	0.261824
2301.000000	0.266978
2302.000000	0.268586
2303.000000	0.268036
2304.000000	0.267591
2305.000000	0.266323
2306.000000	0.264807
2307.000000	0.262831
2308.000000	0.260699
2309.000000	0.257925
2310.000000	0.256785
2311.000000	0.256815
2312.000000	0.255885
2313.000000	0.256447
2314.000000	0.255485
2315.000000	0.254208
2316.000000	0.255743
2317.000000	0.255485
2318.000000	0.257324
2319.000000	0.262072
2320.000000	0.264869
2321.000000	0.268828
2322.000000	0.270676
2323.000000	0.268282
2324.000000	0.265017
2325.000000	0.263034
2326.000000	0.262411
2327.000000	0.263881
2328.000000	0.267885
2329.000000	0.268468
2330.000000	0.268825
2331.000000	0.268477
2332.000000	0.265692
2333.000000	0.266360
2334.000000	0.266066
2335.000000	0.266545
2336.000000	0.268231
2337.000000	0.269258
2338.000000	0.269497
2339.000000	0.271264
2340.000000	0.273062
2341.000000	0.274663
2342.000000	0.279613
2343.000000	0.279999
2344.000000	0.277030
2345.000000	0.275467
2346.000000	0.269837
2347.000000	0.267836
2348.000000	0.267789
2349.000000	0.271056
2350.000000	0.269996
2351.000000	0.268732
2352.000000	0.265764
2353.000000	0.260559
2354.000000	0.259607
2355.000000	0.263140
2356.000000	0.266381
2357.000000	0.268360
2358.000000	0.270285
2359.000000	0.266174
2360.000000	0.261974
2361.000000	0.259333
2362.000000	0.255278
2363.000000	0.255272
2364.000000	0.252247
2365.000000	0.251164
2366.000000	0.254442
2367.000000	0.255931
2368.000000	0.260554
2369.000000	0.265140
2370.000000	0.266178
2371.000000	0.263951
2372.000000	0.261881
2373.000000	0.259912
2374.000000	0.253004
2375.000000	0.248174
2376.000000	0.250191
2377.000000	0.251102
2378.000000	0.253317
2379.000000	0.261277
2380.000000	0.260089
2381.000000	0.258225
2382.000000	0.258386
2383.000000	0.252680
2384.000000	0.252208
2385.000000	0.251182
2386.000000	0.251198
2387.000000	0.251994
2388.000000	0.250714
2389.000000	0.253721
2390.000000	0.253688
2391.000000	0.253895
2392.000000	0.256918
2393.000000	0.255102
2394.000000	0.252774
2395.000000	0.254613
2396.000000	0.252937
2397.000000	0.249974
2398.000000	0.251370
2399.000000	0.248197
2400.000000	0.246893
2401.000000	0.244613
2402.000000	0.240210
2403.000000	0.241576
2404.000000	0.240108
2405.000000	0.240228
2406.000000	0.242542
2407.000000	0.248231
2408.000000	0.254101
2409.000000	0.254519
2410.000000	0.255419
2411.000000	0.244533
2412.000000	0.236382
2413.000000	0.239411
2414.000000	0.240751
2415.000000	0.248144
2416.000000	0.249517
2417.000000	0.246082
2418.000000	0.247460
2419.000000	0.249446
2420.000000	0.254825
2421.000000	0.260143
2422.000000	0.256981
2423.000000	0.243192
2424.000000	0.232673
2425.000000	0.223080
2426.000000	0.213452
2427.000000	0.217378
2428.000000	0.219170
2429.000000	0.214447
2430.000000	0.214006
2431.000000	0.211205
2432.000000	0.206626
2433.000000	0.217544
2434.000000	0.225696
2435.000000	0.221237
2436.000000	0.227852
2437.000000	0.228677
2438.000000	0.235304
2439.000000	0.246651
2440.000000	0.252637
2441.000000	0.262203
2442.000000	0.257554
2443.000000	0.264694
2444.000000	0.272231
2445.000000	0.265845
2446.000000	0.262014
2447.000000	0.257915
2448.000000	0.255549
2449.000000	0.254758
2450.000000	0.257682
2451.000000	0.248963
2452.000000	0.248749
2453.000000	0.256243
2454.000000	0.252727
2455.000000	0.260162
2456.000000	0.250382
2457.000000	0.227411
2458.000000	0.215365
2459.000000	0.194031
2460.000000	0.179040
2461.000000	0.173538
2462.000000	0.161967
2463.000000	0.176375
2464.000000	0.196199
2465.000000	0.199652
2466.000000	0.213173
2467.000000	0.211168
2468.000000	0.208821
2469.000000	0.214611
2470.000000	0.201519
2471.000000	0.194849
2472.000000	0.188349
2473.000000	0.170959
2474.000000	0.169810
2475.000000	0.194867
2476.000000	0.212837
2477.000000	0.228253
2478.000000	0.251438
2479.000000	0.235763
2480.000000	0.217804
2481.000000	0.213421
2482.000000	0.213842
2483.000000	0.229364
2484.000000	0.221594
2485.000000	0.239931
2486.000000	0.261616
2487.000000	0.266062
2488.000000	0.281539
2489.000000	0.220085
2490.000000	0.183186
2491.000000	0.155023
2492.000000	0.130855
2493.000000	0.126818
2494.000000	0.126106
2495.000000	0.131062
2496.000000	0.139882
2497.000000	0.171377
2498.000000	0.180605
2499.000000	0.162044
2500.000000	0.161200
