# Wavelength	SM1200H-50_FV7-50_00000.asd.rts.txt
350.000000	0.252289
351.000000	0.251027
352.000000	0.254455
353.000000	0.255097
354.000000	0.252929
355.000000	0.253580
356.000000	0.253472
357.000000	0.254840
358.000000	0.259930
359.000000	0.257728
360.000000	0.253179
361.000000	0.253422
362.000000	0.255552
363.000000	0.259388
364.000000	0.262923
365.000000	0.261320
366.000000	0.257797
367.000000	0.255335
368.000000	0.257821
369.000000	0.260600
370.000000	0.262538
371.000000	0.263572
372.000000	0.263404
373.000000	0.262725
374.000000	0.262650
375.000000	0.263256
376.000000	0.262891
377.000000	0.262349
378.000000	0.265336
379.000000	0.267363
380.000000	0.267645
381.000000	0.267662
382.000000	0.267874
383.000000	0.268022
384.000000	0.268094
385.000000	0.267791
386.000000	0.268645
387.000000	0.270249
388.000000	0.269506
389.000000	0.269748
390.000000	0.271142
391.000000	0.272366
392.000000	0.272259
393.000000	0.271928
394.000000	0.272271
395.000000	0.272335
396.000000	0.273159
397.000000	0.274521
398.000000	0.274533
399.000000	0.275008
400.000000	0.275789
401.000000	0.275838
402.000000	0.276245
403.000000	0.276679
404.000000	0.276895
405.000000	0.277142
406.000000	0.277594
407.000000	0.278191
408.000000	0.278285
409.000000	0.278598
410.000000	0.279104
411.000000	0.279324
412.000000	0.279785
413.000000	0.280293
414.000000	0.280566
415.000000	0.280612
416.000000	0.280695
417.000000	0.280978
418.000000	0.281449
419.000000	0.281656
420.000000	0.281692
421.000000	0.282113
422.000000	0.282483
423.000000	0.282764
424.000000	0.283113
425.000000	0.283374
426.000000	0.283572
427.000000	0.283756
428.000000	0.284070
429.000000	0.284515
430.000000	0.284978
431.000000	0.285132
432.000000	0.285390
433.000000	0.285628
434.000000	0.285637
435.000000	0.285820
436.000000	0.286061
437.000000	0.286189
438.000000	0.286436
439.000000	0.286706
440.000000	0.286970
441.000000	0.286925
442.000000	0.286960
443.000000	0.287146
444.000000	0.287539
445.000000	0.287713
446.000000	0.287905
447.000000	0.288242
448.000000	0.288339
449.000000	0.288509
450.000000	0.288947
451.000000	0.289315
452.000000	0.289550
453.000000	0.289662
454.000000	0.290016
455.000000	0.290419
456.000000	0.290786
457.000000	0.290876
458.000000	0.291220
459.000000	0.291531
460.000000	0.291599
461.000000	0.291770
462.000000	0.292067
463.000000	0.292287
464.000000	0.292468
465.000000	0.292659
466.000000	0.292826
467.000000	0.293034
468.000000	0.293157
469.000000	0.293197
470.000000	0.293391
471.000000	0.293699
472.000000	0.293988
473.000000	0.294217
474.000000	0.294460
475.000000	0.294641
476.000000	0.294881
477.000000	0.295104
478.000000	0.295167
479.000000	0.295342
480.000000	0.295635
481.000000	0.295777
482.000000	0.296001
483.000000	0.296272
484.000000	0.296543
485.000000	0.296686
486.000000	0.296867
487.000000	0.297090
488.000000	0.297285
489.000000	0.297515
490.000000	0.297909
491.000000	0.298180
492.000000	0.298433
493.000000	0.298690
494.000000	0.298861
495.000000	0.299117
496.000000	0.299477
497.000000	0.299680
498.000000	0.299829
499.000000	0.300075
500.000000	0.300433
501.000000	0.300725
502.000000	0.300989
503.000000	0.301254
504.000000	0.301547
505.000000	0.301837
506.000000	0.302084
507.000000	0.302192
508.000000	0.302394
509.000000	0.302732
510.000000	0.303022
511.000000	0.303291
512.000000	0.303579
513.000000	0.303874
514.000000	0.304171
515.000000	0.304480
516.000000	0.304747
517.000000	0.305058
518.000000	0.305409
519.000000	0.305686
520.000000	0.305918
521.000000	0.306185
522.000000	0.306504
523.000000	0.306790
524.000000	0.307011
525.000000	0.307209
526.000000	0.307528
527.000000	0.307834
528.000000	0.308072
529.000000	0.308289
530.000000	0.308567
531.000000	0.308898
532.000000	0.309163
533.000000	0.309417
534.000000	0.309638
535.000000	0.309833
536.000000	0.310090
537.000000	0.310375
538.000000	0.310649
539.000000	0.310852
540.000000	0.311050
541.000000	0.311266
542.000000	0.311549
543.000000	0.311853
544.000000	0.312174
545.000000	0.312427
546.000000	0.312645
547.000000	0.312925
548.000000	0.313275
549.000000	0.313524
550.000000	0.313792
551.000000	0.314097
552.000000	0.314374
553.000000	0.314690
554.000000	0.315021
555.000000	0.315349
556.000000	0.315694
557.000000	0.315979
558.000000	0.316324
559.000000	0.316680
560.000000	0.316967
561.000000	0.317265
562.000000	0.317565
563.000000	0.317833
564.000000	0.318159
565.000000	0.318499
566.000000	0.318799
567.000000	0.319078
568.000000	0.319344
569.000000	0.319659
570.000000	0.319982
571.000000	0.320291
572.000000	0.320604
573.000000	0.320905
574.000000	0.321167
575.000000	0.321430
576.000000	0.321692
577.000000	0.321928
578.000000	0.322204
579.000000	0.322562
580.000000	0.322897
581.000000	0.323166
582.000000	0.323445
583.000000	0.323682
584.000000	0.323910
585.000000	0.324211
586.000000	0.324473
587.000000	0.324686
588.000000	0.324881
589.000000	0.325144
590.000000	0.325429
591.000000	0.325697
592.000000	0.325934
593.000000	0.326167
594.000000	0.326411
595.000000	0.326687
596.000000	0.326839
597.000000	0.326978
598.000000	0.327198
599.000000	0.327390
600.000000	0.327617
601.000000	0.327838
602.000000	0.328021
603.000000	0.328175
604.000000	0.328338
605.000000	0.328554
606.000000	0.328769
607.000000	0.328984
608.000000	0.329223
609.000000	0.329399
610.000000	0.329544
611.000000	0.329707
612.000000	0.329826
613.000000	0.329926
614.000000	0.330072
615.000000	0.330229
616.000000	0.330361
617.000000	0.330455
618.000000	0.330641
619.000000	0.330770
620.000000	0.330845
621.000000	0.330988
622.000000	0.331123
623.000000	0.331223
624.000000	0.331285
625.000000	0.331352
626.000000	0.331491
627.000000	0.331702
628.000000	0.331884
629.000000	0.332109
630.000000	0.332248
631.000000	0.332389
632.000000	0.332542
633.000000	0.332729
634.000000	0.332935
635.000000	0.333104
636.000000	0.333262
637.000000	0.333414
638.000000	0.333612
639.000000	0.333750
640.000000	0.333864
641.000000	0.333919
642.000000	0.333935
643.000000	0.333962
644.000000	0.334052
645.000000	0.334135
646.000000	0.334212
647.000000	0.334270
648.000000	0.334346
649.000000	0.334463
650.000000	0.334596
651.000000	0.334728
652.000000	0.334828
653.000000	0.334941
654.000000	0.335051
655.000000	0.335206
656.000000	0.335413
657.000000	0.335599
658.000000	0.335777
659.000000	0.335959
660.000000	0.336124
661.000000	0.336248
662.000000	0.336343
663.000000	0.336446
664.000000	0.336497
665.000000	0.336607
666.000000	0.336753
667.000000	0.336863
668.000000	0.337014
669.000000	0.337169
670.000000	0.337314
671.000000	0.337475
672.000000	0.337650
673.000000	0.337816
674.000000	0.337947
675.000000	0.338032
676.000000	0.338147
677.000000	0.338387
678.000000	0.338630
679.000000	0.338857
680.000000	0.339064
681.000000	0.339212
682.000000	0.339384
683.000000	0.339520
684.000000	0.339674
685.000000	0.339775
686.000000	0.339868
687.000000	0.339975
688.000000	0.340092
689.000000	0.340207
690.000000	0.340349
691.000000	0.340523
692.000000	0.340626
693.000000	0.340720
694.000000	0.340863
695.000000	0.340988
696.000000	0.341107
697.000000	0.341260
698.000000	0.341389
699.000000	0.341515
700.000000	0.341656
701.000000	0.341734
702.000000	0.341842
703.000000	0.341991
704.000000	0.342138
705.000000	0.342342
706.000000	0.342542
707.000000	0.342737
708.000000	0.342945
709.000000	0.343123
710.000000	0.343261
711.000000	0.343399
712.000000	0.343528
713.000000	0.343657
714.000000	0.343752
715.000000	0.343850
716.000000	0.343955
717.000000	0.344024
718.000000	0.344124
719.000000	0.344225
720.000000	0.344317
721.000000	0.344467
722.000000	0.344585
723.000000	0.344706
724.000000	0.344824
725.000000	0.344914
726.000000	0.345053
727.000000	0.345168
728.000000	0.345267
729.000000	0.345355
730.000000	0.345392
731.000000	0.345499
732.000000	0.345599
733.000000	0.345703
734.000000	0.345804
735.000000	0.345890
736.000000	0.346040
737.000000	0.346084
738.000000	0.346109
739.000000	0.346237
740.000000	0.346336
741.000000	0.346399
742.000000	0.346476
743.000000	0.346559
744.000000	0.346677
745.000000	0.346765
746.000000	0.346860
747.000000	0.346916
748.000000	0.346979
749.000000	0.347062
750.000000	0.347132
751.000000	0.347199
752.000000	0.347252
753.000000	0.347297
754.000000	0.347328
755.000000	0.347396
756.000000	0.347491
757.000000	0.347544
758.000000	0.347633
759.000000	0.347751
760.000000	0.347807
761.000000	0.347869
762.000000	0.347877
763.000000	0.347836
764.000000	0.347881
765.000000	0.347930
766.000000	0.347984
767.000000	0.348040
768.000000	0.348044
769.000000	0.348051
770.000000	0.348095
771.000000	0.348160
772.000000	0.348270
773.000000	0.348333
774.000000	0.348368
775.000000	0.348380
776.000000	0.348429
777.000000	0.348518
778.000000	0.348567
779.000000	0.348579
780.000000	0.348594
781.000000	0.348661
782.000000	0.348757
783.000000	0.348881
784.000000	0.348850
785.000000	0.348853
786.000000	0.348855
787.000000	0.348862
788.000000	0.349027
789.000000	0.349155
790.000000	0.349164
791.000000	0.349094
792.000000	0.348990
793.000000	0.348949
794.000000	0.349020
795.000000	0.349071
796.000000	0.349114
797.000000	0.349135
798.000000	0.349112
799.000000	0.349158
800.000000	0.349239
801.000000	0.349290
802.000000	0.349344
803.000000	0.349299
804.000000	0.349196
805.000000	0.349212
806.000000	0.349194
807.000000	0.349200
808.000000	0.349196
809.000000	0.349139
810.000000	0.349087
811.000000	0.349082
812.000000	0.349133
813.000000	0.349169
814.000000	0.349154
815.000000	0.349114
816.000000	0.349116
817.000000	0.349138
818.000000	0.349058
819.000000	0.349025
820.000000	0.349011
821.000000	0.348947
822.000000	0.348883
823.000000	0.348927
824.000000	0.348947
825.000000	0.348890
826.000000	0.348866
827.000000	0.348841
828.000000	0.348841
829.000000	0.348879
830.000000	0.348808
831.000000	0.348701
832.000000	0.348570
833.000000	0.348498
834.000000	0.348452
835.000000	0.348428
836.000000	0.348413
837.000000	0.348429
838.000000	0.348492
839.000000	0.348562
840.000000	0.348559
841.000000	0.348534
842.000000	0.348510
843.000000	0.348539
844.000000	0.348493
845.000000	0.348333
846.000000	0.348208
847.000000	0.348123
848.000000	0.348021
849.000000	0.347887
850.000000	0.347771
851.000000	0.347654
852.000000	0.347563
853.000000	0.347456
854.000000	0.347353
855.000000	0.347352
856.000000	0.347344
857.000000	0.347307
858.000000	0.347309
859.000000	0.347284
860.000000	0.347215
861.000000	0.347155
862.000000	0.347146
863.000000	0.347109
864.000000	0.346917
865.000000	0.346690
866.000000	0.346525
867.000000	0.346319
868.000000	0.346267
869.000000	0.346271
870.000000	0.346244
871.000000	0.346120
872.000000	0.345946
873.000000	0.345713
874.000000	0.345520
875.000000	0.345417
876.000000	0.345348
877.000000	0.345134
878.000000	0.344853
879.000000	0.344611
880.000000	0.344342
881.000000	0.344244
882.000000	0.344130
883.000000	0.343923
884.000000	0.343554
885.000000	0.343322
886.000000	0.343115
887.000000	0.342935
888.000000	0.342994
889.000000	0.342986
890.000000	0.342805
891.000000	0.342670
892.000000	0.342395
893.000000	0.342156
894.000000	0.342112
895.000000	0.341886
896.000000	0.341697
897.000000	0.341533
898.000000	0.341313
899.000000	0.341009
900.000000	0.340757
901.000000	0.340579
902.000000	0.340489
903.000000	0.340319
904.000000	0.340130
905.000000	0.339933
906.000000	0.339877
907.000000	0.339758
908.000000	0.339557
909.000000	0.339271
910.000000	0.338970
911.000000	0.338700
912.000000	0.338474
913.000000	0.338127
914.000000	0.337853
915.000000	0.337705
916.000000	0.337437
917.000000	0.337226
918.000000	0.337121
919.000000	0.337082
920.000000	0.337008
921.000000	0.336850
922.000000	0.336599
923.000000	0.336260
924.000000	0.335968
925.000000	0.335734
926.000000	0.335528
927.000000	0.335144
928.000000	0.334739
929.000000	0.334395
930.000000	0.334152
931.000000	0.333923
932.000000	0.333642
933.000000	0.333378
934.000000	0.333225
935.000000	0.332966
936.000000	0.332690
937.000000	0.332405
938.000000	0.332136
939.000000	0.332022
940.000000	0.331882
941.000000	0.331551
942.000000	0.331183
943.000000	0.330881
944.000000	0.330543
945.000000	0.330189
946.000000	0.329797
947.000000	0.329534
948.000000	0.329440
949.000000	0.329094
950.000000	0.328839
951.000000	0.328687
952.000000	0.328454
953.000000	0.328414
954.000000	0.328398
955.000000	0.328186
956.000000	0.327954
957.000000	0.327799
958.000000	0.327584
959.000000	0.327265
960.000000	0.327101
961.000000	0.326922
962.000000	0.326617
963.000000	0.326253
964.000000	0.325939
965.000000	0.325681
966.000000	0.325374
967.000000	0.325278
968.000000	0.325023
969.000000	0.324556
970.000000	0.324173
971.000000	0.324136
972.000000	0.324007
973.000000	0.323641
974.000000	0.323528
975.000000	0.323361
976.000000	0.323199
977.000000	0.323094
978.000000	0.322887
979.000000	0.322796
980.000000	0.322603
981.000000	0.322451
982.000000	0.322293
983.000000	0.322025
984.000000	0.321761
985.000000	0.321662
986.000000	0.321568
987.000000	0.321442
988.000000	0.321174
989.000000	0.320892
990.000000	0.320716
991.000000	0.320532
992.000000	0.320243
993.000000	0.319954
994.000000	0.319655
995.000000	0.319518
996.000000	0.319397
997.000000	0.319268
998.000000	0.319174
999.000000	0.319159
1000.000000	0.318976
1001.000000	0.319274
1002.000000	0.319014
1003.000000	0.319022
1004.000000	0.318964
1005.000000	0.318962
1006.000000	0.318621
1007.000000	0.318247
1008.000000	0.317752
1009.000000	0.316962
1010.000000	0.316745
1011.000000	0.317132
1012.000000	0.317624
1013.000000	0.317682
1014.000000	0.317510
1015.000000	0.317071
1016.000000	0.316454
1017.000000	0.316435
1018.000000	0.317028
1019.000000	0.317213
1020.000000	0.317585
1021.000000	0.317290
1022.000000	0.316706
1023.000000	0.316474
1024.000000	0.315791
1025.000000	0.315788
1026.000000	0.316230
1027.000000	0.316112
1028.000000	0.316040
1029.000000	0.316448
1030.000000	0.316242
1031.000000	0.315717
1032.000000	0.315861
1033.000000	0.316043
1034.000000	0.316180
1035.000000	0.316696
1036.000000	0.316900
1037.000000	0.316903
1038.000000	0.316727
1039.000000	0.316362
1040.000000	0.316372
1041.000000	0.316301
1042.000000	0.316057
1043.000000	0.316014
1044.000000	0.316138
1045.000000	0.316250
1046.000000	0.316228
1047.000000	0.316552
1048.000000	0.317301
1049.000000	0.317402
1050.000000	0.317404
1051.000000	0.317381
1052.000000	0.316676
1053.000000	0.316560
1054.000000	0.317154
1055.000000	0.317388
1056.000000	0.317585
1057.000000	0.317984
1058.000000	0.318130
1059.000000	0.317916
1060.000000	0.318211
1061.000000	0.318409
1062.000000	0.318351
1063.000000	0.318608
1064.000000	0.318835
1065.000000	0.318991
1066.000000	0.319137
1067.000000	0.319368
1068.000000	0.319540
1069.000000	0.319465
1070.000000	0.319661
1071.000000	0.320206
1072.000000	0.320441
1073.000000	0.320604
1074.000000	0.320923
1075.000000	0.321012
1076.000000	0.321210
1077.000000	0.321458
1078.000000	0.321578
1079.000000	0.321713
1080.000000	0.321739
1081.000000	0.321900
1082.000000	0.322243
1083.000000	0.322518
1084.000000	0.322924
1085.000000	0.323195
1086.000000	0.323360
1087.000000	0.323533
1088.000000	0.323549
1089.000000	0.323600
1090.000000	0.323542
1091.000000	0.323580
1092.000000	0.323870
1093.000000	0.324255
1094.000000	0.324390
1095.000000	0.324430
1096.000000	0.324656
1097.000000	0.324783
1098.000000	0.324967
1099.000000	0.325328
1100.000000	0.325624
1101.000000	0.325695
1102.000000	0.325881
1103.000000	0.326224
1104.000000	0.326496
1105.000000	0.326656
1106.000000	0.326908
1107.000000	0.327175
1108.000000	0.327384
1109.000000	0.327608
1110.000000	0.327935
1111.000000	0.328154
1112.000000	0.328340
1113.000000	0.328510
1114.000000	0.328589
1115.000000	0.328827
1116.000000	0.329201
1117.000000	0.329383
1118.000000	0.329554
1119.000000	0.329664
1120.000000	0.329567
1121.000000	0.329604
1122.000000	0.329829
1123.000000	0.330169
1124.000000	0.330258
1125.000000	0.330520
1126.000000	0.330996
1127.000000	0.331184
1128.000000	0.331271
1129.000000	0.331368
1130.000000	0.331400
1131.000000	0.331205
1132.000000	0.331152
1133.000000	0.331219
1134.000000	0.331283
1135.000000	0.331309
1136.000000	0.331301
1137.000000	0.331307
1138.000000	0.331271
1139.000000	0.331208
1140.000000	0.331303
1141.000000	0.331373
1142.000000	0.331546
1143.000000	0.331878
1144.000000	0.332148
1145.000000	0.332258
1146.000000	0.332317
1147.000000	0.332296
1148.000000	0.331969
1149.000000	0.331941
1150.000000	0.332020
1151.000000	0.332076
1152.000000	0.332197
1153.000000	0.332234
1154.000000	0.332133
1155.000000	0.332127
1156.000000	0.332101
1157.000000	0.332167
1158.000000	0.332344
1159.000000	0.332384
1160.000000	0.332372
1161.000000	0.332381
1162.000000	0.332349
1163.000000	0.332480
1164.000000	0.332561
1165.000000	0.332647
1166.000000	0.332734
1167.000000	0.332755
1168.000000	0.332758
1169.000000	0.332762
1170.000000	0.332849
1171.000000	0.333006
1172.000000	0.333138
1173.000000	0.333335
1174.000000	0.333406
1175.000000	0.333326
1176.000000	0.333286
1177.000000	0.333274
1178.000000	0.333296
1179.000000	0.333360
1180.000000	0.333346
1181.000000	0.333393
1182.000000	0.333425
1183.000000	0.333539
1184.000000	0.333616
1185.000000	0.333655
1186.000000	0.333708
1187.000000	0.333710
1188.000000	0.333624
1189.000000	0.333590
1190.000000	0.333598
1191.000000	0.333636
1192.000000	0.333856
1193.000000	0.334000
1194.000000	0.334012
1195.000000	0.334039
1196.000000	0.333937
1197.000000	0.333879
1198.000000	0.333874
1199.000000	0.333853
1200.000000	0.333800
1201.000000	0.333724
1202.000000	0.333755
1203.000000	0.333862
1204.000000	0.333886
1205.000000	0.333971
1206.000000	0.333975
1207.000000	0.334002
1208.000000	0.333940
1209.000000	0.333874
1210.000000	0.333872
1211.000000	0.333838
1212.000000	0.333837
1213.000000	0.333986
1214.000000	0.334048
1215.000000	0.334043
1216.000000	0.334027
1217.000000	0.333963
1218.000000	0.333888
1219.000000	0.333841
1220.000000	0.333738
1221.000000	0.333588
1222.000000	0.333506
1223.000000	0.333406
1224.000000	0.333315
1225.000000	0.333273
1226.000000	0.333242
1227.000000	0.333200
1228.000000	0.333221
1229.000000	0.333176
1230.000000	0.333102
1231.000000	0.333014
1232.000000	0.332991
1233.000000	0.333060
1234.000000	0.333189
1235.000000	0.333233
1236.000000	0.333173
1237.000000	0.333222
1238.000000	0.333226
1239.000000	0.333209
1240.000000	0.333235
1241.000000	0.333259
1242.000000	0.333175
1243.000000	0.333141
1244.000000	0.333136
1245.000000	0.333247
1246.000000	0.333295
1247.000000	0.333391
1248.000000	0.333579
1249.000000	0.333589
1250.000000	0.333584
1251.000000	0.333610
1252.000000	0.333540
1253.000000	0.333358
1254.000000	0.333296
1255.000000	0.333225
1256.000000	0.333192
1257.000000	0.333283
1258.000000	0.333335
1259.000000	0.333280
1260.000000	0.333339
1261.000000	0.333375
1262.000000	0.333398
1263.000000	0.333465
1264.000000	0.333578
1265.000000	0.333604
1266.000000	0.333552
1267.000000	0.333494
1268.000000	0.333355
1269.000000	0.333171
1270.000000	0.333161
1271.000000	0.333108
1272.000000	0.333089
1273.000000	0.333203
1274.000000	0.333193
1275.000000	0.333145
1276.000000	0.333096
1277.000000	0.333109
1278.000000	0.332965
1279.000000	0.332926
1280.000000	0.332912
1281.000000	0.332855
1282.000000	0.332867
1283.000000	0.332921
1284.000000	0.332914
1285.000000	0.332930
1286.000000	0.332984
1287.000000	0.332897
1288.000000	0.332873
1289.000000	0.332821
1290.000000	0.332655
1291.000000	0.332572
1292.000000	0.332565
1293.000000	0.332569
1294.000000	0.332601
1295.000000	0.332637
1296.000000	0.332549
1297.000000	0.332489
1298.000000	0.332605
1299.000000	0.332700
1300.000000	0.332831
1301.000000	0.332949
1302.000000	0.332917
1303.000000	0.332865
1304.000000	0.332759
1305.000000	0.332617
1306.000000	0.332539
1307.000000	0.332524
1308.000000	0.332471
1309.000000	0.332440
1310.000000	0.332413
1311.000000	0.332386
1312.000000	0.332288
1313.000000	0.332264
1314.000000	0.332278
1315.000000	0.332223
1316.000000	0.332235
1317.000000	0.332253
1318.000000	0.332259
1319.000000	0.332204
1320.000000	0.332151
1321.000000	0.332169
1322.000000	0.332099
1323.000000	0.332039
1324.000000	0.332133
1325.000000	0.332158
1326.000000	0.332106
1327.000000	0.332052
1328.000000	0.332053
1329.000000	0.331915
1330.000000	0.331666
1331.000000	0.331535
1332.000000	0.331429
1333.000000	0.331314
1334.000000	0.331357
1335.000000	0.331343
1336.000000	0.331270
1337.000000	0.331209
1338.000000	0.331090
1339.000000	0.330977
1340.000000	0.330892
1341.000000	0.330789
1342.000000	0.330641
1343.000000	0.330460
1344.000000	0.330278
1345.000000	0.330164
1346.000000	0.330203
1347.000000	0.330096
1348.000000	0.330055
1349.000000	0.329936
1350.000000	0.329798
1351.000000	0.329797
1352.000000	0.329716
1353.000000	0.329617
1354.000000	0.329635
1355.000000	0.329544
1356.000000	0.329498
1357.000000	0.329461
1358.000000	0.329301
1359.000000	0.329171
1360.000000	0.329063
1361.000000	0.328998
1362.000000	0.328919
1363.000000	0.328820
1364.000000	0.328773
1365.000000	0.328756
1366.000000	0.328698
1367.000000	0.328647
1368.000000	0.328539
1369.000000	0.328517
1370.000000	0.328368
1371.000000	0.328116
1372.000000	0.327884
1373.000000	0.327625
1374.000000	0.327355
1375.000000	0.327093
1376.000000	0.326836
1377.000000	0.326445
1378.000000	0.325918
1379.000000	0.325253
1380.000000	0.324448
1381.000000	0.323446
1382.000000	0.322267
1383.000000	0.321018
1384.000000	0.319654
1385.000000	0.318270
1386.000000	0.317111
1387.000000	0.316115
1388.000000	0.315215
1389.000000	0.314586
1390.000000	0.314053
1391.000000	0.313679
1392.000000	0.313723
1393.000000	0.313848
1394.000000	0.314331
1395.000000	0.314705
1396.000000	0.315210
1397.000000	0.315502
1398.000000	0.315678
1399.000000	0.315854
1400.000000	0.315986
1401.000000	0.315973
1402.000000	0.315942
1403.000000	0.315814
1404.000000	0.315596
1405.000000	0.315303
1406.000000	0.315083
1407.000000	0.314953
1408.000000	0.314761
1409.000000	0.314623
1410.000000	0.314558
1411.000000	0.314449
1412.000000	0.314335
1413.000000	0.314342
1414.000000	0.314407
1415.000000	0.314438
1416.000000	0.314514
1417.000000	0.314667
1418.000000	0.314738
1419.000000	0.314910
1420.000000	0.315085
1421.000000	0.315310
1422.000000	0.315554
1423.000000	0.315809
1424.000000	0.315975
1425.000000	0.316111
1426.000000	0.316215
1427.000000	0.316380
1428.000000	0.316577
1429.000000	0.316771
1430.000000	0.317043
1431.000000	0.317228
1432.000000	0.317370
1433.000000	0.317508
1434.000000	0.317653
1435.000000	0.317866
1436.000000	0.318038
1437.000000	0.318196
1438.000000	0.318310
1439.000000	0.318383
1440.000000	0.318488
1441.000000	0.318660
1442.000000	0.318799
1443.000000	0.318865
1444.000000	0.318945
1445.000000	0.318969
1446.000000	0.318989
1447.000000	0.319038
1448.000000	0.319082
1449.000000	0.319170
1450.000000	0.319198
1451.000000	0.319227
1452.000000	0.319259
1453.000000	0.319247
1454.000000	0.319281
1455.000000	0.319324
1456.000000	0.319335
1457.000000	0.319372
1458.000000	0.319411
1459.000000	0.319379
1460.000000	0.319363
1461.000000	0.319398
1462.000000	0.319388
1463.000000	0.319362
1464.000000	0.319423
1465.000000	0.319528
1466.000000	0.319606
1467.000000	0.319712
1468.000000	0.319835
1469.000000	0.320004
1470.000000	0.320086
1471.000000	0.320198
1472.000000	0.320348
1473.000000	0.320492
1474.000000	0.320618
1475.000000	0.320795
1476.000000	0.320963
1477.000000	0.321189
1478.000000	0.321412
1479.000000	0.321533
1480.000000	0.321697
1481.000000	0.321850
1482.000000	0.322001
1483.000000	0.322172
1484.000000	0.322428
1485.000000	0.322581
1486.000000	0.322627
1487.000000	0.322738
1488.000000	0.322861
1489.000000	0.323000
1490.000000	0.323040
1491.000000	0.323123
1492.000000	0.323175
1493.000000	0.323262
1494.000000	0.323347
1495.000000	0.323407
1496.000000	0.323445
1497.000000	0.323505
1498.000000	0.323571
1499.000000	0.323624
1500.000000	0.323748
1501.000000	0.323853
1502.000000	0.323883
1503.000000	0.323998
1504.000000	0.324095
1505.000000	0.324141
1506.000000	0.324257
1507.000000	0.324345
1508.000000	0.324505
1509.000000	0.324722
1510.000000	0.324870
1511.000000	0.325030
1512.000000	0.325124
1513.000000	0.325190
1514.000000	0.325282
1515.000000	0.325283
1516.000000	0.325358
1517.000000	0.325400
1518.000000	0.325383
1519.000000	0.325384
1520.000000	0.325399
1521.000000	0.325404
1522.000000	0.325510
1523.000000	0.325657
1524.000000	0.325701
1525.000000	0.325776
1526.000000	0.325790
1527.000000	0.325792
1528.000000	0.325895
1529.000000	0.325866
1530.000000	0.325714
1531.000000	0.325739
1532.000000	0.325782
1533.000000	0.325756
1534.000000	0.325804
1535.000000	0.325883
1536.000000	0.325846
1537.000000	0.325892
1538.000000	0.326040
1539.000000	0.326028
1540.000000	0.325983
1541.000000	0.326067
1542.000000	0.326149
1543.000000	0.326229
1544.000000	0.326329
1545.000000	0.326428
1546.000000	0.326512
1547.000000	0.326601
1548.000000	0.326675
1549.000000	0.326664
1550.000000	0.326626
1551.000000	0.326607
1552.000000	0.326607
1553.000000	0.326641
1554.000000	0.326644
1555.000000	0.326634
1556.000000	0.326660
1557.000000	0.326650
1558.000000	0.326699
1559.000000	0.326763
1560.000000	0.326765
1561.000000	0.326789
1562.000000	0.326781
1563.000000	0.326741
1564.000000	0.326742
1565.000000	0.326792
1566.000000	0.326737
1567.000000	0.326722
1568.000000	0.326731
1569.000000	0.326801
1570.000000	0.326803
1571.000000	0.326804
1572.000000	0.326764
1573.000000	0.326621
1574.000000	0.326592
1575.000000	0.326641
1576.000000	0.326698
1577.000000	0.326813
1578.000000	0.326820
1579.000000	0.326842
1580.000000	0.326857
1581.000000	0.326899
1582.000000	0.326914
1583.000000	0.326925
1584.000000	0.326876
1585.000000	0.326851
1586.000000	0.326851
1587.000000	0.326856
1588.000000	0.326834
1589.000000	0.326803
1590.000000	0.326791
1591.000000	0.326792
1592.000000	0.326819
1593.000000	0.326912
1594.000000	0.326963
1595.000000	0.327048
1596.000000	0.327103
1597.000000	0.327189
1598.000000	0.327218
1599.000000	0.327226
1600.000000	0.327226
1601.000000	0.327282
1602.000000	0.327314
1603.000000	0.327365
1604.000000	0.327389
1605.000000	0.327439
1606.000000	0.327417
1607.000000	0.327416
1608.000000	0.327393
1609.000000	0.327359
1610.000000	0.327304
1611.000000	0.327260
1612.000000	0.327210
1613.000000	0.327239
1614.000000	0.327231
1615.000000	0.327282
1616.000000	0.327311
1617.000000	0.327244
1618.000000	0.327258
1619.000000	0.327274
1620.000000	0.327295
1621.000000	0.327403
1622.000000	0.327524
1623.000000	0.327615
1624.000000	0.327701
1625.000000	0.327689
1626.000000	0.327629
1627.000000	0.327511
1628.000000	0.327488
1629.000000	0.327468
1630.000000	0.327482
1631.000000	0.327488
1632.000000	0.327479
1633.000000	0.327482
1634.000000	0.327488
1635.000000	0.327544
1636.000000	0.327534
1637.000000	0.327494
1638.000000	0.327517
1639.000000	0.327634
1640.000000	0.327664
1641.000000	0.327785
1642.000000	0.327793
1643.000000	0.327695
1644.000000	0.327688
1645.000000	0.327715
1646.000000	0.327672
1647.000000	0.327668
1648.000000	0.327594
1649.000000	0.327558
1650.000000	0.327501
1651.000000	0.327449
1652.000000	0.327428
1653.000000	0.327343
1654.000000	0.327295
1655.000000	0.327221
1656.000000	0.327078
1657.000000	0.326977
1658.000000	0.326863
1659.000000	0.326839
1660.000000	0.326807
1661.000000	0.326669
1662.000000	0.326607
1663.000000	0.326527
1664.000000	0.326496
1665.000000	0.326535
1666.000000	0.326555
1667.000000	0.326509
1668.000000	0.326459
1669.000000	0.326333
1670.000000	0.326275
1671.000000	0.326390
1672.000000	0.326382
1673.000000	0.326301
1674.000000	0.326279
1675.000000	0.326299
1676.000000	0.326382
1677.000000	0.326428
1678.000000	0.326362
1679.000000	0.326276
1680.000000	0.326223
1681.000000	0.326233
1682.000000	0.326312
1683.000000	0.326442
1684.000000	0.326534
1685.000000	0.326611
1686.000000	0.326626
1687.000000	0.326633
1688.000000	0.326590
1689.000000	0.326576
1690.000000	0.326550
1691.000000	0.326514
1692.000000	0.326435
1693.000000	0.326331
1694.000000	0.326186
1695.000000	0.326103
1696.000000	0.325995
1697.000000	0.325844
1698.000000	0.325680
1699.000000	0.325620
1700.000000	0.325620
1701.000000	0.325680
1702.000000	0.325652
1703.000000	0.325626
1704.000000	0.325684
1705.000000	0.325728
1706.000000	0.325870
1707.000000	0.325931
1708.000000	0.325884
1709.000000	0.325829
1710.000000	0.325851
1711.000000	0.325864
1712.000000	0.325920
1713.000000	0.325917
1714.000000	0.325915
1715.000000	0.325898
1716.000000	0.325872
1717.000000	0.325825
1718.000000	0.325715
1719.000000	0.325617
1720.000000	0.325564
1721.000000	0.325495
1722.000000	0.325427
1723.000000	0.325363
1724.000000	0.325310
1725.000000	0.325288
1726.000000	0.325185
1727.000000	0.325143
1728.000000	0.325095
1729.000000	0.324981
1730.000000	0.324964
1731.000000	0.324987
1732.000000	0.325033
1733.000000	0.325108
1734.000000	0.325136
1735.000000	0.325130
1736.000000	0.325028
1737.000000	0.325005
1738.000000	0.325038
1739.000000	0.325015
1740.000000	0.324977
1741.000000	0.324922
1742.000000	0.324815
1743.000000	0.324862
1744.000000	0.325007
1745.000000	0.324912
1746.000000	0.324774
1747.000000	0.324533
1748.000000	0.324331
1749.000000	0.324243
1750.000000	0.324160
1751.000000	0.324253
1752.000000	0.324350
1753.000000	0.324333
1754.000000	0.324352
1755.000000	0.324289
1756.000000	0.324243
1757.000000	0.324255
1758.000000	0.324266
1759.000000	0.324239
1760.000000	0.324226
1761.000000	0.324180
1762.000000	0.324159
1763.000000	0.324183
1764.000000	0.324184
1765.000000	0.324158
1766.000000	0.324163
1767.000000	0.324109
1768.000000	0.324003
1769.000000	0.323980
1770.000000	0.323960
1771.000000	0.323823
1772.000000	0.323774
1773.000000	0.323730
1774.000000	0.323725
1775.000000	0.323849
1776.000000	0.323860
1777.000000	0.323804
1778.000000	0.323771
1779.000000	0.323703
1780.000000	0.323606
1781.000000	0.323434
1782.000000	0.323417
1783.000000	0.323461
1784.000000	0.323491
1785.000000	0.323593
1786.000000	0.323636
1787.000000	0.323672
1788.000000	0.323671
1789.000000	0.323592
1790.000000	0.323365
1791.000000	0.323195
1792.000000	0.323213
1793.000000	0.323182
1794.000000	0.323154
1795.000000	0.323179
1796.000000	0.323231
1797.000000	0.323220
1798.000000	0.323204
1799.000000	0.323162
1800.000000	0.323067
1801.000000	0.323512
1802.000000	0.323286
1803.000000	0.322634
1804.000000	0.322292
1805.000000	0.321552
1806.000000	0.321614
1807.000000	0.322287
1808.000000	0.322696
1809.000000	0.323557
1810.000000	0.324363
1811.000000	0.324478
1812.000000	0.323943
1813.000000	0.323859
1814.000000	0.323637
1815.000000	0.323457
1816.000000	0.323406
1817.000000	0.323272
1818.000000	0.323035
1819.000000	0.322887
1820.000000	0.323390
1821.000000	0.323440
1822.000000	0.323569
1823.000000	0.323922
1824.000000	0.323724
1825.000000	0.322831
1826.000000	0.322602
1827.000000	0.322428
1828.000000	0.322115
1829.000000	0.321786
1830.000000	0.321512
1831.000000	0.321221
1832.000000	0.320226
1833.000000	0.320379
1834.000000	0.321597
1835.000000	0.322011
1836.000000	0.322664
1837.000000	0.322901
1838.000000	0.322540
1839.000000	0.321911
1840.000000	0.321565
1841.000000	0.321102
1842.000000	0.320889
1843.000000	0.320608
1844.000000	0.320689
1845.000000	0.321128
1846.000000	0.321430
1847.000000	0.321869
1848.000000	0.321916
1849.000000	0.321796
1850.000000	0.321930
1851.000000	0.321932
1852.000000	0.321701
1853.000000	0.321803
1854.000000	0.321865
1855.000000	0.321754
1856.000000	0.321533
1857.000000	0.321563
1858.000000	0.321426
1859.000000	0.320967
1860.000000	0.320320
1861.000000	0.319820
1862.000000	0.319147
1863.000000	0.318106
1864.000000	0.317625
1865.000000	0.317498
1866.000000	0.317085
1867.000000	0.316665
1868.000000	0.316486
1869.000000	0.315789
1870.000000	0.315091
1871.000000	0.314784
1872.000000	0.313831
1873.000000	0.313083
1874.000000	0.312285
1875.000000	0.311521
1876.000000	0.310357
1877.000000	0.309567
1878.000000	0.308442
1879.000000	0.307449
1880.000000	0.306467
1881.000000	0.305171
1882.000000	0.303719
1883.000000	0.301866
1884.000000	0.300476
1885.000000	0.299108
1886.000000	0.297394
1887.000000	0.295713
1888.000000	0.294120
1889.000000	0.291755
1890.000000	0.289310
1891.000000	0.287069
1892.000000	0.284688
1893.000000	0.282527
1894.000000	0.280610
1895.000000	0.278508
1896.000000	0.276592
1897.000000	0.274725
1898.000000	0.272769
1899.000000	0.270654
1900.000000	0.268916
1901.000000	0.267633
1902.000000	0.266508
1903.000000	0.265874
1904.000000	0.265417
1905.000000	0.264992
1906.000000	0.264581
1907.000000	0.264202
1908.000000	0.263978
1909.000000	0.264165
1910.000000	0.264708
1911.000000	0.265631
1912.000000	0.266915
1913.000000	0.267883
1914.000000	0.268499
1915.000000	0.269488
1916.000000	0.270294
1917.000000	0.270947
1918.000000	0.271710
1919.000000	0.272832
1920.000000	0.273194
1921.000000	0.273363
1922.000000	0.273684
1923.000000	0.273955
1924.000000	0.274544
1925.000000	0.275091
1926.000000	0.275691
1927.000000	0.276525
1928.000000	0.277127
1929.000000	0.277587
1930.000000	0.278170
1931.000000	0.278779
1932.000000	0.279149
1933.000000	0.279703
1934.000000	0.280298
1935.000000	0.280782
1936.000000	0.281388
1937.000000	0.281742
1938.000000	0.282044
1939.000000	0.282367
1940.000000	0.282710
1941.000000	0.282971
1942.000000	0.283389
1943.000000	0.283646
1944.000000	0.283808
1945.000000	0.283838
1946.000000	0.283928
1947.000000	0.284297
1948.000000	0.284669
1949.000000	0.285045
1950.000000	0.285337
1951.000000	0.285530
1952.000000	0.285543
1953.000000	0.285646
1954.000000	0.286103
1955.000000	0.286408
1956.000000	0.286252
1957.000000	0.286255
1958.000000	0.286168
1959.000000	0.286324
1960.000000	0.286992
1961.000000	0.287171
1962.000000	0.287543
1963.000000	0.288070
1964.000000	0.288552
1965.000000	0.288721
1966.000000	0.289309
1967.000000	0.289344
1968.000000	0.289328
1969.000000	0.289435
1970.000000	0.289501
1971.000000	0.289790
1972.000000	0.290000
1973.000000	0.290071
1974.000000	0.290106
1975.000000	0.290315
1976.000000	0.290627
1977.000000	0.290857
1978.000000	0.291030
1979.000000	0.291461
1980.000000	0.291706
1981.000000	0.291876
1982.000000	0.292468
1983.000000	0.292846
1984.000000	0.293049
1985.000000	0.293172
1986.000000	0.293414
1987.000000	0.293461
1988.000000	0.294043
1989.000000	0.294645
1990.000000	0.295039
1991.000000	0.295573
1992.000000	0.295445
1993.000000	0.295461
1994.000000	0.295918
1995.000000	0.295953
1996.000000	0.296161
1997.000000	0.296434
1998.000000	0.296765
1999.000000	0.297152
2000.000000	0.297714
2001.000000	0.298186
2002.000000	0.298764
2003.000000	0.298941
2004.000000	0.298721
2005.000000	0.298552
2006.000000	0.298570
2007.000000	0.298694
2008.000000	0.298991
2009.000000	0.299856
2010.000000	0.300184
2011.000000	0.300091
2012.000000	0.300263
2013.000000	0.300408
2014.000000	0.300229
2015.000000	0.300413
2016.000000	0.300477
2017.000000	0.300201
2018.000000	0.300377
2019.000000	0.300678
2020.000000	0.300613
2021.000000	0.300693
2022.000000	0.300664
2023.000000	0.300900
2024.000000	0.301433
2025.000000	0.301759
2026.000000	0.302061
2027.000000	0.302327
2028.000000	0.302011
2029.000000	0.301923
2030.000000	0.302232
2031.000000	0.302342
2032.000000	0.302594
2033.000000	0.302958
2034.000000	0.303131
2035.000000	0.303155
2036.000000	0.303194
2037.000000	0.303473
2038.000000	0.303542
2039.000000	0.303476
2040.000000	0.303568
2041.000000	0.303698
2042.000000	0.304018
2043.000000	0.304431
2044.000000	0.304925
2045.000000	0.305296
2046.000000	0.305354
2047.000000	0.305633
2048.000000	0.305882
2049.000000	0.306303
2050.000000	0.306802
2051.000000	0.306795
2052.000000	0.306179
2053.000000	0.305912
2054.000000	0.305758
2055.000000	0.305603
2056.000000	0.305803
2057.000000	0.306182
2058.000000	0.306180
2059.000000	0.306155
2060.000000	0.306131
2061.000000	0.306018
2062.000000	0.306132
2063.000000	0.306404
2064.000000	0.306428
2065.000000	0.306858
2066.000000	0.306891
2067.000000	0.306786
2068.000000	0.307018
2069.000000	0.307139
2070.000000	0.307099
2071.000000	0.307093
2072.000000	0.306839
2073.000000	0.306372
2074.000000	0.305983
2075.000000	0.305929
2076.000000	0.305974
2077.000000	0.306229
2078.000000	0.307171
2079.000000	0.307457
2080.000000	0.307785
2081.000000	0.307725
2082.000000	0.307287
2083.000000	0.306436
2084.000000	0.306089
2085.000000	0.305481
2086.000000	0.305220
2087.000000	0.305646
2088.000000	0.305851
2089.000000	0.306520
2090.000000	0.306956
2091.000000	0.307484
2092.000000	0.307836
2093.000000	0.308288
2094.000000	0.308306
2095.000000	0.308085
2096.000000	0.308040
2097.000000	0.307820
2098.000000	0.307188
2099.000000	0.307087
2100.000000	0.306990
2101.000000	0.306681
2102.000000	0.306796
2103.000000	0.306869
2104.000000	0.306770
2105.000000	0.306810
2106.000000	0.306851
2107.000000	0.306971
2108.000000	0.307153
2109.000000	0.307414
2110.000000	0.307775
2111.000000	0.307888
2112.000000	0.307794
2113.000000	0.307539
2114.000000	0.307570
2115.000000	0.307401
2116.000000	0.307308
2117.000000	0.307437
2118.000000	0.307502
2119.000000	0.307793
2120.000000	0.308136
2121.000000	0.308907
2122.000000	0.309112
2123.000000	0.309126
2124.000000	0.309075
2125.000000	0.308683
2126.000000	0.308475
2127.000000	0.308065
2128.000000	0.308179
2129.000000	0.308352
2130.000000	0.308967
2131.000000	0.309862
2132.000000	0.310496
2133.000000	0.310787
2134.000000	0.310841
2135.000000	0.310208
2136.000000	0.309407
2137.000000	0.308894
2138.000000	0.308258
2139.000000	0.307703
2140.000000	0.307483
2141.000000	0.307050
2142.000000	0.306213
2143.000000	0.305684
2144.000000	0.305441
2145.000000	0.305455
2146.000000	0.305722
2147.000000	0.306472
2148.000000	0.307559
2149.000000	0.308193
2150.000000	0.308460
2151.000000	0.308385
2152.000000	0.307913
2153.000000	0.307570
2154.000000	0.307605
2155.000000	0.308217
2156.000000	0.308340
2157.000000	0.308646
2158.000000	0.308572
2159.000000	0.307740
2160.000000	0.307904
2161.000000	0.308736
2162.000000	0.308991
2163.000000	0.309497
2164.000000	0.309486
2165.000000	0.308501
2166.000000	0.307893
2167.000000	0.308061
2168.000000	0.308807
2169.000000	0.309522
2170.000000	0.310039
2171.000000	0.310096
2172.000000	0.309416
2173.000000	0.309167
2174.000000	0.308834
2175.000000	0.308549
2176.000000	0.308468
2177.000000	0.308269
2178.000000	0.307890
2179.000000	0.307820
2180.000000	0.307916
2181.000000	0.308018
2182.000000	0.307472
2183.000000	0.307456
2184.000000	0.307703
2185.000000	0.307374
2186.000000	0.306833
2187.000000	0.306725
2188.000000	0.306336
2189.000000	0.306231
2190.000000	0.307120
2191.000000	0.307996
2192.000000	0.308354
2193.000000	0.308522
2194.000000	0.308387
2195.000000	0.307851
2196.000000	0.307584
2197.000000	0.306654
2198.000000	0.306461
2199.000000	0.306775
2200.000000	0.306950
2201.000000	0.307610
2202.000000	0.308570
2203.000000	0.310156
2204.000000	0.310720
2205.000000	0.309320
2206.000000	0.308650
2207.000000	0.307029
2208.000000	0.304984
2209.000000	0.305120
2210.000000	0.304791
2211.000000	0.303230
2212.000000	0.303087
2213.000000	0.303427
2214.000000	0.304636
2215.000000	0.305271
2216.000000	0.306218
2217.000000	0.307165
2218.000000	0.307661
2219.000000	0.308564
2220.000000	0.311060
2221.000000	0.311454
2222.000000	0.310722
2223.000000	0.310146
2224.000000	0.308044
2225.000000	0.307093
2226.000000	0.307628
2227.000000	0.306443
2228.000000	0.305968
2229.000000	0.304901
2230.000000	0.304206
2231.000000	0.304819
2232.000000	0.305002
2233.000000	0.306119
2234.000000	0.305906
2235.000000	0.304078
2236.000000	0.304126
2237.000000	0.305152
2238.000000	0.305273
2239.000000	0.306136
2240.000000	0.306215
2241.000000	0.304921
2242.000000	0.303988
2243.000000	0.303124
2244.000000	0.302586
2245.000000	0.301746
2246.000000	0.301534
2247.000000	0.301756
2248.000000	0.302138
2249.000000	0.303069
2250.000000	0.304144
2251.000000	0.304028
2252.000000	0.303285
2253.000000	0.301772
2254.000000	0.300171
2255.000000	0.299692
2256.000000	0.299778
2257.000000	0.301489
2258.000000	0.302465
2259.000000	0.302913
2260.000000	0.303956
2261.000000	0.303933
2262.000000	0.303232
2263.000000	0.302744
2264.000000	0.301431
2265.000000	0.301489
2266.000000	0.302156
2267.000000	0.301603
2268.000000	0.301395
2269.000000	0.300691
2270.000000	0.298501
2271.000000	0.298084
2272.000000	0.298640
2273.000000	0.298898
2274.000000	0.300069
2275.000000	0.300409
2276.000000	0.300239
2277.000000	0.300220
2278.000000	0.299591
2279.000000	0.296619
2280.000000	0.294640
2281.000000	0.293892
2282.000000	0.293587
2283.000000	0.293196
2284.000000	0.291680
2285.000000	0.289731
2286.000000	0.288312
2287.000000	0.289008
2288.000000	0.289862
2289.000000	0.289976
2290.000000	0.288589
2291.000000	0.285743
2292.000000	0.284398
2293.000000	0.282440
2294.000000	0.281634
2295.000000	0.282542
2296.000000	0.282453
2297.000000	0.282103
2298.000000	0.282515
2299.000000	0.283281
2300.000000	0.283172
2301.000000	0.283270
2302.000000	0.282693
2303.000000	0.280902
2304.000000	0.279698
2305.000000	0.278739
2306.000000	0.277789
2307.000000	0.276832
2308.000000	0.275479
2309.000000	0.275561
2310.000000	0.275083
2311.000000	0.274321
2312.000000	0.274473
2313.000000	0.272974
2314.000000	0.271203
2315.000000	0.271090
2316.000000	0.271686
2317.000000	0.272027
2318.000000	0.274042
2319.000000	0.276586
2320.000000	0.276888
2321.000000	0.277617
2322.000000	0.277625
2323.000000	0.276707
2324.000000	0.277605
2325.000000	0.278930
2326.000000	0.281620
2327.000000	0.284649
2328.000000	0.287410
2329.000000	0.290889
2330.000000	0.292950
2331.000000	0.293702
2332.000000	0.292679
2333.000000	0.291109
2334.000000	0.290638
2335.000000	0.290141
2336.000000	0.289839
2337.000000	0.289477
2338.000000	0.288443
2339.000000	0.288207
2340.000000	0.288469
2341.000000	0.288406
2342.000000	0.289003
2343.000000	0.289235
2344.000000	0.289262
2345.000000	0.289676
2346.000000	0.290831
2347.000000	0.290550
2348.000000	0.289388
2349.000000	0.287885
2350.000000	0.288097
2351.000000	0.287222
2352.000000	0.286447
2353.000000	0.287776
2354.000000	0.286439
2355.000000	0.285568
2356.000000	0.287248
2357.000000	0.287427
2358.000000	0.287107
2359.000000	0.287305
2360.000000	0.287372
2361.000000	0.287560
2362.000000	0.287980
2363.000000	0.287475
2364.000000	0.285185
2365.000000	0.285049
2366.000000	0.286343
2367.000000	0.286712
2368.000000	0.287725
2369.000000	0.286731
2370.000000	0.283046
2371.000000	0.282276
2372.000000	0.284779
2373.000000	0.285939
2374.000000	0.286597
2375.000000	0.288091
2376.000000	0.287150
2377.000000	0.286828
2378.000000	0.287157
2379.000000	0.284004
2380.000000	0.281356
2381.000000	0.280590
2382.000000	0.279353
2383.000000	0.278854
2384.000000	0.279394
2385.000000	0.277583
2386.000000	0.276754
2387.000000	0.275376
2388.000000	0.273653
2389.000000	0.276130
2390.000000	0.274809
2391.000000	0.274468
2392.000000	0.274585
2393.000000	0.272133
2394.000000	0.274735
2395.000000	0.276536
2396.000000	0.278165
2397.000000	0.279626
2398.000000	0.275794
2399.000000	0.272671
2400.000000	0.271266
2401.000000	0.269534
2402.000000	0.269282
2403.000000	0.270728
2404.000000	0.273622
2405.000000	0.272762
2406.000000	0.270737
2407.000000	0.270593
2408.000000	0.267353
2409.000000	0.267790
2410.000000	0.269389
2411.000000	0.270548
2412.000000	0.276037
2413.000000	0.280637
2414.000000	0.286016
2415.000000	0.286665
2416.000000	0.285223
2417.000000	0.286059
2418.000000	0.285445
2419.000000	0.287256
2420.000000	0.284944
2421.000000	0.278666
2422.000000	0.273332
2423.000000	0.269522
2424.000000	0.271837
2425.000000	0.275802
2426.000000	0.274468
2427.000000	0.273459
2428.000000	0.269269
2429.000000	0.261759
2430.000000	0.261818
2431.000000	0.262348
2432.000000	0.262127
2433.000000	0.266256
2434.000000	0.271109
2435.000000	0.268960
2436.000000	0.265368
2437.000000	0.265333
2438.000000	0.260803
2439.000000	0.258416
2440.000000	0.263431
2441.000000	0.270909
2442.000000	0.282011
2443.000000	0.293430
2444.000000	0.293785
2445.000000	0.289618
2446.000000	0.274443
2447.000000	0.256537
2448.000000	0.260590
2449.000000	0.261060
2450.000000	0.265071
2451.000000	0.278615
2452.000000	0.275463
2453.000000	0.274102
2454.000000	0.272158
2455.000000	0.268110
2456.000000	0.271262
2457.000000	0.266069
2458.000000	0.263416
2459.000000	0.259781
2460.000000	0.252332
2461.000000	0.256876
2462.000000	0.259954
2463.000000	0.261788
2464.000000	0.261774
2465.000000	0.261154
2466.000000	0.266306
2467.000000	0.263283
2468.000000	0.258865
2469.000000	0.253642
2470.000000	0.247523
2471.000000	0.255774
2472.000000	0.269128
2473.000000	0.266977
2474.000000	0.257044
2475.000000	0.249220
2476.000000	0.230775
2477.000000	0.224608
2478.000000	0.238963
2479.000000	0.238670
2480.000000	0.237836
2481.000000	0.262268
2482.000000	0.271092
2483.000000	0.270087
2484.000000	0.285589
2485.000000	0.286468
2486.000000	0.273180
2487.000000	0.275551
2488.000000	0.288716
2489.000000	0.268148
2490.000000	0.251449
2491.000000	0.245301
2492.000000	0.221701
2493.000000	0.205528
2494.000000	0.197508
2495.000000	0.165303
2496.000000	0.165251
2497.000000	0.203020
2498.000000	0.218241
2499.000000	0.251377
2500.000000	0.271016
