# Wavelength	SM1200H-40_HEX-10_FV7-50_00001.asd.rts.txt
350.000000	0.266161
351.000000	0.285801
352.000000	0.266987
353.000000	0.243675
354.000000	0.237876
355.000000	0.239008
356.000000	0.240195
357.000000	0.242289
358.000000	0.248165
359.000000	0.243285
360.000000	0.238918
361.000000	0.247675
362.000000	0.249970
363.000000	0.251321
364.000000	0.255307
365.000000	0.258142
366.000000	0.258771
367.000000	0.256738
368.000000	0.252362
369.000000	0.254413
370.000000	0.260159
371.000000	0.263370
372.000000	0.262224
373.000000	0.258529
374.000000	0.255702
375.000000	0.258854
376.000000	0.262092
377.000000	0.262549
378.000000	0.259824
379.000000	0.262956
380.000000	0.268518
381.000000	0.270382
382.000000	0.267412
383.000000	0.264102
384.000000	0.263625
385.000000	0.262807
386.000000	0.263726
387.000000	0.266274
388.000000	0.267744
389.000000	0.267584
390.000000	0.267332
391.000000	0.268739
392.000000	0.269364
393.000000	0.269747
394.000000	0.270468
395.000000	0.271060
396.000000	0.270615
397.000000	0.269649
398.000000	0.270840
399.000000	0.272256
400.000000	0.273043
401.000000	0.272597
402.000000	0.271756
403.000000	0.271417
404.000000	0.272162
405.000000	0.272778
406.000000	0.273139
407.000000	0.273518
408.000000	0.274806
409.000000	0.274925
410.000000	0.274455
411.000000	0.275456
412.000000	0.276916
413.000000	0.277629
414.000000	0.276899
415.000000	0.276877
416.000000	0.277371
417.000000	0.277961
418.000000	0.278130
419.000000	0.278453
420.000000	0.279010
421.000000	0.279480
422.000000	0.279924
423.000000	0.280210
424.000000	0.280315
425.000000	0.280711
426.000000	0.281037
427.000000	0.281017
428.000000	0.280998
429.000000	0.281194
430.000000	0.281593
431.000000	0.281864
432.000000	0.282258
433.000000	0.282756
434.000000	0.283331
435.000000	0.283517
436.000000	0.283700
437.000000	0.284175
438.000000	0.284164
439.000000	0.284114
440.000000	0.284277
441.000000	0.283980
442.000000	0.283934
443.000000	0.284243
444.000000	0.284800
445.000000	0.285025
446.000000	0.285243
447.000000	0.285731
448.000000	0.286046
449.000000	0.286272
450.000000	0.286526
451.000000	0.286824
452.000000	0.286976
453.000000	0.286940
454.000000	0.287080
455.000000	0.287521
456.000000	0.288129
457.000000	0.288444
458.000000	0.288778
459.000000	0.288947
460.000000	0.288892
461.000000	0.289038
462.000000	0.289336
463.000000	0.289530
464.000000	0.289558
465.000000	0.289964
466.000000	0.290506
467.000000	0.290565
468.000000	0.290594
469.000000	0.290660
470.000000	0.290904
471.000000	0.291085
472.000000	0.291118
473.000000	0.291117
474.000000	0.291590
475.000000	0.291820
476.000000	0.291864
477.000000	0.292241
478.000000	0.292219
479.000000	0.292225
480.000000	0.292692
481.000000	0.293105
482.000000	0.293423
483.000000	0.293491
484.000000	0.293745
485.000000	0.293866
486.000000	0.293948
487.000000	0.294171
488.000000	0.294568
489.000000	0.294933
490.000000	0.294846
491.000000	0.295032
492.000000	0.295402
493.000000	0.295542
494.000000	0.295844
495.000000	0.296124
496.000000	0.296272
497.000000	0.296810
498.000000	0.297142
499.000000	0.297265
500.000000	0.297678
501.000000	0.297942
502.000000	0.298129
503.000000	0.298416
504.000000	0.298685
505.000000	0.298863
506.000000	0.298953
507.000000	0.299230
508.000000	0.299532
509.000000	0.299754
510.000000	0.300137
511.000000	0.300427
512.000000	0.300651
513.000000	0.300982
514.000000	0.301387
515.000000	0.301738
516.000000	0.301853
517.000000	0.302162
518.000000	0.302568
519.000000	0.302858
520.000000	0.303173
521.000000	0.303450
522.000000	0.303666
523.000000	0.303817
524.000000	0.304070
525.000000	0.304362
526.000000	0.304560
527.000000	0.304873
528.000000	0.305200
529.000000	0.305464
530.000000	0.305732
531.000000	0.306034
532.000000	0.306273
533.000000	0.306439
534.000000	0.306698
535.000000	0.307039
536.000000	0.307311
537.000000	0.307596
538.000000	0.307858
539.000000	0.308019
540.000000	0.308216
541.000000	0.308463
542.000000	0.308768
543.000000	0.309001
544.000000	0.309227
545.000000	0.309462
546.000000	0.309942
547.000000	0.310249
548.000000	0.310422
549.000000	0.310710
550.000000	0.310986
551.000000	0.311262
552.000000	0.311526
553.000000	0.311881
554.000000	0.312192
555.000000	0.312409
556.000000	0.312807
557.000000	0.313072
558.000000	0.313298
559.000000	0.313722
560.000000	0.314041
561.000000	0.314319
562.000000	0.314620
563.000000	0.314861
564.000000	0.315152
565.000000	0.315475
566.000000	0.315747
567.000000	0.316048
568.000000	0.316389
569.000000	0.316704
570.000000	0.316982
571.000000	0.317224
572.000000	0.317468
573.000000	0.317731
574.000000	0.318001
575.000000	0.318309
576.000000	0.318543
577.000000	0.318781
578.000000	0.319144
579.000000	0.319462
580.000000	0.319699
581.000000	0.319893
582.000000	0.320227
583.000000	0.320486
584.000000	0.320701
585.000000	0.321042
586.000000	0.321285
587.000000	0.321504
588.000000	0.321814
589.000000	0.322076
590.000000	0.322332
591.000000	0.322614
592.000000	0.322888
593.000000	0.323188
594.000000	0.323476
595.000000	0.323643
596.000000	0.323849
597.000000	0.324111
598.000000	0.324283
599.000000	0.324376
600.000000	0.324510
601.000000	0.324696
602.000000	0.324925
603.000000	0.325078
604.000000	0.325179
605.000000	0.325506
606.000000	0.325694
607.000000	0.325760
608.000000	0.325962
609.000000	0.326160
610.000000	0.326320
611.000000	0.326446
612.000000	0.326619
613.000000	0.326788
614.000000	0.326950
615.000000	0.327104
616.000000	0.327220
617.000000	0.327279
618.000000	0.327395
619.000000	0.327533
620.000000	0.327657
621.000000	0.327791
622.000000	0.327898
623.000000	0.328022
624.000000	0.328192
625.000000	0.328324
626.000000	0.328480
627.000000	0.328681
628.000000	0.328873
629.000000	0.329104
630.000000	0.329235
631.000000	0.329346
632.000000	0.329442
633.000000	0.329567
634.000000	0.329727
635.000000	0.329816
636.000000	0.329929
637.000000	0.330090
638.000000	0.330232
639.000000	0.330362
640.000000	0.330505
641.000000	0.330514
642.000000	0.330682
643.000000	0.330897
644.000000	0.330953
645.000000	0.331045
646.000000	0.331198
647.000000	0.331359
648.000000	0.331465
649.000000	0.331580
650.000000	0.331727
651.000000	0.331958
652.000000	0.332077
653.000000	0.332163
654.000000	0.332319
655.000000	0.332501
656.000000	0.332652
657.000000	0.332695
658.000000	0.332829
659.000000	0.333029
660.000000	0.333230
661.000000	0.333356
662.000000	0.333508
663.000000	0.333718
664.000000	0.333861
665.000000	0.333989
666.000000	0.334126
667.000000	0.334252
668.000000	0.334353
669.000000	0.334471
670.000000	0.334622
671.000000	0.334737
672.000000	0.334822
673.000000	0.334911
674.000000	0.335093
675.000000	0.335225
676.000000	0.335376
677.000000	0.335652
678.000000	0.335797
679.000000	0.335880
680.000000	0.335985
681.000000	0.336092
682.000000	0.336254
683.000000	0.336413
684.000000	0.336644
685.000000	0.336791
686.000000	0.336900
687.000000	0.337026
688.000000	0.337164
689.000000	0.337310
690.000000	0.337486
691.000000	0.337642
692.000000	0.337770
693.000000	0.337928
694.000000	0.338044
695.000000	0.338169
696.000000	0.338299
697.000000	0.338422
698.000000	0.338581
699.000000	0.338760
700.000000	0.338948
701.000000	0.339172
702.000000	0.339367
703.000000	0.339493
704.000000	0.339593
705.000000	0.339769
706.000000	0.339947
707.000000	0.340084
708.000000	0.340219
709.000000	0.340332
710.000000	0.340435
711.000000	0.340574
712.000000	0.340707
713.000000	0.340838
714.000000	0.340976
715.000000	0.341092
716.000000	0.341201
717.000000	0.341306
718.000000	0.341454
719.000000	0.341626
720.000000	0.341801
721.000000	0.341934
722.000000	0.341999
723.000000	0.342072
724.000000	0.342154
725.000000	0.342190
726.000000	0.342290
727.000000	0.342443
728.000000	0.342611
729.000000	0.342832
730.000000	0.343052
731.000000	0.343165
732.000000	0.343261
733.000000	0.343393
734.000000	0.343420
735.000000	0.343439
736.000000	0.343550
737.000000	0.343575
738.000000	0.343592
739.000000	0.343700
740.000000	0.343770
741.000000	0.343876
742.000000	0.343980
743.000000	0.344059
744.000000	0.344208
745.000000	0.344220
746.000000	0.344203
747.000000	0.344249
748.000000	0.344379
749.000000	0.344522
750.000000	0.344595
751.000000	0.344648
752.000000	0.344665
753.000000	0.344674
754.000000	0.344713
755.000000	0.344784
756.000000	0.344908
757.000000	0.345051
758.000000	0.345249
759.000000	0.345406
760.000000	0.345419
761.000000	0.345471
762.000000	0.345510
763.000000	0.345521
764.000000	0.345594
765.000000	0.345621
766.000000	0.345613
767.000000	0.345603
768.000000	0.345626
769.000000	0.345699
770.000000	0.345804
771.000000	0.345860
772.000000	0.345900
773.000000	0.345872
774.000000	0.345853
775.000000	0.345889
776.000000	0.345975
777.000000	0.346064
778.000000	0.346095
779.000000	0.346167
780.000000	0.346273
781.000000	0.346280
782.000000	0.346255
783.000000	0.346295
784.000000	0.346304
785.000000	0.346400
786.000000	0.346485
787.000000	0.346498
788.000000	0.346476
789.000000	0.346457
790.000000	0.346422
791.000000	0.346384
792.000000	0.346436
793.000000	0.346541
794.000000	0.346639
795.000000	0.346645
796.000000	0.346618
797.000000	0.346610
798.000000	0.346677
799.000000	0.346699
800.000000	0.346721
801.000000	0.346816
802.000000	0.346896
803.000000	0.346919
804.000000	0.346922
805.000000	0.346925
806.000000	0.346953
807.000000	0.347026
808.000000	0.346987
809.000000	0.346922
810.000000	0.346850
811.000000	0.346773
812.000000	0.346730
813.000000	0.346660
814.000000	0.346576
815.000000	0.346582
816.000000	0.346622
817.000000	0.346690
818.000000	0.346689
819.000000	0.346675
820.000000	0.346638
821.000000	0.346541
822.000000	0.346486
823.000000	0.346475
824.000000	0.346463
825.000000	0.346508
826.000000	0.346451
827.000000	0.346401
828.000000	0.346462
829.000000	0.346500
830.000000	0.346580
831.000000	0.346669
832.000000	0.346515
833.000000	0.346405
834.000000	0.346393
835.000000	0.346472
836.000000	0.346434
837.000000	0.346365
838.000000	0.346339
839.000000	0.346364
840.000000	0.346271
841.000000	0.346095
842.000000	0.345905
843.000000	0.345940
844.000000	0.345887
845.000000	0.345709
846.000000	0.345762
847.000000	0.345765
848.000000	0.345679
849.000000	0.345579
850.000000	0.345495
851.000000	0.345434
852.000000	0.345438
853.000000	0.345481
854.000000	0.345315
855.000000	0.345192
856.000000	0.345234
857.000000	0.345154
858.000000	0.345086
859.000000	0.345000
860.000000	0.344820
861.000000	0.344702
862.000000	0.344631
863.000000	0.344463
864.000000	0.344411
865.000000	0.344395
866.000000	0.344353
867.000000	0.344189
868.000000	0.344073
869.000000	0.343925
870.000000	0.343714
871.000000	0.343547
872.000000	0.343445
873.000000	0.343346
874.000000	0.343298
875.000000	0.343174
876.000000	0.343014
877.000000	0.342856
878.000000	0.342792
879.000000	0.342649
880.000000	0.342231
881.000000	0.341890
882.000000	0.341700
883.000000	0.341587
884.000000	0.341360
885.000000	0.341308
886.000000	0.341284
887.000000	0.341191
888.000000	0.340994
889.000000	0.340873
890.000000	0.340729
891.000000	0.340610
892.000000	0.340441
893.000000	0.340217
894.000000	0.340084
895.000000	0.339988
896.000000	0.339705
897.000000	0.339357
898.000000	0.339151
899.000000	0.338906
900.000000	0.338754
901.000000	0.338661
902.000000	0.338480
903.000000	0.338436
904.000000	0.338424
905.000000	0.338188
906.000000	0.337963
907.000000	0.337759
908.000000	0.337589
909.000000	0.337283
910.000000	0.337162
911.000000	0.337025
912.000000	0.336715
913.000000	0.336602
914.000000	0.336367
915.000000	0.336070
916.000000	0.335874
917.000000	0.335668
918.000000	0.335519
919.000000	0.335426
920.000000	0.335228
921.000000	0.335078
922.000000	0.334944
923.000000	0.334696
924.000000	0.334523
925.000000	0.334306
926.000000	0.334042
927.000000	0.333870
928.000000	0.333592
929.000000	0.333320
930.000000	0.333206
931.000000	0.333022
932.000000	0.332671
933.000000	0.332243
934.000000	0.331897
935.000000	0.331487
936.000000	0.331213
937.000000	0.331067
938.000000	0.330693
939.000000	0.330279
940.000000	0.329897
941.000000	0.329717
942.000000	0.329649
943.000000	0.329508
944.000000	0.329137
945.000000	0.328932
946.000000	0.328701
947.000000	0.328480
948.000000	0.328283
949.000000	0.328118
950.000000	0.327872
951.000000	0.327575
952.000000	0.327506
953.000000	0.327193
954.000000	0.326814
955.000000	0.326493
956.000000	0.326201
957.000000	0.325814
958.000000	0.325499
959.000000	0.325564
960.000000	0.325318
961.000000	0.325218
962.000000	0.325241
963.000000	0.324808
964.000000	0.324395
965.000000	0.324161
966.000000	0.323996
967.000000	0.323819
968.000000	0.323647
969.000000	0.323327
970.000000	0.322857
971.000000	0.322784
972.000000	0.322709
973.000000	0.322380
974.000000	0.322047
975.000000	0.321580
976.000000	0.321323
977.000000	0.321414
978.000000	0.321156
979.000000	0.321015
980.000000	0.320750
981.000000	0.320418
982.000000	0.320280
983.000000	0.320116
984.000000	0.319903
985.000000	0.319700
986.000000	0.319657
987.000000	0.319617
988.000000	0.319372
989.000000	0.319183
990.000000	0.319050
991.000000	0.318873
992.000000	0.318616
993.000000	0.318465
994.000000	0.318318
995.000000	0.318243
996.000000	0.318046
997.000000	0.318155
998.000000	0.318370
999.000000	0.318474
1000.000000	0.318093
1001.000000	0.318497
1002.000000	0.318528
1003.000000	0.317912
1004.000000	0.317685
1005.000000	0.317437
1006.000000	0.317044
1007.000000	0.316608
1008.000000	0.316530
1009.000000	0.316474
1010.000000	0.316197
1011.000000	0.315914
1012.000000	0.315955
1013.000000	0.315851
1014.000000	0.315426
1015.000000	0.315544
1016.000000	0.316172
1017.000000	0.316308
1018.000000	0.316579
1019.000000	0.316641
1020.000000	0.316166
1021.000000	0.315725
1022.000000	0.315902
1023.000000	0.315874
1024.000000	0.315404
1025.000000	0.315224
1026.000000	0.315224
1027.000000	0.314205
1028.000000	0.314109
1029.000000	0.314642
1030.000000	0.315037
1031.000000	0.315740
1032.000000	0.315539
1033.000000	0.315386
1034.000000	0.315403
1035.000000	0.315164
1036.000000	0.315269
1037.000000	0.315854
1038.000000	0.316018
1039.000000	0.316231
1040.000000	0.316688
1041.000000	0.316076
1042.000000	0.315565
1043.000000	0.315576
1044.000000	0.315176
1045.000000	0.315005
1046.000000	0.315372
1047.000000	0.315685
1048.000000	0.315831
1049.000000	0.315960
1050.000000	0.316435
1051.000000	0.316650
1052.000000	0.316410
1053.000000	0.316450
1054.000000	0.316851
1055.000000	0.317099
1056.000000	0.317160
1057.000000	0.317799
1058.000000	0.317920
1059.000000	0.317808
1060.000000	0.318100
1061.000000	0.317847
1062.000000	0.317157
1063.000000	0.317281
1064.000000	0.317559
1065.000000	0.317880
1066.000000	0.318172
1067.000000	0.319074
1068.000000	0.319398
1069.000000	0.319040
1070.000000	0.319183
1071.000000	0.319738
1072.000000	0.319881
1073.000000	0.319995
1074.000000	0.320215
1075.000000	0.319542
1076.000000	0.319300
1077.000000	0.319780
1078.000000	0.319787
1079.000000	0.320070
1080.000000	0.321000
1081.000000	0.321235
1082.000000	0.321101
1083.000000	0.321211
1084.000000	0.321206
1085.000000	0.321390
1086.000000	0.321830
1087.000000	0.322063
1088.000000	0.321999
1089.000000	0.322206
1090.000000	0.322577
1091.000000	0.322587
1092.000000	0.322966
1093.000000	0.323633
1094.000000	0.323774
1095.000000	0.323572
1096.000000	0.323567
1097.000000	0.323266
1098.000000	0.323436
1099.000000	0.323815
1100.000000	0.324190
1101.000000	0.324895
1102.000000	0.325189
1103.000000	0.325090
1104.000000	0.325380
1105.000000	0.325816
1106.000000	0.326048
1107.000000	0.326430
1108.000000	0.326599
1109.000000	0.326392
1110.000000	0.326301
1111.000000	0.326421
1112.000000	0.326652
1113.000000	0.326980
1114.000000	0.327638
1115.000000	0.327847
1116.000000	0.327897
1117.000000	0.328037
1118.000000	0.328031
1119.000000	0.327975
1120.000000	0.328041
1121.000000	0.327957
1122.000000	0.327579
1123.000000	0.327692
1124.000000	0.327664
1125.000000	0.327895
1126.000000	0.328613
1127.000000	0.328929
1128.000000	0.329131
1129.000000	0.329297
1130.000000	0.329540
1131.000000	0.329686
1132.000000	0.329697
1133.000000	0.329759
1134.000000	0.329913
1135.000000	0.329868
1136.000000	0.329877
1137.000000	0.330096
1138.000000	0.330150
1139.000000	0.329991
1140.000000	0.330147
1141.000000	0.330526
1142.000000	0.330738
1143.000000	0.330952
1144.000000	0.331175
1145.000000	0.331027
1146.000000	0.330956
1147.000000	0.331011
1148.000000	0.331079
1149.000000	0.331036
1150.000000	0.331011
1151.000000	0.331082
1152.000000	0.330962
1153.000000	0.331088
1154.000000	0.331511
1155.000000	0.331635
1156.000000	0.331645
1157.000000	0.331726
1158.000000	0.331678
1159.000000	0.331678
1160.000000	0.331765
1161.000000	0.331787
1162.000000	0.331872
1163.000000	0.331942
1164.000000	0.331878
1165.000000	0.331745
1166.000000	0.331754
1167.000000	0.331722
1168.000000	0.331664
1169.000000	0.331731
1170.000000	0.331740
1171.000000	0.331639
1172.000000	0.331701
1173.000000	0.331854
1174.000000	0.331944
1175.000000	0.332098
1176.000000	0.332107
1177.000000	0.332075
1178.000000	0.332056
1179.000000	0.331915
1180.000000	0.331811
1181.000000	0.331687
1182.000000	0.331903
1183.000000	0.332059
1184.000000	0.332107
1185.000000	0.332163
1186.000000	0.332190
1187.000000	0.332213
1188.000000	0.332207
1189.000000	0.332227
1190.000000	0.332379
1191.000000	0.332316
1192.000000	0.332212
1193.000000	0.332303
1194.000000	0.332234
1195.000000	0.332228
1196.000000	0.332353
1197.000000	0.332352
1198.000000	0.332234
1199.000000	0.332184
1200.000000	0.332180
1201.000000	0.332074
1202.000000	0.331969
1203.000000	0.332085
1204.000000	0.332060
1205.000000	0.331951
1206.000000	0.331868
1207.000000	0.331804
1208.000000	0.331772
1209.000000	0.331927
1210.000000	0.331894
1211.000000	0.331723
1212.000000	0.331700
1213.000000	0.331660
1214.000000	0.331712
1215.000000	0.331988
1216.000000	0.332079
1217.000000	0.332002
1218.000000	0.332003
1219.000000	0.331958
1220.000000	0.332112
1221.000000	0.332223
1222.000000	0.332246
1223.000000	0.332278
1224.000000	0.332136
1225.000000	0.331943
1226.000000	0.331912
1227.000000	0.331944
1228.000000	0.331926
1229.000000	0.331878
1230.000000	0.331853
1231.000000	0.331760
1232.000000	0.331690
1233.000000	0.331733
1234.000000	0.331824
1235.000000	0.331858
1236.000000	0.331756
1237.000000	0.331786
1238.000000	0.331914
1239.000000	0.331834
1240.000000	0.331574
1241.000000	0.331598
1242.000000	0.331580
1243.000000	0.331370
1244.000000	0.331531
1245.000000	0.331811
1246.000000	0.331718
1247.000000	0.331766
1248.000000	0.331800
1249.000000	0.331639
1250.000000	0.331638
1251.000000	0.331718
1252.000000	0.331775
1253.000000	0.331969
1254.000000	0.331927
1255.000000	0.331698
1256.000000	0.331644
1257.000000	0.331577
1258.000000	0.331572
1259.000000	0.331672
1260.000000	0.331725
1261.000000	0.331627
1262.000000	0.331554
1263.000000	0.331456
1264.000000	0.331515
1265.000000	0.331668
1266.000000	0.331613
1267.000000	0.331479
1268.000000	0.331426
1269.000000	0.331320
1270.000000	0.331297
1271.000000	0.331387
1272.000000	0.331429
1273.000000	0.331380
1274.000000	0.331391
1275.000000	0.331353
1276.000000	0.331355
1277.000000	0.331384
1278.000000	0.331269
1279.000000	0.331203
1280.000000	0.331115
1281.000000	0.331007
1282.000000	0.330921
1283.000000	0.330935
1284.000000	0.330950
1285.000000	0.330978
1286.000000	0.331005
1287.000000	0.331091
1288.000000	0.331153
1289.000000	0.331017
1290.000000	0.330786
1291.000000	0.330615
1292.000000	0.330689
1293.000000	0.330731
1294.000000	0.330727
1295.000000	0.330816
1296.000000	0.330674
1297.000000	0.330566
1298.000000	0.330772
1299.000000	0.330869
1300.000000	0.330818
1301.000000	0.330741
1302.000000	0.330645
1303.000000	0.330548
1304.000000	0.330423
1305.000000	0.330438
1306.000000	0.330400
1307.000000	0.330378
1308.000000	0.330330
1309.000000	0.330217
1310.000000	0.330177
1311.000000	0.330183
1312.000000	0.330070
1313.000000	0.330075
1314.000000	0.330153
1315.000000	0.329967
1316.000000	0.329922
1317.000000	0.329914
1318.000000	0.329803
1319.000000	0.329849
1320.000000	0.329761
1321.000000	0.329594
1322.000000	0.329601
1323.000000	0.329533
1324.000000	0.329402
1325.000000	0.329351
1326.000000	0.329355
1327.000000	0.329224
1328.000000	0.329166
1329.000000	0.329109
1330.000000	0.329040
1331.000000	0.328916
1332.000000	0.328925
1333.000000	0.328857
1334.000000	0.328689
1335.000000	0.328636
1336.000000	0.328633
1337.000000	0.328590
1338.000000	0.328540
1339.000000	0.328414
1340.000000	0.328265
1341.000000	0.328153
1342.000000	0.327944
1343.000000	0.327845
1344.000000	0.327878
1345.000000	0.327839
1346.000000	0.327926
1347.000000	0.328000
1348.000000	0.327911
1349.000000	0.327723
1350.000000	0.327548
1351.000000	0.327217
1352.000000	0.327052
1353.000000	0.327155
1354.000000	0.327188
1355.000000	0.327188
1356.000000	0.327245
1357.000000	0.327064
1358.000000	0.326911
1359.000000	0.326907
1360.000000	0.326809
1361.000000	0.326632
1362.000000	0.326581
1363.000000	0.326574
1364.000000	0.326566
1365.000000	0.326657
1366.000000	0.326623
1367.000000	0.326530
1368.000000	0.326342
1369.000000	0.326228
1370.000000	0.326017
1371.000000	0.325694
1372.000000	0.325384
1373.000000	0.325156
1374.000000	0.324913
1375.000000	0.324664
1376.000000	0.324416
1377.000000	0.323805
1378.000000	0.322988
1379.000000	0.322135
1380.000000	0.321066
1381.000000	0.319889
1382.000000	0.318801
1383.000000	0.317613
1384.000000	0.316284
1385.000000	0.315065
1386.000000	0.313919
1387.000000	0.312799
1388.000000	0.311941
1389.000000	0.311407
1390.000000	0.310968
1391.000000	0.310593
1392.000000	0.310475
1393.000000	0.310396
1394.000000	0.310320
1395.000000	0.310503
1396.000000	0.311118
1397.000000	0.311209
1398.000000	0.311183
1399.000000	0.311148
1400.000000	0.310833
1401.000000	0.310563
1402.000000	0.310416
1403.000000	0.310087
1404.000000	0.309780
1405.000000	0.309360
1406.000000	0.308861
1407.000000	0.308608
1408.000000	0.308305
1409.000000	0.308078
1410.000000	0.308085
1411.000000	0.307897
1412.000000	0.307480
1413.000000	0.307169
1414.000000	0.306942
1415.000000	0.306852
1416.000000	0.306931
1417.000000	0.306941
1418.000000	0.306847
1419.000000	0.306811
1420.000000	0.306670
1421.000000	0.306636
1422.000000	0.306718
1423.000000	0.306813
1424.000000	0.306838
1425.000000	0.306910
1426.000000	0.306875
1427.000000	0.306852
1428.000000	0.306902
1429.000000	0.306929
1430.000000	0.307077
1431.000000	0.307187
1432.000000	0.307208
1433.000000	0.307204
1434.000000	0.307254
1435.000000	0.307313
1436.000000	0.307416
1437.000000	0.307653
1438.000000	0.307701
1439.000000	0.307650
1440.000000	0.307687
1441.000000	0.307717
1442.000000	0.307790
1443.000000	0.307874
1444.000000	0.307941
1445.000000	0.307962
1446.000000	0.307893
1447.000000	0.307815
1448.000000	0.307773
1449.000000	0.307642
1450.000000	0.307567
1451.000000	0.307567
1452.000000	0.307429
1453.000000	0.307401
1454.000000	0.307330
1455.000000	0.307091
1456.000000	0.307056
1457.000000	0.307044
1458.000000	0.307010
1459.000000	0.307187
1460.000000	0.307385
1461.000000	0.307451
1462.000000	0.307457
1463.000000	0.307341
1464.000000	0.307224
1465.000000	0.307296
1466.000000	0.307423
1467.000000	0.307637
1468.000000	0.307882
1469.000000	0.308072
1470.000000	0.308156
1471.000000	0.308258
1472.000000	0.308331
1473.000000	0.308502
1474.000000	0.308749
1475.000000	0.308955
1476.000000	0.309176
1477.000000	0.309356
1478.000000	0.309410
1479.000000	0.309466
1480.000000	0.309555
1481.000000	0.309593
1482.000000	0.309597
1483.000000	0.309722
1484.000000	0.309889
1485.000000	0.310031
1486.000000	0.310239
1487.000000	0.310435
1488.000000	0.310620
1489.000000	0.310828
1490.000000	0.310945
1491.000000	0.311110
1492.000000	0.311222
1493.000000	0.311381
1494.000000	0.311596
1495.000000	0.311673
1496.000000	0.311624
1497.000000	0.311694
1498.000000	0.311760
1499.000000	0.311842
1500.000000	0.312125
1501.000000	0.312399
1502.000000	0.312459
1503.000000	0.312627
1504.000000	0.312771
1505.000000	0.312816
1506.000000	0.313066
1507.000000	0.313219
1508.000000	0.313271
1509.000000	0.313455
1510.000000	0.313576
1511.000000	0.313664
1512.000000	0.313742
1513.000000	0.313813
1514.000000	0.313906
1515.000000	0.314003
1516.000000	0.314115
1517.000000	0.314183
1518.000000	0.314300
1519.000000	0.314356
1520.000000	0.314419
1521.000000	0.314429
1522.000000	0.314498
1523.000000	0.314562
1524.000000	0.314506
1525.000000	0.314623
1526.000000	0.314610
1527.000000	0.314531
1528.000000	0.314656
1529.000000	0.314689
1530.000000	0.314590
1531.000000	0.314728
1532.000000	0.314910
1533.000000	0.314893
1534.000000	0.314905
1535.000000	0.314922
1536.000000	0.314914
1537.000000	0.315107
1538.000000	0.315419
1539.000000	0.315624
1540.000000	0.315734
1541.000000	0.315840
1542.000000	0.315848
1543.000000	0.315900
1544.000000	0.315994
1545.000000	0.316007
1546.000000	0.315945
1547.000000	0.315915
1548.000000	0.315992
1549.000000	0.316033
1550.000000	0.316093
1551.000000	0.316195
1552.000000	0.316184
1553.000000	0.316136
1554.000000	0.316257
1555.000000	0.316408
1556.000000	0.316459
1557.000000	0.316475
1558.000000	0.316535
1559.000000	0.316483
1560.000000	0.316508
1561.000000	0.316680
1562.000000	0.316718
1563.000000	0.316708
1564.000000	0.316735
1565.000000	0.316775
1566.000000	0.316684
1567.000000	0.316624
1568.000000	0.316602
1569.000000	0.316616
1570.000000	0.316559
1571.000000	0.316485
1572.000000	0.316467
1573.000000	0.316388
1574.000000	0.316344
1575.000000	0.316466
1576.000000	0.316465
1577.000000	0.316329
1578.000000	0.316259
1579.000000	0.316268
1580.000000	0.316248
1581.000000	0.316308
1582.000000	0.316297
1583.000000	0.316232
1584.000000	0.316177
1585.000000	0.316164
1586.000000	0.316177
1587.000000	0.316190
1588.000000	0.316231
1589.000000	0.316329
1590.000000	0.316406
1591.000000	0.316572
1592.000000	0.316621
1593.000000	0.316605
1594.000000	0.316599
1595.000000	0.316563
1596.000000	0.316625
1597.000000	0.316800
1598.000000	0.316870
1599.000000	0.316988
1600.000000	0.316973
1601.000000	0.316907
1602.000000	0.316881
1603.000000	0.316819
1604.000000	0.316862
1605.000000	0.317053
1606.000000	0.317044
1607.000000	0.317070
1608.000000	0.317024
1609.000000	0.316858
1610.000000	0.316775
1611.000000	0.316731
1612.000000	0.316691
1613.000000	0.316800
1614.000000	0.316759
1615.000000	0.316753
1616.000000	0.316687
1617.000000	0.316352
1618.000000	0.316285
1619.000000	0.316372
1620.000000	0.316339
1621.000000	0.316388
1622.000000	0.316506
1623.000000	0.316536
1624.000000	0.316566
1625.000000	0.316551
1626.000000	0.316538
1627.000000	0.316466
1628.000000	0.316486
1629.000000	0.316620
1630.000000	0.316713
1631.000000	0.316721
1632.000000	0.316717
1633.000000	0.316644
1634.000000	0.316748
1635.000000	0.316993
1636.000000	0.317120
1637.000000	0.317413
1638.000000	0.317474
1639.000000	0.317372
1640.000000	0.317310
1641.000000	0.317226
1642.000000	0.317206
1643.000000	0.317252
1644.000000	0.317256
1645.000000	0.317235
1646.000000	0.317238
1647.000000	0.317339
1648.000000	0.317252
1649.000000	0.317179
1650.000000	0.317202
1651.000000	0.317074
1652.000000	0.317200
1653.000000	0.317575
1654.000000	0.317756
1655.000000	0.317918
1656.000000	0.317925
1657.000000	0.317840
1658.000000	0.317780
1659.000000	0.317756
1660.000000	0.317837
1661.000000	0.317849
1662.000000	0.317990
1663.000000	0.318273
1664.000000	0.318317
1665.000000	0.318336
1666.000000	0.318322
1667.000000	0.318017
1668.000000	0.317976
1669.000000	0.318049
1670.000000	0.317962
1671.000000	0.317991
1672.000000	0.318036
1673.000000	0.317924
1674.000000	0.318106
1675.000000	0.318346
1676.000000	0.318377
1677.000000	0.318380
1678.000000	0.318480
1679.000000	0.318444
1680.000000	0.318381
1681.000000	0.318490
1682.000000	0.318550
1683.000000	0.318538
1684.000000	0.318473
1685.000000	0.318513
1686.000000	0.318495
1687.000000	0.318389
1688.000000	0.318333
1689.000000	0.318281
1690.000000	0.318120
1691.000000	0.318089
1692.000000	0.318228
1693.000000	0.318306
1694.000000	0.318277
1695.000000	0.318361
1696.000000	0.318165
1697.000000	0.318126
1698.000000	0.318390
1699.000000	0.318422
1700.000000	0.318373
1701.000000	0.318461
1702.000000	0.318231
1703.000000	0.318091
1704.000000	0.318184
1705.000000	0.318240
1706.000000	0.318352
1707.000000	0.318394
1708.000000	0.318435
1709.000000	0.318381
1710.000000	0.318265
1711.000000	0.318235
1712.000000	0.318288
1713.000000	0.318254
1714.000000	0.318259
1715.000000	0.318230
1716.000000	0.318104
1717.000000	0.318072
1718.000000	0.318099
1719.000000	0.318029
1720.000000	0.317997
1721.000000	0.317935
1722.000000	0.317756
1723.000000	0.317721
1724.000000	0.317819
1725.000000	0.317851
1726.000000	0.317814
1727.000000	0.317818
1728.000000	0.317763
1729.000000	0.317644
1730.000000	0.317670
1731.000000	0.317633
1732.000000	0.317493
1733.000000	0.317525
1734.000000	0.317454
1735.000000	0.317575
1736.000000	0.317898
1737.000000	0.317899
1738.000000	0.317872
1739.000000	0.317879
1740.000000	0.317653
1741.000000	0.317609
1742.000000	0.317769
1743.000000	0.317828
1744.000000	0.317786
1745.000000	0.317826
1746.000000	0.317962
1747.000000	0.317780
1748.000000	0.317699
1749.000000	0.317630
1750.000000	0.317520
1751.000000	0.317671
1752.000000	0.317796
1753.000000	0.317743
1754.000000	0.317630
1755.000000	0.317286
1756.000000	0.317167
1757.000000	0.317118
1758.000000	0.317081
1759.000000	0.317273
1760.000000	0.317306
1761.000000	0.317102
1762.000000	0.317038
1763.000000	0.317035
1764.000000	0.317047
1765.000000	0.317087
1766.000000	0.317152
1767.000000	0.317205
1768.000000	0.317158
1769.000000	0.317128
1770.000000	0.317214
1771.000000	0.317269
1772.000000	0.317297
1773.000000	0.317355
1774.000000	0.317396
1775.000000	0.317435
1776.000000	0.317455
1777.000000	0.317491
1778.000000	0.317441
1779.000000	0.317270
1780.000000	0.317182
1781.000000	0.317027
1782.000000	0.317020
1783.000000	0.317124
1784.000000	0.317215
1785.000000	0.317428
1786.000000	0.317471
1787.000000	0.317602
1788.000000	0.317707
1789.000000	0.317651
1790.000000	0.317726
1791.000000	0.317584
1792.000000	0.317215
1793.000000	0.317111
1794.000000	0.317037
1795.000000	0.317019
1796.000000	0.317358
1797.000000	0.317408
1798.000000	0.317190
1799.000000	0.317151
1800.000000	0.317136
1801.000000	0.316928
1802.000000	0.317272
1803.000000	0.317278
1804.000000	0.317658
1805.000000	0.318341
1806.000000	0.318679
1807.000000	0.319385
1808.000000	0.319350
1809.000000	0.318378
1810.000000	0.317702
1811.000000	0.317777
1812.000000	0.318045
1813.000000	0.318056
1814.000000	0.318848
1815.000000	0.318993
1816.000000	0.318460
1817.000000	0.318107
1818.000000	0.317844
1819.000000	0.317812
1820.000000	0.317486
1821.000000	0.316798
1822.000000	0.316752
1823.000000	0.317176
1824.000000	0.316973
1825.000000	0.316741
1826.000000	0.316544
1827.000000	0.315427
1828.000000	0.315393
1829.000000	0.315579
1830.000000	0.315250
1831.000000	0.315424
1832.000000	0.315668
1833.000000	0.315911
1834.000000	0.317012
1835.000000	0.317082
1836.000000	0.316472
1837.000000	0.316128
1838.000000	0.315302
1839.000000	0.314038
1840.000000	0.314063
1841.000000	0.313795
1842.000000	0.313740
1843.000000	0.314338
1844.000000	0.314216
1845.000000	0.313359
1846.000000	0.313337
1847.000000	0.313496
1848.000000	0.313101
1849.000000	0.313335
1850.000000	0.313391
1851.000000	0.313397
1852.000000	0.313002
1853.000000	0.313011
1854.000000	0.313143
1855.000000	0.313126
1856.000000	0.313139
1857.000000	0.312815
1858.000000	0.312404
1859.000000	0.311680
1860.000000	0.310832
1861.000000	0.310280
1862.000000	0.309778
1863.000000	0.309753
1864.000000	0.309421
1865.000000	0.308975
1866.000000	0.308444
1867.000000	0.307869
1868.000000	0.306953
1869.000000	0.305975
1870.000000	0.305210
1871.000000	0.304908
1872.000000	0.304119
1873.000000	0.303295
1874.000000	0.302701
1875.000000	0.301912
1876.000000	0.300671
1877.000000	0.298962
1878.000000	0.297416
1879.000000	0.295623
1880.000000	0.293759
1881.000000	0.292145
1882.000000	0.290309
1883.000000	0.287925
1884.000000	0.285790
1885.000000	0.283047
1886.000000	0.280671
1887.000000	0.278723
1888.000000	0.276447
1889.000000	0.273441
1890.000000	0.270874
1891.000000	0.268218
1892.000000	0.265660
1893.000000	0.263501
1894.000000	0.261719
1895.000000	0.259756
1896.000000	0.258071
1897.000000	0.255927
1898.000000	0.253991
1899.000000	0.252153
1900.000000	0.249840
1901.000000	0.248611
1902.000000	0.247706
1903.000000	0.246474
1904.000000	0.245857
1905.000000	0.244729
1906.000000	0.243880
1907.000000	0.243029
1908.000000	0.242639
1909.000000	0.242074
1910.000000	0.241988
1911.000000	0.242131
1912.000000	0.241997
1913.000000	0.241847
1914.000000	0.242307
1915.000000	0.242362
1916.000000	0.242885
1917.000000	0.243416
1918.000000	0.244627
1919.000000	0.244754
1920.000000	0.245064
1921.000000	0.245115
1922.000000	0.244865
1923.000000	0.245628
1924.000000	0.246536
1925.000000	0.247317
1926.000000	0.247802
1927.000000	0.248273
1928.000000	0.248373
1929.000000	0.248067
1930.000000	0.247588
1931.000000	0.247640
1932.000000	0.248014
1933.000000	0.248769
1934.000000	0.249355
1935.000000	0.249913
1936.000000	0.249416
1937.000000	0.248628
1938.000000	0.249032
1939.000000	0.249032
1940.000000	0.248853
1941.000000	0.249114
1942.000000	0.249850
1943.000000	0.249778
1944.000000	0.249917
1945.000000	0.250684
1946.000000	0.251693
1947.000000	0.251993
1948.000000	0.252107
1949.000000	0.252334
1950.000000	0.251908
1951.000000	0.251734
1952.000000	0.251835
1953.000000	0.251896
1954.000000	0.251788
1955.000000	0.252119
1956.000000	0.251716
1957.000000	0.251806
1958.000000	0.252435
1959.000000	0.252222
1960.000000	0.252137
1961.000000	0.252144
1962.000000	0.252289
1963.000000	0.252121
1964.000000	0.253064
1965.000000	0.254025
1966.000000	0.254393
1967.000000	0.255248
1968.000000	0.255050
1969.000000	0.254467
1970.000000	0.254722
1971.000000	0.254542
1972.000000	0.254720
1973.000000	0.254801
1974.000000	0.254836
1975.000000	0.255453
1976.000000	0.256608
1977.000000	0.257373
1978.000000	0.258216
1979.000000	0.258776
1980.000000	0.258116
1981.000000	0.257509
1982.000000	0.257743
1983.000000	0.258379
1984.000000	0.258586
1985.000000	0.259308
1986.000000	0.259452
1987.000000	0.258966
1988.000000	0.258502
1989.000000	0.259337
1990.000000	0.259995
1991.000000	0.260769
1992.000000	0.261991
1993.000000	0.262155
1994.000000	0.262513
1995.000000	0.263262
1996.000000	0.262965
1997.000000	0.263141
1998.000000	0.263453
1999.000000	0.264063
2000.000000	0.264708
2001.000000	0.265940
2002.000000	0.266789
2003.000000	0.266911
2004.000000	0.266951
2005.000000	0.267114
2006.000000	0.267772
2007.000000	0.268233
2008.000000	0.268632
2009.000000	0.268870
2010.000000	0.269146
2011.000000	0.269372
2012.000000	0.269632
2013.000000	0.269826
2014.000000	0.269585
2015.000000	0.270257
2016.000000	0.270826
2017.000000	0.271047
2018.000000	0.271777
2019.000000	0.272300
2020.000000	0.272646
2021.000000	0.273092
2022.000000	0.274014
2023.000000	0.274331
2024.000000	0.274142
2025.000000	0.274225
2026.000000	0.274280
2027.000000	0.273775
2028.000000	0.273657
2029.000000	0.274396
2030.000000	0.274719
2031.000000	0.275406
2032.000000	0.276167
2033.000000	0.276378
2034.000000	0.276979
2035.000000	0.277844
2036.000000	0.278512
2037.000000	0.279856
2038.000000	0.280298
2039.000000	0.280193
2040.000000	0.280135
2041.000000	0.280069
2042.000000	0.279710
2043.000000	0.279853
2044.000000	0.280603
2045.000000	0.281039
2046.000000	0.281304
2047.000000	0.281551
2048.000000	0.281445
2049.000000	0.281854
2050.000000	0.282284
2051.000000	0.282576
2052.000000	0.283125
2053.000000	0.283069
2054.000000	0.282739
2055.000000	0.282390
2056.000000	0.281735
2057.000000	0.282429
2058.000000	0.283644
2059.000000	0.284730
2060.000000	0.285096
2061.000000	0.285119
2062.000000	0.285193
2063.000000	0.284665
2064.000000	0.284331
2065.000000	0.284635
2066.000000	0.284587
2067.000000	0.284361
2068.000000	0.284277
2069.000000	0.284572
2070.000000	0.285261
2071.000000	0.286277
2072.000000	0.287027
2073.000000	0.287087
2074.000000	0.287122
2075.000000	0.287074
2076.000000	0.286207
2077.000000	0.286151
2078.000000	0.286779
2079.000000	0.286907
2080.000000	0.287123
2081.000000	0.287316
2082.000000	0.287437
2083.000000	0.287175
2084.000000	0.287278
2085.000000	0.287938
2086.000000	0.288428
2087.000000	0.288894
2088.000000	0.289108
2089.000000	0.289042
2090.000000	0.289034
2091.000000	0.288643
2092.000000	0.288770
2093.000000	0.289203
2094.000000	0.289527
2095.000000	0.290367
2096.000000	0.291020
2097.000000	0.291543
2098.000000	0.291771
2099.000000	0.292043
2100.000000	0.291702
2101.000000	0.291796
2102.000000	0.291762
2103.000000	0.291912
2104.000000	0.292486
2105.000000	0.292631
2106.000000	0.292489
2107.000000	0.292698
2108.000000	0.292968
2109.000000	0.292906
2110.000000	0.292532
2111.000000	0.292452
2112.000000	0.292201
2113.000000	0.291798
2114.000000	0.291938
2115.000000	0.292276
2116.000000	0.292173
2117.000000	0.292785
2118.000000	0.293638
2119.000000	0.293920
2120.000000	0.294245
2121.000000	0.294692
2122.000000	0.294570
2123.000000	0.293818
2124.000000	0.293536
2125.000000	0.292851
2126.000000	0.292662
2127.000000	0.293266
2128.000000	0.293559
2129.000000	0.293735
2130.000000	0.294063
2131.000000	0.294031
2132.000000	0.293848
2133.000000	0.294062
2134.000000	0.294355
2135.000000	0.294638
2136.000000	0.295208
2137.000000	0.295698
2138.000000	0.296598
2139.000000	0.296522
2140.000000	0.295892
2141.000000	0.295569
2142.000000	0.294417
2143.000000	0.293738
2144.000000	0.294033
2145.000000	0.293717
2146.000000	0.293078
2147.000000	0.292928
2148.000000	0.292369
2149.000000	0.292343
2150.000000	0.292631
2151.000000	0.293265
2152.000000	0.294122
2153.000000	0.295170
2154.000000	0.295379
2155.000000	0.294869
2156.000000	0.295074
2157.000000	0.294973
2158.000000	0.295110
2159.000000	0.296512
2160.000000	0.296737
2161.000000	0.295756
2162.000000	0.295658
2163.000000	0.295104
2164.000000	0.295005
2165.000000	0.295631
2166.000000	0.296547
2167.000000	0.296549
2168.000000	0.296871
2169.000000	0.295733
2170.000000	0.294509
2171.000000	0.294041
2172.000000	0.293430
2173.000000	0.293297
2174.000000	0.294205
2175.000000	0.294564
2176.000000	0.295039
2177.000000	0.295369
2178.000000	0.295585
2179.000000	0.295598
2180.000000	0.295128
2181.000000	0.295172
2182.000000	0.294362
2183.000000	0.294835
2184.000000	0.295431
2185.000000	0.295456
2186.000000	0.295411
2187.000000	0.295600
2188.000000	0.295106
2189.000000	0.294205
2190.000000	0.294553
2191.000000	0.294489
2192.000000	0.294166
2193.000000	0.294344
2194.000000	0.294081
2195.000000	0.292219
2196.000000	0.292524
2197.000000	0.294441
2198.000000	0.294827
2199.000000	0.295772
2200.000000	0.296584
2201.000000	0.296758
2202.000000	0.296803
2203.000000	0.296367
2204.000000	0.296873
2205.000000	0.296883
2206.000000	0.295805
2207.000000	0.296255
2208.000000	0.295077
2209.000000	0.293234
2210.000000	0.292655
2211.000000	0.292994
2212.000000	0.294559
2213.000000	0.295760
2214.000000	0.298378
2215.000000	0.298381
2216.000000	0.297232
2217.000000	0.296255
2218.000000	0.293196
2219.000000	0.292216
2220.000000	0.291640
2221.000000	0.292115
2222.000000	0.294504
2223.000000	0.295544
2224.000000	0.297521
2225.000000	0.298118
2226.000000	0.295881
2227.000000	0.292881
2228.000000	0.289793
2229.000000	0.287038
2230.000000	0.286067
2231.000000	0.286888
2232.000000	0.287054
2233.000000	0.289159
2234.000000	0.290104
2235.000000	0.289012
2236.000000	0.289515
2237.000000	0.289890
2238.000000	0.290054
2239.000000	0.291606
2240.000000	0.291936
2241.000000	0.290190
2242.000000	0.290570
2243.000000	0.292661
2244.000000	0.292869
2245.000000	0.293143
2246.000000	0.293121
2247.000000	0.290222
2248.000000	0.289824
2249.000000	0.291423
2250.000000	0.292573
2251.000000	0.293417
2252.000000	0.294289
2253.000000	0.293789
2254.000000	0.294290
2255.000000	0.294739
2256.000000	0.294754
2257.000000	0.294095
2258.000000	0.292844
2259.000000	0.292825
2260.000000	0.292384
2261.000000	0.292366
2262.000000	0.293448
2263.000000	0.293060
2264.000000	0.292664
2265.000000	0.291954
2266.000000	0.289994
2267.000000	0.288889
2268.000000	0.287402
2269.000000	0.286994
2270.000000	0.287799
2271.000000	0.287876
2272.000000	0.288124
2273.000000	0.287689
2274.000000	0.286583
2275.000000	0.285832
2276.000000	0.284574
2277.000000	0.285007
2278.000000	0.284686
2279.000000	0.284747
2280.000000	0.284729
2281.000000	0.284716
2282.000000	0.285419
2283.000000	0.285776
2284.000000	0.286088
2285.000000	0.286099
2286.000000	0.283951
2287.000000	0.280499
2288.000000	0.279916
2289.000000	0.277330
2290.000000	0.277311
2291.000000	0.279756
2292.000000	0.277712
2293.000000	0.277715
2294.000000	0.276236
2295.000000	0.271210
2296.000000	0.270341
2297.000000	0.271718
2298.000000	0.271677
2299.000000	0.274362
2300.000000	0.273984
2301.000000	0.270638
2302.000000	0.269383
2303.000000	0.267376
2304.000000	0.265824
2305.000000	0.265473
2306.000000	0.264264
2307.000000	0.262399
2308.000000	0.261566
2309.000000	0.259715
2310.000000	0.259513
2311.000000	0.259372
2312.000000	0.259162
2313.000000	0.259181
2314.000000	0.258100
2315.000000	0.256382
2316.000000	0.254753
2317.000000	0.254989
2318.000000	0.257229
2319.000000	0.260221
2320.000000	0.261509
2321.000000	0.262739
2322.000000	0.263738
2323.000000	0.262557
2324.000000	0.264296
2325.000000	0.266530
2326.000000	0.266430
2327.000000	0.267422
2328.000000	0.268740
2329.000000	0.267422
2330.000000	0.265757
2331.000000	0.265031
2332.000000	0.263627
2333.000000	0.263760
2334.000000	0.263742
2335.000000	0.266217
2336.000000	0.272192
2337.000000	0.273566
2338.000000	0.275150
2339.000000	0.274505
2340.000000	0.267230
2341.000000	0.265193
2342.000000	0.266249
2343.000000	0.265447
2344.000000	0.265040
2345.000000	0.265039
2346.000000	0.263815
2347.000000	0.265089
2348.000000	0.268704
2349.000000	0.272293
2350.000000	0.274785
2351.000000	0.273709
2352.000000	0.270717
2353.000000	0.269832
2354.000000	0.269047
2355.000000	0.270070
2356.000000	0.271431
2357.000000	0.270459
2358.000000	0.270770
2359.000000	0.267859
2360.000000	0.268002
2361.000000	0.270599
2362.000000	0.266969
2363.000000	0.267956
2364.000000	0.269007
2365.000000	0.267118
2366.000000	0.266868
2367.000000	0.264529
2368.000000	0.264070
2369.000000	0.261513
2370.000000	0.259045
2371.000000	0.261983
2372.000000	0.259904
2373.000000	0.259958
2374.000000	0.263322
2375.000000	0.260638
2376.000000	0.261386
2377.000000	0.259052
2378.000000	0.254104
2379.000000	0.255653
2380.000000	0.252968
2381.000000	0.253366
2382.000000	0.257128
2383.000000	0.254565
2384.000000	0.255336
2385.000000	0.255227
2386.000000	0.254861
2387.000000	0.256863
2388.000000	0.254900
2389.000000	0.259876
2390.000000	0.261984
2391.000000	0.258208
2392.000000	0.259982
2393.000000	0.254595
2394.000000	0.248968
2395.000000	0.252297
2396.000000	0.254843
2397.000000	0.254642
2398.000000	0.257246
2399.000000	0.258895
2400.000000	0.260701
2401.000000	0.264770
2402.000000	0.263862
2403.000000	0.264557
2404.000000	0.260699
2405.000000	0.255058
2406.000000	0.257871
2407.000000	0.257025
2408.000000	0.256209
2409.000000	0.262091
2410.000000	0.261358
2411.000000	0.259247
2412.000000	0.262935
2413.000000	0.259460
2414.000000	0.254224
2415.000000	0.246876
2416.000000	0.239542
2417.000000	0.240731
2418.000000	0.238654
2419.000000	0.237523
2420.000000	0.241080
2421.000000	0.241742
2422.000000	0.247018
2423.000000	0.251630
2424.000000	0.248789
2425.000000	0.245008
2426.000000	0.244591
2427.000000	0.252821
2428.000000	0.264807
2429.000000	0.267485
2430.000000	0.266080
2431.000000	0.270906
2432.000000	0.272316
2433.000000	0.277786
2434.000000	0.287179
2435.000000	0.288373
2436.000000	0.281428
2437.000000	0.274178
2438.000000	0.272442
2439.000000	0.261621
2440.000000	0.256917
2441.000000	0.255038
2442.000000	0.248795
2443.000000	0.245891
2444.000000	0.237747
2445.000000	0.241320
2446.000000	0.254105
2447.000000	0.268334
2448.000000	0.273303
2449.000000	0.261839
2450.000000	0.245714
2451.000000	0.227372
2452.000000	0.226222
2453.000000	0.229664
2454.000000	0.220896
2455.000000	0.219233
2456.000000	0.214467
2457.000000	0.215561
2458.000000	0.233837
2459.000000	0.242976
2460.000000	0.251091
2461.000000	0.236629
2462.000000	0.210473
2463.000000	0.194694
2464.000000	0.182902
2465.000000	0.195815
2466.000000	0.221934
2467.000000	0.253529
2468.000000	0.253540
2469.000000	0.242803
2470.000000	0.238036
2471.000000	0.196181
2472.000000	0.179213
2473.000000	0.193458
2474.000000	0.194424
2475.000000	0.226974
2476.000000	0.272438
2477.000000	0.280274
2478.000000	0.283172
2479.000000	0.251993
2480.000000	0.219705
2481.000000	0.196250
2482.000000	0.188323
2483.000000	0.219792
2484.000000	0.243763
2485.000000	0.249725
2486.000000	0.244320
2487.000000	0.241123
2488.000000	0.206502
2489.000000	0.195261
2490.000000	0.199558
2491.000000	0.190390
2492.000000	0.173434
2493.000000	0.134144
2494.000000	0.131477
2495.000000	0.138111
2496.000000	0.148961
2497.000000	0.214340
2498.000000	0.241071
2499.000000	0.226390
2500.000000	0.255597
