# Wavelength	SM1200H-50_HEX-40_FV7-10_00002.asd.rts.txt
350.000000	0.378145
351.000000	0.401736
352.000000	0.391304
353.000000	0.378955
354.000000	0.385534
355.000000	0.392847
356.000000	0.405364
357.000000	0.418698
358.000000	0.414559
359.000000	0.408109
360.000000	0.406920
361.000000	0.413137
362.000000	0.415562
363.000000	0.410900
364.000000	0.401961
365.000000	0.407903
366.000000	0.408549
367.000000	0.401817
368.000000	0.402286
369.000000	0.405229
370.000000	0.409806
371.000000	0.414979
372.000000	0.411324
373.000000	0.409206
374.000000	0.414542
375.000000	0.413006
376.000000	0.412823
377.000000	0.415465
378.000000	0.416909
379.000000	0.416157
380.000000	0.414691
381.000000	0.415899
382.000000	0.416542
383.000000	0.416962
384.000000	0.417981
385.000000	0.418702
386.000000	0.420861
387.000000	0.423903
388.000000	0.423952
389.000000	0.424445
390.000000	0.426150
391.000000	0.428085
392.000000	0.426074
393.000000	0.423763
394.000000	0.424320
395.000000	0.426440
396.000000	0.427361
397.000000	0.426738
398.000000	0.427472
399.000000	0.428496
400.000000	0.429291
401.000000	0.429235
402.000000	0.428826
403.000000	0.429150
404.000000	0.430772
405.000000	0.430534
406.000000	0.430885
407.000000	0.432480
408.000000	0.432318
409.000000	0.433025
410.000000	0.434370
411.000000	0.434517
412.000000	0.434824
413.000000	0.435000
414.000000	0.434771
415.000000	0.435937
416.000000	0.436919
417.000000	0.436797
418.000000	0.436269
419.000000	0.436740
420.000000	0.437951
421.000000	0.438160
422.000000	0.438625
423.000000	0.438935
424.000000	0.438569
425.000000	0.439260
426.000000	0.440023
427.000000	0.440080
428.000000	0.440387
429.000000	0.441269
430.000000	0.442400
431.000000	0.442444
432.000000	0.442782
433.000000	0.443249
434.000000	0.443253
435.000000	0.443751
436.000000	0.444237
437.000000	0.444171
438.000000	0.444414
439.000000	0.444784
440.000000	0.445201
441.000000	0.445166
442.000000	0.445591
443.000000	0.446201
444.000000	0.446164
445.000000	0.446351
446.000000	0.446784
447.000000	0.447032
448.000000	0.447960
449.000000	0.448938
450.000000	0.449408
451.000000	0.449212
452.000000	0.449128
453.000000	0.449382
454.000000	0.450076
455.000000	0.450235
456.000000	0.450318
457.000000	0.450994
458.000000	0.451348
459.000000	0.451744
460.000000	0.452529
461.000000	0.452549
462.000000	0.452639
463.000000	0.452942
464.000000	0.453250
465.000000	0.453479
466.000000	0.453532
467.000000	0.453561
468.000000	0.454091
469.000000	0.454479
470.000000	0.454303
471.000000	0.454517
472.000000	0.454752
473.000000	0.454849
474.000000	0.455372
475.000000	0.455800
476.000000	0.456128
477.000000	0.456240
478.000000	0.456290
479.000000	0.456628
480.000000	0.457036
481.000000	0.457493
482.000000	0.457944
483.000000	0.458017
484.000000	0.458236
485.000000	0.458436
486.000000	0.458729
487.000000	0.458667
488.000000	0.458694
489.000000	0.459014
490.000000	0.459659
491.000000	0.460005
492.000000	0.460318
493.000000	0.460776
494.000000	0.460952
495.000000	0.461191
496.000000	0.461659
497.000000	0.462191
498.000000	0.462554
499.000000	0.462840
500.000000	0.463194
501.000000	0.463461
502.000000	0.463762
503.000000	0.464164
504.000000	0.464499
505.000000	0.464833
506.000000	0.465227
507.000000	0.465437
508.000000	0.465691
509.000000	0.466053
510.000000	0.466498
511.000000	0.466845
512.000000	0.467135
513.000000	0.467495
514.000000	0.467846
515.000000	0.468255
516.000000	0.468687
517.000000	0.468954
518.000000	0.469244
519.000000	0.469559
520.000000	0.469871
521.000000	0.470204
522.000000	0.470565
523.000000	0.470908
524.000000	0.471173
525.000000	0.471366
526.000000	0.471625
527.000000	0.471964
528.000000	0.472288
529.000000	0.472587
530.000000	0.472863
531.000000	0.473222
532.000000	0.473556
533.000000	0.473836
534.000000	0.474190
535.000000	0.474589
536.000000	0.474908
537.000000	0.475142
538.000000	0.475379
539.000000	0.475718
540.000000	0.476066
541.000000	0.476386
542.000000	0.476720
543.000000	0.477060
544.000000	0.477406
545.000000	0.477658
546.000000	0.477957
547.000000	0.478279
548.000000	0.478672
549.000000	0.479070
550.000000	0.479430
551.000000	0.479812
552.000000	0.480193
553.000000	0.480452
554.000000	0.480729
555.000000	0.481140
556.000000	0.481628
557.000000	0.481928
558.000000	0.482227
559.000000	0.482684
560.000000	0.483003
561.000000	0.483304
562.000000	0.483636
563.000000	0.483861
564.000000	0.484160
565.000000	0.484524
566.000000	0.484866
567.000000	0.485183
568.000000	0.485460
569.000000	0.485781
570.000000	0.486157
571.000000	0.486531
572.000000	0.486819
573.000000	0.487128
574.000000	0.487449
575.000000	0.487824
576.000000	0.488120
577.000000	0.488410
578.000000	0.488835
579.000000	0.489128
580.000000	0.489364
581.000000	0.489601
582.000000	0.489880
583.000000	0.490097
584.000000	0.490325
585.000000	0.490737
586.000000	0.490978
587.000000	0.491156
588.000000	0.491457
589.000000	0.491797
590.000000	0.492096
591.000000	0.492319
592.000000	0.492497
593.000000	0.492800
594.000000	0.493201
595.000000	0.493480
596.000000	0.493647
597.000000	0.493855
598.000000	0.494138
599.000000	0.494315
600.000000	0.494497
601.000000	0.494673
602.000000	0.494888
603.000000	0.495059
604.000000	0.495193
605.000000	0.495414
606.000000	0.495556
607.000000	0.495676
608.000000	0.495957
609.000000	0.496122
610.000000	0.496268
611.000000	0.496540
612.000000	0.496700
613.000000	0.496811
614.000000	0.496989
615.000000	0.497172
616.000000	0.497350
617.000000	0.497507
618.000000	0.497808
619.000000	0.498037
620.000000	0.498127
621.000000	0.498184
622.000000	0.498328
623.000000	0.498441
624.000000	0.498449
625.000000	0.498614
626.000000	0.498766
627.000000	0.498853
628.000000	0.499008
629.000000	0.499306
630.000000	0.499518
631.000000	0.499720
632.000000	0.499832
633.000000	0.499943
634.000000	0.500115
635.000000	0.500263
636.000000	0.500408
637.000000	0.500542
638.000000	0.500709
639.000000	0.500857
640.000000	0.501047
641.000000	0.501154
642.000000	0.501198
643.000000	0.501256
644.000000	0.501413
645.000000	0.501553
646.000000	0.501653
647.000000	0.501692
648.000000	0.501834
649.000000	0.502015
650.000000	0.502163
651.000000	0.502288
652.000000	0.502408
653.000000	0.502600
654.000000	0.502819
655.000000	0.503032
656.000000	0.503185
657.000000	0.503192
658.000000	0.503366
659.000000	0.503486
660.000000	0.503475
661.000000	0.503642
662.000000	0.503718
663.000000	0.503805
664.000000	0.504034
665.000000	0.504209
666.000000	0.504368
667.000000	0.504533
668.000000	0.504685
669.000000	0.504834
670.000000	0.504993
671.000000	0.505132
672.000000	0.505269
673.000000	0.505417
674.000000	0.505622
675.000000	0.505804
676.000000	0.505950
677.000000	0.506091
678.000000	0.506216
679.000000	0.506363
680.000000	0.506544
681.000000	0.506624
682.000000	0.506754
683.000000	0.506867
684.000000	0.507070
685.000000	0.507249
686.000000	0.507422
687.000000	0.507558
688.000000	0.507634
689.000000	0.507737
690.000000	0.507954
691.000000	0.508103
692.000000	0.508168
693.000000	0.508280
694.000000	0.508447
695.000000	0.508627
696.000000	0.508783
697.000000	0.508891
698.000000	0.509002
699.000000	0.509145
700.000000	0.509328
701.000000	0.509455
702.000000	0.509614
703.000000	0.509785
704.000000	0.509888
705.000000	0.510110
706.000000	0.510320
707.000000	0.510427
708.000000	0.510569
709.000000	0.510673
710.000000	0.510729
711.000000	0.510909
712.000000	0.511067
713.000000	0.511177
714.000000	0.511280
715.000000	0.511384
716.000000	0.511528
717.000000	0.511704
718.000000	0.511813
719.000000	0.511853
720.000000	0.511891
721.000000	0.512042
722.000000	0.512132
723.000000	0.512232
724.000000	0.512454
725.000000	0.512544
726.000000	0.512630
727.000000	0.512721
728.000000	0.512784
729.000000	0.512861
730.000000	0.512912
731.000000	0.513060
732.000000	0.513181
733.000000	0.513288
734.000000	0.513381
735.000000	0.513443
736.000000	0.513654
737.000000	0.513819
738.000000	0.513774
739.000000	0.513802
740.000000	0.513841
741.000000	0.513919
742.000000	0.514052
743.000000	0.514186
744.000000	0.514333
745.000000	0.514365
746.000000	0.514385
747.000000	0.514390
748.000000	0.514345
749.000000	0.514380
750.000000	0.514512
751.000000	0.514656
752.000000	0.514786
753.000000	0.514910
754.000000	0.515032
755.000000	0.515184
756.000000	0.515318
757.000000	0.515314
758.000000	0.515369
759.000000	0.515473
760.000000	0.515495
761.000000	0.515560
762.000000	0.515564
763.000000	0.515566
764.000000	0.515838
765.000000	0.515897
766.000000	0.515886
767.000000	0.515988
768.000000	0.515994
769.000000	0.515992
770.000000	0.516033
771.000000	0.516081
772.000000	0.516262
773.000000	0.516368
774.000000	0.516313
775.000000	0.516372
776.000000	0.516445
777.000000	0.516427
778.000000	0.516469
779.000000	0.516533
780.000000	0.516609
781.000000	0.516678
782.000000	0.516748
783.000000	0.516901
784.000000	0.516920
785.000000	0.516836
786.000000	0.516803
787.000000	0.516855
788.000000	0.516822
789.000000	0.516779
790.000000	0.516788
791.000000	0.516970
792.000000	0.517089
793.000000	0.517122
794.000000	0.517118
795.000000	0.517201
796.000000	0.517219
797.000000	0.517176
798.000000	0.517253
799.000000	0.517286
800.000000	0.517259
801.000000	0.517217
802.000000	0.517241
803.000000	0.517287
804.000000	0.517360
805.000000	0.517368
806.000000	0.517308
807.000000	0.517310
808.000000	0.517306
809.000000	0.517284
810.000000	0.517241
811.000000	0.517171
812.000000	0.517152
813.000000	0.517164
814.000000	0.517196
815.000000	0.517278
816.000000	0.517282
817.000000	0.517300
818.000000	0.517291
819.000000	0.517203
820.000000	0.517182
821.000000	0.517195
822.000000	0.517193
823.000000	0.517205
824.000000	0.517195
825.000000	0.517297
826.000000	0.517358
827.000000	0.517280
828.000000	0.517159
829.000000	0.517252
830.000000	0.517119
831.000000	0.516890
832.000000	0.516715
833.000000	0.516654
834.000000	0.516645
835.000000	0.516677
836.000000	0.516742
837.000000	0.516692
838.000000	0.516605
839.000000	0.516653
840.000000	0.516604
841.000000	0.516459
842.000000	0.516232
843.000000	0.516140
844.000000	0.516110
845.000000	0.516071
846.000000	0.516090
847.000000	0.516033
848.000000	0.515946
849.000000	0.515962
850.000000	0.516020
851.000000	0.515988
852.000000	0.515896
853.000000	0.515812
854.000000	0.515640
855.000000	0.515536
856.000000	0.515413
857.000000	0.515380
858.000000	0.515442
859.000000	0.515418
860.000000	0.515250
861.000000	0.515101
862.000000	0.515085
863.000000	0.515131
864.000000	0.515118
865.000000	0.515095
866.000000	0.515116
867.000000	0.515057
868.000000	0.515088
869.000000	0.515056
870.000000	0.514901
871.000000	0.514709
872.000000	0.514485
873.000000	0.514182
874.000000	0.514058
875.000000	0.513830
876.000000	0.513576
877.000000	0.513397
878.000000	0.513331
879.000000	0.513315
880.000000	0.513119
881.000000	0.513081
882.000000	0.512929
883.000000	0.512643
884.000000	0.512223
885.000000	0.511941
886.000000	0.511751
887.000000	0.511650
888.000000	0.511632
889.000000	0.511663
890.000000	0.511544
891.000000	0.511425
892.000000	0.511326
893.000000	0.511144
894.000000	0.511022
895.000000	0.510849
896.000000	0.510641
897.000000	0.510445
898.000000	0.510306
899.000000	0.510165
900.000000	0.510004
901.000000	0.509814
902.000000	0.509829
903.000000	0.509632
904.000000	0.509369
905.000000	0.509130
906.000000	0.508991
907.000000	0.508905
908.000000	0.508839
909.000000	0.508492
910.000000	0.508245
911.000000	0.508056
912.000000	0.507879
913.000000	0.507925
914.000000	0.507878
915.000000	0.507712
916.000000	0.507369
917.000000	0.507175
918.000000	0.507030
919.000000	0.506796
920.000000	0.506591
921.000000	0.506550
922.000000	0.506511
923.000000	0.506153
924.000000	0.505848
925.000000	0.505477
926.000000	0.505075
927.000000	0.504836
928.000000	0.504664
929.000000	0.504410
930.000000	0.503987
931.000000	0.503690
932.000000	0.503411
933.000000	0.503141
934.000000	0.502831
935.000000	0.502724
936.000000	0.502650
937.000000	0.502312
938.000000	0.502123
939.000000	0.501827
940.000000	0.501351
941.000000	0.501004
942.000000	0.500727
943.000000	0.500384
944.000000	0.499792
945.000000	0.499429
946.000000	0.498900
947.000000	0.498441
948.000000	0.498258
949.000000	0.498032
950.000000	0.497993
951.000000	0.498081
952.000000	0.498141
953.000000	0.498020
954.000000	0.497806
955.000000	0.497502
956.000000	0.497231
957.000000	0.497005
958.000000	0.496695
959.000000	0.496370
960.000000	0.496212
961.000000	0.495902
962.000000	0.495391
963.000000	0.495084
964.000000	0.494965
965.000000	0.494919
966.000000	0.494640
967.000000	0.494188
968.000000	0.493952
969.000000	0.493825
970.000000	0.493674
971.000000	0.493455
972.000000	0.493291
973.000000	0.493139
974.000000	0.493056
975.000000	0.492769
976.000000	0.492375
977.000000	0.491999
978.000000	0.491585
979.000000	0.491821
980.000000	0.491931
981.000000	0.491479
982.000000	0.491019
983.000000	0.490955
984.000000	0.491224
985.000000	0.491057
986.000000	0.490654
987.000000	0.490329
988.000000	0.490066
989.000000	0.489747
990.000000	0.489668
991.000000	0.489587
992.000000	0.489338
993.000000	0.489680
994.000000	0.489656
995.000000	0.489457
996.000000	0.489459
997.000000	0.489411
998.000000	0.489463
999.000000	0.489666
1000.000000	0.489453
1001.000000	0.489529
1002.000000	0.489605
1003.000000	0.489448
1004.000000	0.489252
1005.000000	0.489135
1006.000000	0.488830
1007.000000	0.488313
1008.000000	0.488012
1009.000000	0.488202
1010.000000	0.487783
1011.000000	0.487724
1012.000000	0.487618
1013.000000	0.486220
1014.000000	0.485639
1015.000000	0.485732
1016.000000	0.485888
1017.000000	0.486559
1018.000000	0.486882
1019.000000	0.487172
1020.000000	0.487490
1021.000000	0.487232
1022.000000	0.486910
1023.000000	0.487143
1024.000000	0.487098
1025.000000	0.487355
1026.000000	0.487303
1027.000000	0.487188
1028.000000	0.487266
1029.000000	0.486881
1030.000000	0.487124
1031.000000	0.487448
1032.000000	0.487275
1033.000000	0.487345
1034.000000	0.487301
1035.000000	0.487137
1036.000000	0.487141
1037.000000	0.487026
1038.000000	0.486960
1039.000000	0.486971
1040.000000	0.487680
1041.000000	0.488080
1042.000000	0.488637
1043.000000	0.489041
1044.000000	0.488936
1045.000000	0.488494
1046.000000	0.487824
1047.000000	0.487939
1048.000000	0.488296
1049.000000	0.488529
1050.000000	0.489618
1051.000000	0.489816
1052.000000	0.489127
1053.000000	0.488934
1054.000000	0.488847
1055.000000	0.488895
1056.000000	0.489154
1057.000000	0.489773
1058.000000	0.490019
1059.000000	0.489839
1060.000000	0.489763
1061.000000	0.489802
1062.000000	0.489891
1063.000000	0.490276
1064.000000	0.490669
1065.000000	0.491381
1066.000000	0.491561
1067.000000	0.491351
1068.000000	0.491380
1069.000000	0.490947
1070.000000	0.491101
1071.000000	0.492102
1072.000000	0.492528
1073.000000	0.493101
1074.000000	0.493390
1075.000000	0.493202
1076.000000	0.492958
1077.000000	0.493197
1078.000000	0.493359
1079.000000	0.493454
1080.000000	0.493610
1081.000000	0.494016
1082.000000	0.494804
1083.000000	0.495007
1084.000000	0.495266
1085.000000	0.495444
1086.000000	0.494990
1087.000000	0.494881
1088.000000	0.494786
1089.000000	0.494932
1090.000000	0.495264
1091.000000	0.495298
1092.000000	0.495700
1093.000000	0.496307
1094.000000	0.496330
1095.000000	0.495672
1096.000000	0.495813
1097.000000	0.496119
1098.000000	0.496258
1099.000000	0.496707
1100.000000	0.496894
1101.000000	0.496525
1102.000000	0.496529
1103.000000	0.496585
1104.000000	0.496894
1105.000000	0.497587
1106.000000	0.497931
1107.000000	0.498114
1108.000000	0.498384
1109.000000	0.498618
1110.000000	0.498824
1111.000000	0.498936
1112.000000	0.499255
1113.000000	0.499286
1114.000000	0.498854
1115.000000	0.498953
1116.000000	0.499336
1117.000000	0.499502
1118.000000	0.499678
1119.000000	0.499883
1120.000000	0.499986
1121.000000	0.500167
1122.000000	0.500847
1123.000000	0.501341
1124.000000	0.501421
1125.000000	0.501413
1126.000000	0.500851
1127.000000	0.500579
1128.000000	0.500365
1129.000000	0.500088
1130.000000	0.500229
1131.000000	0.500952
1132.000000	0.500905
1133.000000	0.500670
1134.000000	0.500740
1135.000000	0.500531
1136.000000	0.500403
1137.000000	0.500744
1138.000000	0.500583
1139.000000	0.499946
1140.000000	0.499822
1141.000000	0.499777
1142.000000	0.499732
1143.000000	0.499880
1144.000000	0.500017
1145.000000	0.499869
1146.000000	0.499483
1147.000000	0.499344
1148.000000	0.499032
1149.000000	0.498950
1150.000000	0.499167
1151.000000	0.499127
1152.000000	0.498958
1153.000000	0.498814
1154.000000	0.498417
1155.000000	0.498228
1156.000000	0.498120
1157.000000	0.498112
1158.000000	0.498253
1159.000000	0.498220
1160.000000	0.498108
1161.000000	0.498030
1162.000000	0.497872
1163.000000	0.498046
1164.000000	0.498230
1165.000000	0.498297
1166.000000	0.498299
1167.000000	0.498143
1168.000000	0.498070
1169.000000	0.497938
1170.000000	0.497964
1171.000000	0.498259
1172.000000	0.498334
1173.000000	0.498283
1174.000000	0.498291
1175.000000	0.498148
1176.000000	0.498064
1177.000000	0.498210
1178.000000	0.498246
1179.000000	0.498294
1180.000000	0.498163
1181.000000	0.498041
1182.000000	0.497812
1183.000000	0.497823
1184.000000	0.497877
1185.000000	0.497908
1186.000000	0.498144
1187.000000	0.498123
1188.000000	0.497897
1189.000000	0.497755
1190.000000	0.497692
1191.000000	0.497519
1192.000000	0.497354
1193.000000	0.497488
1194.000000	0.497579
1195.000000	0.497572
1196.000000	0.497603
1197.000000	0.497601
1198.000000	0.497489
1199.000000	0.497408
1200.000000	0.497356
1201.000000	0.497311
1202.000000	0.497249
1203.000000	0.497214
1204.000000	0.497210
1205.000000	0.497227
1206.000000	0.497153
1207.000000	0.497153
1208.000000	0.497058
1209.000000	0.496935
1210.000000	0.496963
1211.000000	0.497069
1212.000000	0.497055
1213.000000	0.497207
1214.000000	0.497291
1215.000000	0.497221
1216.000000	0.497135
1217.000000	0.496901
1218.000000	0.496821
1219.000000	0.496771
1220.000000	0.496859
1221.000000	0.497056
1222.000000	0.497224
1223.000000	0.497166
1224.000000	0.497057
1225.000000	0.496941
1226.000000	0.496814
1227.000000	0.496767
1228.000000	0.496828
1229.000000	0.496759
1230.000000	0.496657
1231.000000	0.496502
1232.000000	0.496394
1233.000000	0.496495
1234.000000	0.496743
1235.000000	0.496697
1236.000000	0.496409
1237.000000	0.496375
1238.000000	0.496161
1239.000000	0.496074
1240.000000	0.496218
1241.000000	0.496336
1242.000000	0.496259
1243.000000	0.496176
1244.000000	0.496276
1245.000000	0.496415
1246.000000	0.496393
1247.000000	0.496532
1248.000000	0.496637
1249.000000	0.496665
1250.000000	0.496711
1251.000000	0.496786
1252.000000	0.496801
1253.000000	0.496799
1254.000000	0.496699
1255.000000	0.496520
1256.000000	0.496443
1257.000000	0.496331
1258.000000	0.496392
1259.000000	0.496545
1260.000000	0.496626
1261.000000	0.496626
1262.000000	0.496628
1263.000000	0.496607
1264.000000	0.496615
1265.000000	0.496662
1266.000000	0.496642
1267.000000	0.496626
1268.000000	0.496580
1269.000000	0.496427
1270.000000	0.496334
1271.000000	0.496189
1272.000000	0.496165
1273.000000	0.496371
1274.000000	0.496473
1275.000000	0.496438
1276.000000	0.496394
1277.000000	0.496409
1278.000000	0.496083
1279.000000	0.496021
1280.000000	0.496118
1281.000000	0.496012
1282.000000	0.495958
1283.000000	0.496007
1284.000000	0.495829
1285.000000	0.495776
1286.000000	0.495777
1287.000000	0.495828
1288.000000	0.496032
1289.000000	0.496193
1290.000000	0.496001
1291.000000	0.495857
1292.000000	0.495678
1293.000000	0.495495
1294.000000	0.495689
1295.000000	0.495866
1296.000000	0.495559
1297.000000	0.495182
1298.000000	0.494970
1299.000000	0.494656
1300.000000	0.494557
1301.000000	0.494618
1302.000000	0.494544
1303.000000	0.494607
1304.000000	0.494440
1305.000000	0.494411
1306.000000	0.494212
1307.000000	0.493782
1308.000000	0.493603
1309.000000	0.493441
1310.000000	0.493287
1311.000000	0.493279
1312.000000	0.493199
1313.000000	0.493084
1314.000000	0.492925
1315.000000	0.492490
1316.000000	0.492359
1317.000000	0.492290
1318.000000	0.492031
1319.000000	0.491964
1320.000000	0.491743
1321.000000	0.491291
1322.000000	0.491076
1323.000000	0.490904
1324.000000	0.490667
1325.000000	0.490379
1326.000000	0.489939
1327.000000	0.489528
1328.000000	0.489359
1329.000000	0.489003
1330.000000	0.488700
1331.000000	0.488337
1332.000000	0.487915
1333.000000	0.487497
1334.000000	0.487168
1335.000000	0.486860
1336.000000	0.486536
1337.000000	0.486182
1338.000000	0.485702
1339.000000	0.485405
1340.000000	0.485049
1341.000000	0.484696
1342.000000	0.484439
1343.000000	0.484119
1344.000000	0.483815
1345.000000	0.483473
1346.000000	0.483078
1347.000000	0.482603
1348.000000	0.482244
1349.000000	0.481776
1350.000000	0.481410
1351.000000	0.481012
1352.000000	0.480622
1353.000000	0.480251
1354.000000	0.479917
1355.000000	0.479573
1356.000000	0.479078
1357.000000	0.478545
1358.000000	0.478082
1359.000000	0.477520
1360.000000	0.477008
1361.000000	0.476611
1362.000000	0.476122
1363.000000	0.475568
1364.000000	0.475085
1365.000000	0.474571
1366.000000	0.474013
1367.000000	0.473477
1368.000000	0.472806
1369.000000	0.472180
1370.000000	0.471416
1371.000000	0.470523
1372.000000	0.469613
1373.000000	0.468432
1374.000000	0.467180
1375.000000	0.465796
1376.000000	0.464137
1377.000000	0.462280
1378.000000	0.459937
1379.000000	0.457030
1380.000000	0.453827
1381.000000	0.450149
1382.000000	0.446065
1383.000000	0.441937
1384.000000	0.437524
1385.000000	0.433159
1386.000000	0.429176
1387.000000	0.425385
1388.000000	0.422116
1389.000000	0.419542
1390.000000	0.417683
1391.000000	0.416508
1392.000000	0.416014
1393.000000	0.415736
1394.000000	0.416126
1395.000000	0.416352
1396.000000	0.417046
1397.000000	0.417092
1398.000000	0.416992
1399.000000	0.416571
1400.000000	0.415734
1401.000000	0.414659
1402.000000	0.413417
1403.000000	0.411932
1404.000000	0.410277
1405.000000	0.408592
1406.000000	0.406865
1407.000000	0.405179
1408.000000	0.403452
1409.000000	0.401744
1410.000000	0.400197
1411.000000	0.398693
1412.000000	0.397271
1413.000000	0.396057
1414.000000	0.394982
1415.000000	0.394052
1416.000000	0.393150
1417.000000	0.392291
1418.000000	0.391299
1419.000000	0.390320
1420.000000	0.389464
1421.000000	0.388841
1422.000000	0.388241
1423.000000	0.387680
1424.000000	0.387027
1425.000000	0.386294
1426.000000	0.385599
1427.000000	0.384971
1428.000000	0.384410
1429.000000	0.383879
1430.000000	0.383366
1431.000000	0.382975
1432.000000	0.382470
1433.000000	0.381925
1434.000000	0.381410
1435.000000	0.380993
1436.000000	0.380518
1437.000000	0.380079
1438.000000	0.379556
1439.000000	0.378977
1440.000000	0.378460
1441.000000	0.377888
1442.000000	0.377473
1443.000000	0.377125
1444.000000	0.376740
1445.000000	0.376276
1446.000000	0.375864
1447.000000	0.375344
1448.000000	0.374781
1449.000000	0.374386
1450.000000	0.374011
1451.000000	0.373586
1452.000000	0.372994
1453.000000	0.372345
1454.000000	0.371885
1455.000000	0.371529
1456.000000	0.371332
1457.000000	0.371251
1458.000000	0.371093
1459.000000	0.371023
1460.000000	0.370926
1461.000000	0.370688
1462.000000	0.370484
1463.000000	0.370197
1464.000000	0.370060
1465.000000	0.370167
1466.000000	0.370260
1467.000000	0.370422
1468.000000	0.370611
1469.000000	0.370796
1470.000000	0.370976
1471.000000	0.371271
1472.000000	0.371617
1473.000000	0.372088
1474.000000	0.372525
1475.000000	0.373057
1476.000000	0.373631
1477.000000	0.374174
1478.000000	0.374875
1479.000000	0.375530
1480.000000	0.376176
1481.000000	0.376824
1482.000000	0.377555
1483.000000	0.378259
1484.000000	0.378934
1485.000000	0.379665
1486.000000	0.380394
1487.000000	0.381150
1488.000000	0.382006
1489.000000	0.382768
1490.000000	0.383369
1491.000000	0.384082
1492.000000	0.384730
1493.000000	0.385356
1494.000000	0.385951
1495.000000	0.386536
1496.000000	0.387039
1497.000000	0.387645
1498.000000	0.388388
1499.000000	0.388973
1500.000000	0.389541
1501.000000	0.390100
1502.000000	0.390519
1503.000000	0.391054
1504.000000	0.391591
1505.000000	0.392092
1506.000000	0.392732
1507.000000	0.393304
1508.000000	0.393874
1509.000000	0.394432
1510.000000	0.394850
1511.000000	0.395287
1512.000000	0.395746
1513.000000	0.396209
1514.000000	0.396728
1515.000000	0.397065
1516.000000	0.397338
1517.000000	0.397697
1518.000000	0.398022
1519.000000	0.398272
1520.000000	0.398608
1521.000000	0.398840
1522.000000	0.399030
1523.000000	0.399433
1524.000000	0.399763
1525.000000	0.400061
1526.000000	0.400446
1527.000000	0.400712
1528.000000	0.401001
1529.000000	0.401239
1530.000000	0.401325
1531.000000	0.401609
1532.000000	0.401830
1533.000000	0.401967
1534.000000	0.402199
1535.000000	0.402397
1536.000000	0.402583
1537.000000	0.402861
1538.000000	0.403045
1539.000000	0.403080
1540.000000	0.403200
1541.000000	0.403512
1542.000000	0.403859
1543.000000	0.404235
1544.000000	0.404619
1545.000000	0.404864
1546.000000	0.405049
1547.000000	0.405219
1548.000000	0.405197
1549.000000	0.405142
1550.000000	0.405193
1551.000000	0.405285
1552.000000	0.405534
1553.000000	0.405786
1554.000000	0.405991
1555.000000	0.406152
1556.000000	0.406228
1557.000000	0.406326
1558.000000	0.406354
1559.000000	0.406220
1560.000000	0.406138
1561.000000	0.406038
1562.000000	0.405980
1563.000000	0.405995
1564.000000	0.406041
1565.000000	0.406142
1566.000000	0.406101
1567.000000	0.406166
1568.000000	0.406197
1569.000000	0.406240
1570.000000	0.406282
1571.000000	0.406311
1572.000000	0.406328
1573.000000	0.406308
1574.000000	0.406373
1575.000000	0.406538
1576.000000	0.406669
1577.000000	0.406755
1578.000000	0.406887
1579.000000	0.407170
1580.000000	0.407290
1581.000000	0.407470
1582.000000	0.407570
1583.000000	0.407568
1584.000000	0.407480
1585.000000	0.407410
1586.000000	0.407404
1587.000000	0.407268
1588.000000	0.407240
1589.000000	0.407371
1590.000000	0.407475
1591.000000	0.407619
1592.000000	0.407766
1593.000000	0.408029
1594.000000	0.408107
1595.000000	0.408189
1596.000000	0.408207
1597.000000	0.408061
1598.000000	0.408061
1599.000000	0.408198
1600.000000	0.408169
1601.000000	0.408162
1602.000000	0.408202
1603.000000	0.408185
1604.000000	0.408292
1605.000000	0.408654
1606.000000	0.408810
1607.000000	0.408958
1608.000000	0.409041
1609.000000	0.409053
1610.000000	0.409114
1611.000000	0.409277
1612.000000	0.409327
1613.000000	0.409364
1614.000000	0.409473
1615.000000	0.409676
1616.000000	0.409893
1617.000000	0.410114
1618.000000	0.410351
1619.000000	0.410563
1620.000000	0.410721
1621.000000	0.410953
1622.000000	0.411184
1623.000000	0.411271
1624.000000	0.411462
1625.000000	0.411554
1626.000000	0.411657
1627.000000	0.411794
1628.000000	0.412061
1629.000000	0.412309
1630.000000	0.412681
1631.000000	0.413226
1632.000000	0.413501
1633.000000	0.413689
1634.000000	0.413948
1635.000000	0.414133
1636.000000	0.414397
1637.000000	0.414872
1638.000000	0.415112
1639.000000	0.415282
1640.000000	0.415418
1641.000000	0.415461
1642.000000	0.415667
1643.000000	0.416050
1644.000000	0.416322
1645.000000	0.416615
1646.000000	0.416778
1647.000000	0.416803
1648.000000	0.416996
1649.000000	0.417425
1650.000000	0.417734
1651.000000	0.418083
1652.000000	0.418432
1653.000000	0.418640
1654.000000	0.418919
1655.000000	0.419278
1656.000000	0.419408
1657.000000	0.419431
1658.000000	0.419627
1659.000000	0.419986
1660.000000	0.420234
1661.000000	0.420419
1662.000000	0.420618
1663.000000	0.420684
1664.000000	0.420817
1665.000000	0.421037
1666.000000	0.421317
1667.000000	0.421426
1668.000000	0.421656
1669.000000	0.422008
1670.000000	0.422196
1671.000000	0.422464
1672.000000	0.422781
1673.000000	0.423039
1674.000000	0.423332
1675.000000	0.423693
1676.000000	0.423859
1677.000000	0.423824
1678.000000	0.423700
1679.000000	0.423773
1680.000000	0.423964
1681.000000	0.424243
1682.000000	0.424696
1683.000000	0.425063
1684.000000	0.425312
1685.000000	0.425580
1686.000000	0.425599
1687.000000	0.425593
1688.000000	0.425639
1689.000000	0.425651
1690.000000	0.425614
1691.000000	0.425773
1692.000000	0.425862
1693.000000	0.425917
1694.000000	0.426153
1695.000000	0.426352
1696.000000	0.426379
1697.000000	0.426406
1698.000000	0.426496
1699.000000	0.426570
1700.000000	0.426610
1701.000000	0.426785
1702.000000	0.426732
1703.000000	0.426716
1704.000000	0.426892
1705.000000	0.427061
1706.000000	0.427368
1707.000000	0.427540
1708.000000	0.427602
1709.000000	0.427613
1710.000000	0.427622
1711.000000	0.427673
1712.000000	0.427732
1713.000000	0.427870
1714.000000	0.428138
1715.000000	0.428363
1716.000000	0.428719
1717.000000	0.428900
1718.000000	0.428880
1719.000000	0.428949
1720.000000	0.429090
1721.000000	0.429149
1722.000000	0.429191
1723.000000	0.429259
1724.000000	0.429270
1725.000000	0.429407
1726.000000	0.429534
1727.000000	0.429683
1728.000000	0.429836
1729.000000	0.429834
1730.000000	0.429933
1731.000000	0.430052
1732.000000	0.430124
1733.000000	0.430292
1734.000000	0.430373
1735.000000	0.430506
1736.000000	0.430638
1737.000000	0.430650
1738.000000	0.430630
1739.000000	0.430750
1740.000000	0.430771
1741.000000	0.430918
1742.000000	0.431344
1743.000000	0.431490
1744.000000	0.431466
1745.000000	0.431511
1746.000000	0.431459
1747.000000	0.431668
1748.000000	0.431721
1749.000000	0.431784
1750.000000	0.431755
1751.000000	0.431762
1752.000000	0.431853
1753.000000	0.431744
1754.000000	0.431687
1755.000000	0.431551
1756.000000	0.431469
1757.000000	0.431365
1758.000000	0.431430
1759.000000	0.431672
1760.000000	0.431789
1761.000000	0.431907
1762.000000	0.431994
1763.000000	0.431996
1764.000000	0.432040
1765.000000	0.432134
1766.000000	0.432136
1767.000000	0.431946
1768.000000	0.431779
1769.000000	0.431648
1770.000000	0.431660
1771.000000	0.431686
1772.000000	0.431719
1773.000000	0.431710
1774.000000	0.431866
1775.000000	0.432239
1776.000000	0.432427
1777.000000	0.432662
1778.000000	0.432725
1779.000000	0.432445
1780.000000	0.432615
1781.000000	0.432975
1782.000000	0.433097
1783.000000	0.433345
1784.000000	0.433680
1785.000000	0.433685
1786.000000	0.433937
1787.000000	0.434398
1788.000000	0.434438
1789.000000	0.434278
1790.000000	0.434346
1791.000000	0.434335
1792.000000	0.434573
1793.000000	0.434652
1794.000000	0.434534
1795.000000	0.434592
1796.000000	0.434718
1797.000000	0.434749
1798.000000	0.434741
1799.000000	0.434806
1800.000000	0.434888
1801.000000	0.433814
1802.000000	0.434559
1803.000000	0.436063
1804.000000	0.436589
1805.000000	0.437004
1806.000000	0.437033
1807.000000	0.436006
1808.000000	0.435673
1809.000000	0.435397
1810.000000	0.435393
1811.000000	0.435124
1812.000000	0.434960
1813.000000	0.434990
1814.000000	0.434899
1815.000000	0.435005
1816.000000	0.435731
1817.000000	0.435799
1818.000000	0.435578
1819.000000	0.435539
1820.000000	0.435492
1821.000000	0.435460
1822.000000	0.435391
1823.000000	0.435704
1824.000000	0.435007
1825.000000	0.433216
1826.000000	0.432504
1827.000000	0.431420
1828.000000	0.430677
1829.000000	0.431447
1830.000000	0.431485
1831.000000	0.431759
1832.000000	0.432227
1833.000000	0.432701
1834.000000	0.433455
1835.000000	0.433941
1836.000000	0.434495
1837.000000	0.434422
1838.000000	0.434054
1839.000000	0.432677
1840.000000	0.431449
1841.000000	0.430738
1842.000000	0.429782
1843.000000	0.428675
1844.000000	0.427886
1845.000000	0.427091
1846.000000	0.426350
1847.000000	0.425229
1848.000000	0.425006
1849.000000	0.425077
1850.000000	0.424077
1851.000000	0.423469
1852.000000	0.422947
1853.000000	0.422329
1854.000000	0.421586
1855.000000	0.420536
1856.000000	0.419176
1857.000000	0.417936
1858.000000	0.416291
1859.000000	0.414368
1860.000000	0.412792
1861.000000	0.411325
1862.000000	0.409654
1863.000000	0.408094
1864.000000	0.406508
1865.000000	0.405074
1866.000000	0.403012
1867.000000	0.401024
1868.000000	0.398016
1869.000000	0.394599
1870.000000	0.391301
1871.000000	0.387430
1872.000000	0.383960
1873.000000	0.380157
1874.000000	0.375877
1875.000000	0.371812
1876.000000	0.367767
1877.000000	0.362880
1878.000000	0.358095
1879.000000	0.353162
1880.000000	0.347704
1881.000000	0.342392
1882.000000	0.336825
1883.000000	0.330636
1884.000000	0.324728
1885.000000	0.318602
1886.000000	0.312425
1887.000000	0.306121
1888.000000	0.299754
1889.000000	0.293449
1890.000000	0.287119
1891.000000	0.280329
1892.000000	0.273719
1893.000000	0.267438
1894.000000	0.260851
1895.000000	0.254827
1896.000000	0.249389
1897.000000	0.244607
1898.000000	0.239416
1899.000000	0.234248
1900.000000	0.229797
1901.000000	0.225438
1902.000000	0.220572
1903.000000	0.216695
1904.000000	0.213305
1905.000000	0.209623
1906.000000	0.206722
1907.000000	0.204820
1908.000000	0.203026
1909.000000	0.200940
1910.000000	0.199282
1911.000000	0.197833
1912.000000	0.196954
1913.000000	0.195892
1914.000000	0.195068
1915.000000	0.194359
1916.000000	0.193188
1917.000000	0.192332
1918.000000	0.191805
1919.000000	0.191385
1920.000000	0.191477
1921.000000	0.191606
1922.000000	0.191659
1923.000000	0.192164
1924.000000	0.191344
1925.000000	0.191138
1926.000000	0.191830
1927.000000	0.191815
1928.000000	0.192029
1929.000000	0.192784
1930.000000	0.193074
1931.000000	0.193209
1932.000000	0.193845
1933.000000	0.194406
1934.000000	0.195378
1935.000000	0.195736
1936.000000	0.195704
1937.000000	0.195979
1938.000000	0.195819
1939.000000	0.195779
1940.000000	0.195766
1941.000000	0.195931
1942.000000	0.195963
1943.000000	0.196295
1944.000000	0.196488
1945.000000	0.197039
1946.000000	0.197479
1947.000000	0.196848
1948.000000	0.196593
1949.000000	0.196478
1950.000000	0.196083
1951.000000	0.195886
1952.000000	0.196246
1953.000000	0.196218
1954.000000	0.196237
1955.000000	0.196480
1956.000000	0.196761
1957.000000	0.197213
1958.000000	0.196662
1959.000000	0.196270
1960.000000	0.195842
1961.000000	0.195215
1962.000000	0.195015
1963.000000	0.195417
1964.000000	0.195355
1965.000000	0.195495
1966.000000	0.195571
1967.000000	0.195316
1968.000000	0.195721
1969.000000	0.195639
1970.000000	0.195577
1971.000000	0.196733
1972.000000	0.198057
1973.000000	0.198605
1974.000000	0.199358
1975.000000	0.199892
1976.000000	0.199803
1977.000000	0.199254
1978.000000	0.199774
1979.000000	0.200636
1980.000000	0.201208
1981.000000	0.201777
1982.000000	0.202249
1983.000000	0.202776
1984.000000	0.203172
1985.000000	0.203496
1986.000000	0.204062
1987.000000	0.204801
1988.000000	0.205133
1989.000000	0.205774
1990.000000	0.206626
1991.000000	0.207288
1992.000000	0.208965
1993.000000	0.210749
1994.000000	0.211798
1995.000000	0.213177
1996.000000	0.213898
1997.000000	0.214647
1998.000000	0.215393
1999.000000	0.216326
2000.000000	0.216995
2001.000000	0.217977
2002.000000	0.219440
2003.000000	0.221109
2004.000000	0.222627
2005.000000	0.223296
2006.000000	0.223912
2007.000000	0.224503
2008.000000	0.225431
2009.000000	0.226573
2010.000000	0.227916
2011.000000	0.229631
2012.000000	0.230907
2013.000000	0.231953
2014.000000	0.233062
2015.000000	0.234357
2016.000000	0.235469
2017.000000	0.237151
2018.000000	0.238947
2019.000000	0.240034
2020.000000	0.241234
2021.000000	0.242526
2022.000000	0.243620
2023.000000	0.244730
2024.000000	0.246074
2025.000000	0.247287
2026.000000	0.248174
2027.000000	0.248997
2028.000000	0.250169
2029.000000	0.251881
2030.000000	0.253493
2031.000000	0.255341
2032.000000	0.257421
2033.000000	0.259159
2034.000000	0.260227
2035.000000	0.260733
2036.000000	0.261309
2037.000000	0.261035
2038.000000	0.261614
2039.000000	0.262503
2040.000000	0.264145
2041.000000	0.265515
2042.000000	0.267097
2043.000000	0.268367
2044.000000	0.269424
2045.000000	0.270249
2046.000000	0.270889
2047.000000	0.271700
2048.000000	0.272243
2049.000000	0.273210
2050.000000	0.274151
2051.000000	0.275204
2052.000000	0.276592
2053.000000	0.277504
2054.000000	0.278359
2055.000000	0.279409
2056.000000	0.280290
2057.000000	0.281182
2058.000000	0.282807
2059.000000	0.284113
2060.000000	0.285289
2061.000000	0.286767
2062.000000	0.287522
2063.000000	0.287670
2064.000000	0.288093
2065.000000	0.288354
2066.000000	0.288729
2067.000000	0.289415
2068.000000	0.290284
2069.000000	0.291678
2070.000000	0.292587
2071.000000	0.293504
2072.000000	0.294926
2073.000000	0.295574
2074.000000	0.296397
2075.000000	0.297420
2076.000000	0.298752
2077.000000	0.299730
2078.000000	0.300953
2079.000000	0.301423
2080.000000	0.301131
2081.000000	0.301372
2082.000000	0.301114
2083.000000	0.301680
2084.000000	0.302930
2085.000000	0.304254
2086.000000	0.305414
2087.000000	0.306191
2088.000000	0.306570
2089.000000	0.307556
2090.000000	0.308327
2091.000000	0.309170
2092.000000	0.309849
2093.000000	0.310099
2094.000000	0.311006
2095.000000	0.312522
2096.000000	0.313798
2097.000000	0.315273
2098.000000	0.316649
2099.000000	0.317892
2100.000000	0.318845
2101.000000	0.320302
2102.000000	0.321751
2103.000000	0.322017
2104.000000	0.322358
2105.000000	0.323002
2106.000000	0.323378
2107.000000	0.323974
2108.000000	0.325023
2109.000000	0.325870
2110.000000	0.326553
2111.000000	0.327063
2112.000000	0.327270
2113.000000	0.327762
2114.000000	0.328128
2115.000000	0.327914
2116.000000	0.328866
2117.000000	0.329668
2118.000000	0.330444
2119.000000	0.332172
2120.000000	0.332767
2121.000000	0.332563
2122.000000	0.333052
2123.000000	0.333238
2124.000000	0.333656
2125.000000	0.334796
2126.000000	0.335402
2127.000000	0.335820
2128.000000	0.336100
2129.000000	0.335754
2130.000000	0.336121
2131.000000	0.336523
2132.000000	0.336614
2133.000000	0.337227
2134.000000	0.338230
2135.000000	0.338866
2136.000000	0.338926
2137.000000	0.339098
2138.000000	0.338979
2139.000000	0.339279
2140.000000	0.339745
2141.000000	0.340143
2142.000000	0.340803
2143.000000	0.340980
2144.000000	0.340842
2145.000000	0.341224
2146.000000	0.341831
2147.000000	0.342809
2148.000000	0.344180
2149.000000	0.344721
2150.000000	0.344210
2151.000000	0.343973
2152.000000	0.343610
2153.000000	0.342388
2154.000000	0.341891
2155.000000	0.341940
2156.000000	0.341971
2157.000000	0.341985
2158.000000	0.342518
2159.000000	0.344089
2160.000000	0.344455
2161.000000	0.344313
2162.000000	0.344561
2163.000000	0.344021
2164.000000	0.343968
2165.000000	0.344555
2166.000000	0.344929
2167.000000	0.345195
2168.000000	0.345092
2169.000000	0.344546
2170.000000	0.343761
2171.000000	0.343887
2172.000000	0.344650
2173.000000	0.344527
2174.000000	0.344437
2175.000000	0.344732
2176.000000	0.344610
2177.000000	0.344428
2178.000000	0.345457
2179.000000	0.345530
2180.000000	0.344087
2181.000000	0.343609
2182.000000	0.343074
2183.000000	0.341811
2184.000000	0.340706
2185.000000	0.339998
2186.000000	0.339825
2187.000000	0.340914
2188.000000	0.342845
2189.000000	0.343305
2190.000000	0.343056
2191.000000	0.343131
2192.000000	0.341951
2193.000000	0.338761
2194.000000	0.337618
2195.000000	0.336421
2196.000000	0.335756
2197.000000	0.336245
2198.000000	0.337300
2199.000000	0.339520
2200.000000	0.341168
2201.000000	0.344028
2202.000000	0.345657
2203.000000	0.346122
2204.000000	0.345814
2205.000000	0.345174
2206.000000	0.344921
2207.000000	0.342679
2208.000000	0.340513
2209.000000	0.340430
2210.000000	0.339956
2211.000000	0.339773
2212.000000	0.341480
2213.000000	0.341900
2214.000000	0.341230
2215.000000	0.341238
2216.000000	0.341301
2217.000000	0.341494
2218.000000	0.341487
2219.000000	0.341240
2220.000000	0.341611
2221.000000	0.342003
2222.000000	0.342331
2223.000000	0.342372
2224.000000	0.342652
2225.000000	0.341966
2226.000000	0.341727
2227.000000	0.341044
2228.000000	0.340550
2229.000000	0.340706
2230.000000	0.340105
2231.000000	0.339476
2232.000000	0.337375
2233.000000	0.335702
2234.000000	0.336892
2235.000000	0.335563
2236.000000	0.336075
2237.000000	0.339755
2238.000000	0.340670
2239.000000	0.340257
2240.000000	0.340869
2241.000000	0.341144
2242.000000	0.341153
2243.000000	0.340504
2244.000000	0.341192
2245.000000	0.343174
2246.000000	0.342920
2247.000000	0.343666
2248.000000	0.342308
2249.000000	0.336571
2250.000000	0.334286
2251.000000	0.334092
2252.000000	0.331732
2253.000000	0.333399
2254.000000	0.336144
2255.000000	0.337926
2256.000000	0.340509
2257.000000	0.341613
2258.000000	0.339944
2259.000000	0.338996
2260.000000	0.338447
2261.000000	0.338063
2262.000000	0.340207
2263.000000	0.338612
2264.000000	0.334108
2265.000000	0.332108
2266.000000	0.328246
2267.000000	0.327172
2268.000000	0.329655
2269.000000	0.329807
2270.000000	0.330510
2271.000000	0.329243
2272.000000	0.325752
2273.000000	0.324148
2274.000000	0.321895
2275.000000	0.321150
2276.000000	0.322281
2277.000000	0.322850
2278.000000	0.322160
2279.000000	0.319404
2280.000000	0.315582
2281.000000	0.310935
2282.000000	0.308310
2283.000000	0.306644
2284.000000	0.305677
2285.000000	0.305468
2286.000000	0.305236
2287.000000	0.304978
2288.000000	0.304667
2289.000000	0.303768
2290.000000	0.301674
2291.000000	0.301329
2292.000000	0.301130
2293.000000	0.299382
2294.000000	0.297993
2295.000000	0.296986
2296.000000	0.294591
2297.000000	0.291671
2298.000000	0.288793
2299.000000	0.284379
2300.000000	0.281636
2301.000000	0.279197
2302.000000	0.276825
2303.000000	0.275915
2304.000000	0.273688
2305.000000	0.271585
2306.000000	0.268340
2307.000000	0.262875
2308.000000	0.259737
2309.000000	0.258452
2310.000000	0.255999
2311.000000	0.258363
2312.000000	0.259397
2313.000000	0.258036
2314.000000	0.257964
2315.000000	0.255754
2316.000000	0.254789
2317.000000	0.254685
2318.000000	0.255937
2319.000000	0.256947
2320.000000	0.258951
2321.000000	0.263477
2322.000000	0.266015
2323.000000	0.271230
2324.000000	0.275110
2325.000000	0.274038
2326.000000	0.273005
2327.000000	0.271107
2328.000000	0.270135
2329.000000	0.272972
2330.000000	0.275624
2331.000000	0.275173
2332.000000	0.274713
2333.000000	0.272641
2334.000000	0.270637
2335.000000	0.271134
2336.000000	0.274583
2337.000000	0.274915
2338.000000	0.275573
2339.000000	0.274919
2340.000000	0.271361
2341.000000	0.270223
2342.000000	0.270569
2343.000000	0.269364
2344.000000	0.268490
2345.000000	0.266344
2346.000000	0.262307
2347.000000	0.259798
2348.000000	0.257648
2349.000000	0.254453
2350.000000	0.253734
2351.000000	0.251317
2352.000000	0.250589
2353.000000	0.251600
2354.000000	0.248421
2355.000000	0.246450
2356.000000	0.243411
2357.000000	0.239147
2358.000000	0.238969
2359.000000	0.237100
2360.000000	0.237107
2361.000000	0.240805
2362.000000	0.241905
2363.000000	0.247034
2364.000000	0.251061
2365.000000	0.249910
2366.000000	0.249511
2367.000000	0.244612
2368.000000	0.235300
2369.000000	0.230797
2370.000000	0.227920
2371.000000	0.226501
2372.000000	0.229063
2373.000000	0.224738
2374.000000	0.221226
2375.000000	0.223281
2376.000000	0.224075
2377.000000	0.230820
2378.000000	0.233823
2379.000000	0.226246
2380.000000	0.218691
2381.000000	0.210541
2382.000000	0.204690
2383.000000	0.207619
2384.000000	0.216524
2385.000000	0.221562
2386.000000	0.221000
2387.000000	0.216650
2388.000000	0.207722
2389.000000	0.201818
2390.000000	0.201597
2391.000000	0.203413
2392.000000	0.206348
2393.000000	0.210863
2394.000000	0.211831
2395.000000	0.212551
2396.000000	0.216194
2397.000000	0.214965
2398.000000	0.213358
2399.000000	0.211753
2400.000000	0.203090
2401.000000	0.194837
2402.000000	0.190423
2403.000000	0.183875
2404.000000	0.182979
2405.000000	0.186881
2406.000000	0.189467
2407.000000	0.189306
2408.000000	0.184968
2409.000000	0.186327
2410.000000	0.185781
2411.000000	0.188734
2412.000000	0.199997
2413.000000	0.203844
2414.000000	0.208867
2415.000000	0.212355
2416.000000	0.212161
2417.000000	0.210609
2418.000000	0.198327
2419.000000	0.186339
2420.000000	0.182414
2421.000000	0.181568
2422.000000	0.185638
2423.000000	0.195930
2424.000000	0.204164
2425.000000	0.201333
2426.000000	0.193369
2427.000000	0.189000
2428.000000	0.176774
2429.000000	0.170340
2430.000000	0.181541
2431.000000	0.182807
2432.000000	0.181654
2433.000000	0.187241
2434.000000	0.185998
2435.000000	0.183677
2436.000000	0.186002
2437.000000	0.181599
2438.000000	0.164182
2439.000000	0.152290
2440.000000	0.141258
2441.000000	0.138784
2442.000000	0.145071
2443.000000	0.139538
2444.000000	0.143464
2445.000000	0.138724
2446.000000	0.130945
2447.000000	0.140844
2448.000000	0.157154
2449.000000	0.179188
2450.000000	0.188100
2451.000000	0.201434
2452.000000	0.196219
2453.000000	0.165531
2454.000000	0.159368
2455.000000	0.147012
2456.000000	0.137551
2457.000000	0.149525
2458.000000	0.148698
2459.000000	0.140807
2460.000000	0.138898
2461.000000	0.124404
2462.000000	0.124311
2463.000000	0.146645
2464.000000	0.165143
2465.000000	0.191844
2466.000000	0.195629
2467.000000	0.171285
2468.000000	0.145700
2469.000000	0.119617
2470.000000	0.116332
2471.000000	0.127838
2472.000000	0.141259
2473.000000	0.155816
2474.000000	0.157936
2475.000000	0.164351
2476.000000	0.164610
2477.000000	0.170771
2478.000000	0.181642
2479.000000	0.166886
2480.000000	0.155761
2481.000000	0.142407
2482.000000	0.140615
2483.000000	0.163077
2484.000000	0.177458
2485.000000	0.204034
2486.000000	0.208480
2487.000000	0.197203
2488.000000	0.205539
2489.000000	0.153957
2490.000000	0.077797
2491.000000	0.084100
2492.000000	0.077881
2493.000000	0.125462
2494.000000	0.147057
2495.000000	0.142632
2496.000000	0.119623
2497.000000	0.055600
2498.000000	0.043479
2499.000000	0.038016
2500.000000	0.047872
