# Wavelength	SM1200H-50_HEX-10_FV7-40_00000.asd.rts.txt
350.000000	0.287779
351.000000	0.276956
352.000000	0.278975
353.000000	0.276302
354.000000	0.266376
355.000000	0.270936
356.000000	0.274260
357.000000	0.273708
358.000000	0.269728
359.000000	0.267737
360.000000	0.268400
361.000000	0.270379
362.000000	0.272541
363.000000	0.278119
364.000000	0.285116
365.000000	0.279912
366.000000	0.279937
367.000000	0.283888
368.000000	0.274821
369.000000	0.273717
370.000000	0.277359
371.000000	0.276736
372.000000	0.278191
373.000000	0.280431
374.000000	0.283039
375.000000	0.288331
376.000000	0.286605
377.000000	0.280858
378.000000	0.287078
379.000000	0.284506
380.000000	0.279241
381.000000	0.284355
382.000000	0.284755
383.000000	0.283745
384.000000	0.285054
385.000000	0.286656
386.000000	0.288141
387.000000	0.289165
388.000000	0.288840
389.000000	0.289184
390.000000	0.289701
391.000000	0.289011
392.000000	0.291211
393.000000	0.292324
394.000000	0.290158
395.000000	0.291568
396.000000	0.293554
397.000000	0.294526
398.000000	0.294958
399.000000	0.293899
400.000000	0.292886
401.000000	0.294140
402.000000	0.294302
403.000000	0.294145
404.000000	0.294726
405.000000	0.294032
406.000000	0.294166
407.000000	0.295529
408.000000	0.295247
409.000000	0.295645
410.000000	0.296589
411.000000	0.296590
412.000000	0.296916
413.000000	0.297430
414.000000	0.297831
415.000000	0.298654
416.000000	0.298966
417.000000	0.298625
418.000000	0.299488
419.000000	0.299866
420.000000	0.299604
421.000000	0.299770
422.000000	0.300155
423.000000	0.300439
424.000000	0.300442
425.000000	0.300985
426.000000	0.301551
427.000000	0.301704
428.000000	0.301790
429.000000	0.302244
430.000000	0.302948
431.000000	0.303000
432.000000	0.302938
433.000000	0.302852
434.000000	0.302824
435.000000	0.303105
436.000000	0.303594
437.000000	0.304040
438.000000	0.303988
439.000000	0.304036
440.000000	0.304515
441.000000	0.304799
442.000000	0.305021
443.000000	0.305124
444.000000	0.305151
445.000000	0.305264
446.000000	0.305768
447.000000	0.306600
448.000000	0.306706
449.000000	0.306670
450.000000	0.306992
451.000000	0.307445
452.000000	0.307846
453.000000	0.308068
454.000000	0.308332
455.000000	0.308417
456.000000	0.308533
457.000000	0.308817
458.000000	0.309075
459.000000	0.309336
460.000000	0.309685
461.000000	0.309928
462.000000	0.310209
463.000000	0.310438
464.000000	0.310741
465.000000	0.311043
466.000000	0.311178
467.000000	0.311085
468.000000	0.311371
469.000000	0.311670
470.000000	0.311704
471.000000	0.312160
472.000000	0.312453
473.000000	0.312356
474.000000	0.312765
475.000000	0.312916
476.000000	0.312850
477.000000	0.313034
478.000000	0.313198
479.000000	0.313498
480.000000	0.313788
481.000000	0.313829
482.000000	0.313927
483.000000	0.314125
484.000000	0.314530
485.000000	0.314689
486.000000	0.314714
487.000000	0.315036
488.000000	0.315414
489.000000	0.315773
490.000000	0.316091
491.000000	0.316356
492.000000	0.316629
493.000000	0.316829
494.000000	0.317099
495.000000	0.317440
496.000000	0.317766
497.000000	0.318015
498.000000	0.318215
499.000000	0.318459
500.000000	0.318689
501.000000	0.318889
502.000000	0.319121
503.000000	0.319375
504.000000	0.319769
505.000000	0.320117
506.000000	0.320258
507.000000	0.320349
508.000000	0.320582
509.000000	0.320963
510.000000	0.321335
511.000000	0.321613
512.000000	0.321851
513.000000	0.322152
514.000000	0.322446
515.000000	0.322798
516.000000	0.323201
517.000000	0.323437
518.000000	0.323734
519.000000	0.324133
520.000000	0.324380
521.000000	0.324580
522.000000	0.324822
523.000000	0.325173
524.000000	0.325463
525.000000	0.325689
526.000000	0.325987
527.000000	0.326280
528.000000	0.326580
529.000000	0.326955
530.000000	0.327231
531.000000	0.327465
532.000000	0.327642
533.000000	0.327948
534.000000	0.328276
535.000000	0.328553
536.000000	0.328783
537.000000	0.329004
538.000000	0.329223
539.000000	0.329427
540.000000	0.329652
541.000000	0.329863
542.000000	0.330076
543.000000	0.330344
544.000000	0.330618
545.000000	0.330820
546.000000	0.331123
547.000000	0.331443
548.000000	0.331794
549.000000	0.332138
550.000000	0.332387
551.000000	0.332654
552.000000	0.333008
553.000000	0.333244
554.000000	0.333478
555.000000	0.333807
556.000000	0.334154
557.000000	0.334430
558.000000	0.334766
559.000000	0.335146
560.000000	0.335415
561.000000	0.335678
562.000000	0.335986
563.000000	0.336254
564.000000	0.336531
565.000000	0.336769
566.000000	0.337134
567.000000	0.337535
568.000000	0.337874
569.000000	0.338155
570.000000	0.338419
571.000000	0.338685
572.000000	0.338996
573.000000	0.339337
574.000000	0.339679
575.000000	0.340043
576.000000	0.340287
577.000000	0.340521
578.000000	0.340886
579.000000	0.341120
580.000000	0.341351
581.000000	0.341633
582.000000	0.341916
583.000000	0.342159
584.000000	0.342380
585.000000	0.342638
586.000000	0.342880
587.000000	0.343150
588.000000	0.343491
589.000000	0.343775
590.000000	0.344019
591.000000	0.344254
592.000000	0.344519
593.000000	0.344772
594.000000	0.344997
595.000000	0.345216
596.000000	0.345405
597.000000	0.345616
598.000000	0.345807
599.000000	0.345973
600.000000	0.346194
601.000000	0.346435
602.000000	0.346675
603.000000	0.346800
604.000000	0.346842
605.000000	0.347070
606.000000	0.347245
607.000000	0.347368
608.000000	0.347569
609.000000	0.347659
610.000000	0.347748
611.000000	0.347972
612.000000	0.348083
613.000000	0.348168
614.000000	0.348343
615.000000	0.348553
616.000000	0.348721
617.000000	0.348844
618.000000	0.349123
619.000000	0.349363
620.000000	0.349474
621.000000	0.349495
622.000000	0.349548
623.000000	0.349672
624.000000	0.349845
625.000000	0.349919
626.000000	0.350019
627.000000	0.350202
628.000000	0.350424
629.000000	0.350650
630.000000	0.350758
631.000000	0.350923
632.000000	0.351018
633.000000	0.351071
634.000000	0.351115
635.000000	0.351154
636.000000	0.351296
637.000000	0.351530
638.000000	0.351672
639.000000	0.351799
640.000000	0.351982
641.000000	0.352106
642.000000	0.352255
643.000000	0.352444
644.000000	0.352650
645.000000	0.352718
646.000000	0.352788
647.000000	0.352939
648.000000	0.353109
649.000000	0.353295
650.000000	0.353452
651.000000	0.353546
652.000000	0.353653
653.000000	0.353824
654.000000	0.353991
655.000000	0.354060
656.000000	0.354187
657.000000	0.354423
658.000000	0.354559
659.000000	0.354731
660.000000	0.354953
661.000000	0.355072
662.000000	0.355173
663.000000	0.355322
664.000000	0.355457
665.000000	0.355575
666.000000	0.355709
667.000000	0.355852
668.000000	0.355956
669.000000	0.356090
670.000000	0.356267
671.000000	0.356326
672.000000	0.356452
673.000000	0.356636
674.000000	0.356738
675.000000	0.356830
676.000000	0.356951
677.000000	0.357136
678.000000	0.357293
679.000000	0.357465
680.000000	0.357673
681.000000	0.357804
682.000000	0.357988
683.000000	0.358161
684.000000	0.358333
685.000000	0.358468
686.000000	0.358591
687.000000	0.358685
688.000000	0.358797
689.000000	0.358908
690.000000	0.359046
691.000000	0.359221
692.000000	0.359356
693.000000	0.359506
694.000000	0.359671
695.000000	0.359847
696.000000	0.359989
697.000000	0.360051
698.000000	0.360178
699.000000	0.360339
700.000000	0.360500
701.000000	0.360677
702.000000	0.360853
703.000000	0.360992
704.000000	0.361102
705.000000	0.361245
706.000000	0.361378
707.000000	0.361518
708.000000	0.361663
709.000000	0.361822
710.000000	0.362015
711.000000	0.362191
712.000000	0.362308
713.000000	0.362404
714.000000	0.362559
715.000000	0.362730
716.000000	0.362894
717.000000	0.363009
718.000000	0.363159
719.000000	0.363302
720.000000	0.363426
721.000000	0.363636
722.000000	0.363783
723.000000	0.363887
724.000000	0.363981
725.000000	0.364014
726.000000	0.364075
727.000000	0.364111
728.000000	0.364152
729.000000	0.364226
730.000000	0.364303
731.000000	0.364475
732.000000	0.364612
733.000000	0.364721
734.000000	0.364840
735.000000	0.364895
736.000000	0.365033
737.000000	0.365173
738.000000	0.365255
739.000000	0.365350
740.000000	0.365339
741.000000	0.365418
742.000000	0.365532
743.000000	0.365610
744.000000	0.365664
745.000000	0.365684
746.000000	0.365746
747.000000	0.365823
748.000000	0.365870
749.000000	0.365942
750.000000	0.366034
751.000000	0.366122
752.000000	0.366196
753.000000	0.366271
754.000000	0.366359
755.000000	0.366490
756.000000	0.366618
757.000000	0.366642
758.000000	0.366696
759.000000	0.366802
760.000000	0.366860
761.000000	0.366863
762.000000	0.366917
763.000000	0.366978
764.000000	0.367004
765.000000	0.367098
766.000000	0.367207
767.000000	0.367259
768.000000	0.367306
769.000000	0.367353
770.000000	0.367399
771.000000	0.367405
772.000000	0.367541
773.000000	0.367661
774.000000	0.367666
775.000000	0.367714
776.000000	0.367793
777.000000	0.367843
778.000000	0.367829
779.000000	0.367787
780.000000	0.367746
781.000000	0.367700
782.000000	0.367701
783.000000	0.367826
784.000000	0.367924
785.000000	0.368012
786.000000	0.368041
787.000000	0.368010
788.000000	0.368029
789.000000	0.368094
790.000000	0.368148
791.000000	0.368167
792.000000	0.368265
793.000000	0.368372
794.000000	0.368432
795.000000	0.368520
796.000000	0.368591
797.000000	0.368625
798.000000	0.368633
799.000000	0.368595
800.000000	0.368550
801.000000	0.368541
802.000000	0.368495
803.000000	0.368500
804.000000	0.368592
805.000000	0.368534
806.000000	0.368454
807.000000	0.368446
808.000000	0.368411
809.000000	0.368365
810.000000	0.368372
811.000000	0.368427
812.000000	0.368368
813.000000	0.368311
814.000000	0.368292
815.000000	0.368303
816.000000	0.368292
817.000000	0.368260
818.000000	0.368149
819.000000	0.368181
820.000000	0.368255
821.000000	0.368252
822.000000	0.368218
823.000000	0.368209
824.000000	0.368135
825.000000	0.368022
826.000000	0.367985
827.000000	0.367944
828.000000	0.367915
829.000000	0.367993
830.000000	0.367974
831.000000	0.367901
832.000000	0.367756
833.000000	0.367643
834.000000	0.367593
835.000000	0.367621
836.000000	0.367572
837.000000	0.367447
838.000000	0.367336
839.000000	0.367340
840.000000	0.367364
841.000000	0.367376
842.000000	0.367321
843.000000	0.367238
844.000000	0.367210
845.000000	0.367174
846.000000	0.367000
847.000000	0.366838
848.000000	0.366733
849.000000	0.366724
850.000000	0.366742
851.000000	0.366647
852.000000	0.366511
853.000000	0.366562
854.000000	0.366501
855.000000	0.366488
856.000000	0.366542
857.000000	0.366397
858.000000	0.366305
859.000000	0.366272
860.000000	0.366148
861.000000	0.365986
862.000000	0.365869
863.000000	0.365790
864.000000	0.365788
865.000000	0.365727
866.000000	0.365613
867.000000	0.365645
868.000000	0.365620
869.000000	0.365466
870.000000	0.365309
871.000000	0.365163
872.000000	0.364988
873.000000	0.364745
874.000000	0.364660
875.000000	0.364599
876.000000	0.364543
877.000000	0.364412
878.000000	0.364005
879.000000	0.363677
880.000000	0.363501
881.000000	0.363534
882.000000	0.363558
883.000000	0.363467
884.000000	0.363167
885.000000	0.362943
886.000000	0.362742
887.000000	0.362539
888.000000	0.362309
889.000000	0.362119
890.000000	0.361896
891.000000	0.361775
892.000000	0.361599
893.000000	0.361444
894.000000	0.361401
895.000000	0.361070
896.000000	0.360826
897.000000	0.360687
898.000000	0.360535
899.000000	0.360230
900.000000	0.359968
901.000000	0.359798
902.000000	0.359703
903.000000	0.359602
904.000000	0.359471
905.000000	0.359209
906.000000	0.359012
907.000000	0.358898
908.000000	0.358868
909.000000	0.358706
910.000000	0.358559
911.000000	0.358406
912.000000	0.358223
913.000000	0.358050
914.000000	0.357760
915.000000	0.357490
916.000000	0.357366
917.000000	0.357207
918.000000	0.357004
919.000000	0.356775
920.000000	0.356633
921.000000	0.356444
922.000000	0.356221
923.000000	0.356007
924.000000	0.355683
925.000000	0.355346
926.000000	0.355071
927.000000	0.354715
928.000000	0.354472
929.000000	0.354265
930.000000	0.353967
931.000000	0.353642
932.000000	0.353504
933.000000	0.353449
934.000000	0.352926
935.000000	0.352613
936.000000	0.352450
937.000000	0.352158
938.000000	0.351857
939.000000	0.351733
940.000000	0.351574
941.000000	0.351166
942.000000	0.350799
943.000000	0.350523
944.000000	0.350204
945.000000	0.349957
946.000000	0.349569
947.000000	0.349210
948.000000	0.349008
949.000000	0.348677
950.000000	0.348400
951.000000	0.348212
952.000000	0.348124
953.000000	0.348030
954.000000	0.347977
955.000000	0.347889
956.000000	0.347631
957.000000	0.347304
958.000000	0.346956
959.000000	0.346745
960.000000	0.346612
961.000000	0.346328
962.000000	0.345976
963.000000	0.346057
964.000000	0.345851
965.000000	0.345543
966.000000	0.345268
967.000000	0.344995
968.000000	0.344719
969.000000	0.344425
970.000000	0.344228
971.000000	0.343982
972.000000	0.343634
973.000000	0.343222
974.000000	0.343080
975.000000	0.342821
976.000000	0.342654
977.000000	0.342691
978.000000	0.342399
979.000000	0.342355
980.000000	0.342185
981.000000	0.341777
982.000000	0.341579
983.000000	0.341284
984.000000	0.340960
985.000000	0.340920
986.000000	0.340954
987.000000	0.340801
988.000000	0.340323
989.000000	0.340155
990.000000	0.339987
991.000000	0.339661
992.000000	0.339268
993.000000	0.339488
994.000000	0.339625
995.000000	0.339607
996.000000	0.339433
997.000000	0.339449
998.000000	0.339121
999.000000	0.338542
1000.000000	0.338559
1001.000000	0.339119
1002.000000	0.338987
1003.000000	0.338116
1004.000000	0.337776
1005.000000	0.337776
1006.000000	0.337497
1007.000000	0.337199
1008.000000	0.337166
1009.000000	0.336906
1010.000000	0.336465
1011.000000	0.336289
1012.000000	0.336578
1013.000000	0.336683
1014.000000	0.336266
1015.000000	0.336410
1016.000000	0.336716
1017.000000	0.336232
1018.000000	0.335998
1019.000000	0.335939
1020.000000	0.335642
1021.000000	0.335185
1022.000000	0.335174
1023.000000	0.335553
1024.000000	0.335786
1025.000000	0.336140
1026.000000	0.336740
1027.000000	0.336855
1028.000000	0.336307
1029.000000	0.335564
1030.000000	0.335395
1031.000000	0.335634
1032.000000	0.335460
1033.000000	0.335616
1034.000000	0.335639
1035.000000	0.335134
1036.000000	0.335167
1037.000000	0.335897
1038.000000	0.335895
1039.000000	0.335856
1040.000000	0.335650
1041.000000	0.335480
1042.000000	0.335603
1043.000000	0.335725
1044.000000	0.336348
1045.000000	0.336746
1046.000000	0.336692
1047.000000	0.337027
1048.000000	0.337757
1049.000000	0.337783
1050.000000	0.337487
1051.000000	0.337392
1052.000000	0.336790
1053.000000	0.336592
1054.000000	0.337068
1055.000000	0.337359
1056.000000	0.337847
1057.000000	0.337893
1058.000000	0.337838
1059.000000	0.337684
1060.000000	0.337557
1061.000000	0.337979
1062.000000	0.338479
1063.000000	0.338621
1064.000000	0.338817
1065.000000	0.338651
1066.000000	0.338896
1067.000000	0.339521
1068.000000	0.339643
1069.000000	0.339551
1070.000000	0.339644
1071.000000	0.339353
1072.000000	0.339430
1073.000000	0.340052
1074.000000	0.340553
1075.000000	0.340611
1076.000000	0.341208
1077.000000	0.341268
1078.000000	0.341068
1079.000000	0.341163
1080.000000	0.341162
1081.000000	0.341434
1082.000000	0.342368
1083.000000	0.342638
1084.000000	0.342535
1085.000000	0.342866
1086.000000	0.343172
1087.000000	0.343362
1088.000000	0.343729
1089.000000	0.344021
1090.000000	0.344064
1091.000000	0.343977
1092.000000	0.344211
1093.000000	0.344646
1094.000000	0.344903
1095.000000	0.345070
1096.000000	0.345188
1097.000000	0.345283
1098.000000	0.345343
1099.000000	0.345060
1100.000000	0.345286
1101.000000	0.345829
1102.000000	0.346063
1103.000000	0.346288
1104.000000	0.346652
1105.000000	0.347023
1106.000000	0.347196
1107.000000	0.347411
1108.000000	0.347552
1109.000000	0.347612
1110.000000	0.347303
1111.000000	0.347368
1112.000000	0.347647
1113.000000	0.347812
1114.000000	0.347997
1115.000000	0.348183
1116.000000	0.348418
1117.000000	0.348554
1118.000000	0.348604
1119.000000	0.348672
1120.000000	0.348630
1121.000000	0.348735
1122.000000	0.349222
1123.000000	0.349532
1124.000000	0.349382
1125.000000	0.349530
1126.000000	0.349531
1127.000000	0.349602
1128.000000	0.349776
1129.000000	0.350265
1130.000000	0.350561
1131.000000	0.350903
1132.000000	0.350966
1133.000000	0.350943
1134.000000	0.351010
1135.000000	0.350863
1136.000000	0.350794
1137.000000	0.350841
1138.000000	0.350807
1139.000000	0.350626
1140.000000	0.350783
1141.000000	0.351183
1142.000000	0.351420
1143.000000	0.351789
1144.000000	0.352040
1145.000000	0.351967
1146.000000	0.351711
1147.000000	0.351566
1148.000000	0.351115
1149.000000	0.351155
1150.000000	0.351512
1151.000000	0.351629
1152.000000	0.351853
1153.000000	0.351939
1154.000000	0.351636
1155.000000	0.351681
1156.000000	0.352027
1157.000000	0.352129
1158.000000	0.352124
1159.000000	0.352223
1160.000000	0.352281
1161.000000	0.352259
1162.000000	0.352372
1163.000000	0.352521
1164.000000	0.352538
1165.000000	0.352430
1166.000000	0.352462
1167.000000	0.352544
1168.000000	0.352563
1169.000000	0.352611
1170.000000	0.352647
1171.000000	0.352736
1172.000000	0.352780
1173.000000	0.352782
1174.000000	0.352712
1175.000000	0.352443
1176.000000	0.352361
1177.000000	0.352496
1178.000000	0.352463
1179.000000	0.352451
1180.000000	0.352378
1181.000000	0.352254
1182.000000	0.352071
1183.000000	0.352173
1184.000000	0.352287
1185.000000	0.352309
1186.000000	0.352331
1187.000000	0.352339
1188.000000	0.352275
1189.000000	0.352239
1190.000000	0.352338
1191.000000	0.352276
1192.000000	0.352122
1193.000000	0.352272
1194.000000	0.352484
1195.000000	0.352482
1196.000000	0.352424
1197.000000	0.352428
1198.000000	0.352256
1199.000000	0.352212
1200.000000	0.352325
1201.000000	0.352489
1202.000000	0.352455
1203.000000	0.352344
1204.000000	0.352299
1205.000000	0.352220
1206.000000	0.352166
1207.000000	0.352273
1208.000000	0.352228
1209.000000	0.352170
1210.000000	0.352156
1211.000000	0.352121
1212.000000	0.352129
1213.000000	0.352235
1214.000000	0.352319
1215.000000	0.352372
1216.000000	0.352426
1217.000000	0.352496
1218.000000	0.352517
1219.000000	0.352609
1220.000000	0.352544
1221.000000	0.352484
1222.000000	0.352442
1223.000000	0.352343
1224.000000	0.352343
1225.000000	0.352262
1226.000000	0.352303
1227.000000	0.352396
1228.000000	0.352417
1229.000000	0.352357
1230.000000	0.352203
1231.000000	0.352061
1232.000000	0.351961
1233.000000	0.351996
1234.000000	0.352146
1235.000000	0.352164
1236.000000	0.351991
1237.000000	0.352013
1238.000000	0.352079
1239.000000	0.352074
1240.000000	0.352130
1241.000000	0.352163
1242.000000	0.352021
1243.000000	0.351862
1244.000000	0.351841
1245.000000	0.351822
1246.000000	0.351777
1247.000000	0.351901
1248.000000	0.351988
1249.000000	0.352069
1250.000000	0.352239
1251.000000	0.352219
1252.000000	0.352173
1253.000000	0.352076
1254.000000	0.351988
1255.000000	0.351794
1256.000000	0.351749
1257.000000	0.351790
1258.000000	0.351831
1259.000000	0.351922
1260.000000	0.351983
1261.000000	0.351889
1262.000000	0.351885
1263.000000	0.351981
1264.000000	0.351938
1265.000000	0.351972
1266.000000	0.352072
1267.000000	0.352073
1268.000000	0.352055
1269.000000	0.351992
1270.000000	0.351939
1271.000000	0.351680
1272.000000	0.351521
1273.000000	0.351512
1274.000000	0.351404
1275.000000	0.351352
1276.000000	0.351458
1277.000000	0.351508
1278.000000	0.351434
1279.000000	0.351391
1280.000000	0.351294
1281.000000	0.351232
1282.000000	0.351210
1283.000000	0.351225
1284.000000	0.351206
1285.000000	0.351267
1286.000000	0.351393
1287.000000	0.351352
1288.000000	0.351365
1289.000000	0.351347
1290.000000	0.351201
1291.000000	0.351152
1292.000000	0.351219
1293.000000	0.351191
1294.000000	0.351058
1295.000000	0.351021
1296.000000	0.351013
1297.000000	0.350987
1298.000000	0.351070
1299.000000	0.351026
1300.000000	0.350916
1301.000000	0.350856
1302.000000	0.350746
1303.000000	0.350735
1304.000000	0.350693
1305.000000	0.350782
1306.000000	0.350690
1307.000000	0.350508
1308.000000	0.350481
1309.000000	0.350495
1310.000000	0.350441
1311.000000	0.350519
1312.000000	0.350424
1313.000000	0.350113
1314.000000	0.349942
1315.000000	0.349971
1316.000000	0.350045
1317.000000	0.350139
1318.000000	0.350137
1319.000000	0.349949
1320.000000	0.349876
1321.000000	0.349946
1322.000000	0.349988
1323.000000	0.349993
1324.000000	0.350081
1325.000000	0.349987
1326.000000	0.349741
1327.000000	0.349513
1328.000000	0.349289
1329.000000	0.349123
1330.000000	0.349030
1331.000000	0.348937
1332.000000	0.349019
1333.000000	0.348912
1334.000000	0.348725
1335.000000	0.348650
1336.000000	0.348535
1337.000000	0.348473
1338.000000	0.348412
1339.000000	0.348421
1340.000000	0.348307
1341.000000	0.348195
1342.000000	0.348090
1343.000000	0.347874
1344.000000	0.347925
1345.000000	0.347948
1346.000000	0.347828
1347.000000	0.347675
1348.000000	0.347495
1349.000000	0.347256
1350.000000	0.347084
1351.000000	0.346967
1352.000000	0.346792
1353.000000	0.346602
1354.000000	0.346594
1355.000000	0.346567
1356.000000	0.346561
1357.000000	0.346476
1358.000000	0.346422
1359.000000	0.346416
1360.000000	0.346327
1361.000000	0.346302
1362.000000	0.346130
1363.000000	0.345724
1364.000000	0.345562
1365.000000	0.345400
1366.000000	0.345250
1367.000000	0.345257
1368.000000	0.345111
1369.000000	0.344892
1370.000000	0.344628
1371.000000	0.344313
1372.000000	0.344010
1373.000000	0.343703
1374.000000	0.343385
1375.000000	0.342912
1376.000000	0.342391
1377.000000	0.341678
1378.000000	0.340667
1379.000000	0.339521
1380.000000	0.338184
1381.000000	0.336640
1382.000000	0.334966
1383.000000	0.333087
1384.000000	0.331088
1385.000000	0.329229
1386.000000	0.327623
1387.000000	0.326200
1388.000000	0.325114
1389.000000	0.324390
1390.000000	0.323687
1391.000000	0.323192
1392.000000	0.323045
1393.000000	0.323000
1394.000000	0.323204
1395.000000	0.323486
1396.000000	0.324043
1397.000000	0.324308
1398.000000	0.324542
1399.000000	0.324593
1400.000000	0.324513
1401.000000	0.324214
1402.000000	0.323765
1403.000000	0.323298
1404.000000	0.322664
1405.000000	0.322122
1406.000000	0.321718
1407.000000	0.321254
1408.000000	0.320791
1409.000000	0.320433
1410.000000	0.320097
1411.000000	0.319755
1412.000000	0.319513
1413.000000	0.319434
1414.000000	0.319328
1415.000000	0.319178
1416.000000	0.319092
1417.000000	0.319039
1418.000000	0.318988
1419.000000	0.319147
1420.000000	0.319158
1421.000000	0.319027
1422.000000	0.319129
1423.000000	0.319232
1424.000000	0.319190
1425.000000	0.319395
1426.000000	0.319480
1427.000000	0.319482
1428.000000	0.319597
1429.000000	0.319719
1430.000000	0.319804
1431.000000	0.319888
1432.000000	0.319962
1433.000000	0.320051
1434.000000	0.320176
1435.000000	0.320447
1436.000000	0.320570
1437.000000	0.320683
1438.000000	0.320696
1439.000000	0.320574
1440.000000	0.320619
1441.000000	0.320772
1442.000000	0.320881
1443.000000	0.321005
1444.000000	0.320968
1445.000000	0.320943
1446.000000	0.320866
1447.000000	0.320780
1448.000000	0.320747
1449.000000	0.320643
1450.000000	0.320579
1451.000000	0.320588
1452.000000	0.320509
1453.000000	0.320519
1454.000000	0.320579
1455.000000	0.320555
1456.000000	0.320634
1457.000000	0.320661
1458.000000	0.320618
1459.000000	0.320699
1460.000000	0.320779
1461.000000	0.320800
1462.000000	0.320747
1463.000000	0.320550
1464.000000	0.320512
1465.000000	0.320714
1466.000000	0.320900
1467.000000	0.321198
1468.000000	0.321448
1469.000000	0.321568
1470.000000	0.321684
1471.000000	0.321877
1472.000000	0.322075
1473.000000	0.322295
1474.000000	0.322404
1475.000000	0.322511
1476.000000	0.322672
1477.000000	0.322864
1478.000000	0.323083
1479.000000	0.323283
1480.000000	0.323496
1481.000000	0.323676
1482.000000	0.323912
1483.000000	0.324109
1484.000000	0.324233
1485.000000	0.324410
1486.000000	0.324562
1487.000000	0.324807
1488.000000	0.325141
1489.000000	0.325498
1490.000000	0.325860
1491.000000	0.326097
1492.000000	0.326231
1493.000000	0.326460
1494.000000	0.326534
1495.000000	0.326693
1496.000000	0.326973
1497.000000	0.327214
1498.000000	0.327452
1499.000000	0.327712
1500.000000	0.327980
1501.000000	0.328233
1502.000000	0.328375
1503.000000	0.328592
1504.000000	0.328920
1505.000000	0.329145
1506.000000	0.329445
1507.000000	0.329705
1508.000000	0.329792
1509.000000	0.329969
1510.000000	0.330091
1511.000000	0.330141
1512.000000	0.330375
1513.000000	0.330493
1514.000000	0.330465
1515.000000	0.330567
1516.000000	0.330629
1517.000000	0.330670
1518.000000	0.330858
1519.000000	0.330923
1520.000000	0.331073
1521.000000	0.331153
1522.000000	0.331220
1523.000000	0.331469
1524.000000	0.331536
1525.000000	0.331611
1526.000000	0.331665
1527.000000	0.331705
1528.000000	0.331926
1529.000000	0.331994
1530.000000	0.331872
1531.000000	0.331901
1532.000000	0.331881
1533.000000	0.331845
1534.000000	0.332026
1535.000000	0.332197
1536.000000	0.332248
1537.000000	0.332416
1538.000000	0.332597
1539.000000	0.332711
1540.000000	0.332893
1541.000000	0.333028
1542.000000	0.333087
1543.000000	0.333175
1544.000000	0.333205
1545.000000	0.333322
1546.000000	0.333448
1547.000000	0.333506
1548.000000	0.333629
1549.000000	0.333634
1550.000000	0.333643
1551.000000	0.333743
1552.000000	0.333767
1553.000000	0.333798
1554.000000	0.333785
1555.000000	0.333813
1556.000000	0.333958
1557.000000	0.334007
1558.000000	0.334085
1559.000000	0.334195
1560.000000	0.334157
1561.000000	0.334041
1562.000000	0.333988
1563.000000	0.333895
1564.000000	0.333920
1565.000000	0.334068
1566.000000	0.334047
1567.000000	0.334115
1568.000000	0.334076
1569.000000	0.333960
1570.000000	0.333957
1571.000000	0.333956
1572.000000	0.333985
1573.000000	0.334095
1574.000000	0.334110
1575.000000	0.334091
1576.000000	0.334180
1577.000000	0.334331
1578.000000	0.334339
1579.000000	0.334392
1580.000000	0.334415
1581.000000	0.334388
1582.000000	0.334377
1583.000000	0.334387
1584.000000	0.334339
1585.000000	0.334302
1586.000000	0.334339
1587.000000	0.334435
1588.000000	0.334469
1589.000000	0.334540
1590.000000	0.334506
1591.000000	0.334381
1592.000000	0.334377
1593.000000	0.334426
1594.000000	0.334432
1595.000000	0.334510
1596.000000	0.334571
1597.000000	0.334618
1598.000000	0.334657
1599.000000	0.334798
1600.000000	0.334830
1601.000000	0.334851
1602.000000	0.334849
1603.000000	0.334816
1604.000000	0.334848
1605.000000	0.334919
1606.000000	0.334963
1607.000000	0.335102
1608.000000	0.335137
1609.000000	0.335203
1610.000000	0.335196
1611.000000	0.335118
1612.000000	0.335096
1613.000000	0.335107
1614.000000	0.335157
1615.000000	0.335347
1616.000000	0.335503
1617.000000	0.335642
1618.000000	0.335734
1619.000000	0.335779
1620.000000	0.335860
1621.000000	0.335985
1622.000000	0.336080
1623.000000	0.336151
1624.000000	0.336122
1625.000000	0.335816
1626.000000	0.335677
1627.000000	0.335567
1628.000000	0.335589
1629.000000	0.335734
1630.000000	0.335797
1631.000000	0.335824
1632.000000	0.335799
1633.000000	0.335750
1634.000000	0.335753
1635.000000	0.335845
1636.000000	0.335768
1637.000000	0.335556
1638.000000	0.335497
1639.000000	0.335482
1640.000000	0.335492
1641.000000	0.335749
1642.000000	0.335831
1643.000000	0.335819
1644.000000	0.335834
1645.000000	0.335837
1646.000000	0.335811
1647.000000	0.335826
1648.000000	0.335766
1649.000000	0.335756
1650.000000	0.335732
1651.000000	0.335615
1652.000000	0.335695
1653.000000	0.335904
1654.000000	0.335943
1655.000000	0.335940
1656.000000	0.335909
1657.000000	0.335767
1658.000000	0.335747
1659.000000	0.335971
1660.000000	0.336054
1661.000000	0.336038
1662.000000	0.336034
1663.000000	0.335909
1664.000000	0.335896
1665.000000	0.335948
1666.000000	0.336008
1667.000000	0.336015
1668.000000	0.336094
1669.000000	0.336160
1670.000000	0.336092
1671.000000	0.336181
1672.000000	0.336198
1673.000000	0.336008
1674.000000	0.336040
1675.000000	0.336163
1676.000000	0.336274
1677.000000	0.336292
1678.000000	0.336317
1679.000000	0.336300
1680.000000	0.336142
1681.000000	0.336106
1682.000000	0.336085
1683.000000	0.335932
1684.000000	0.335926
1685.000000	0.336104
1686.000000	0.336109
1687.000000	0.336086
1688.000000	0.336092
1689.000000	0.336058
1690.000000	0.335944
1691.000000	0.336027
1692.000000	0.336139
1693.000000	0.336077
1694.000000	0.336091
1695.000000	0.336226
1696.000000	0.336178
1697.000000	0.336101
1698.000000	0.336092
1699.000000	0.336085
1700.000000	0.336024
1701.000000	0.336091
1702.000000	0.336034
1703.000000	0.335967
1704.000000	0.336033
1705.000000	0.336050
1706.000000	0.336089
1707.000000	0.336148
1708.000000	0.336175
1709.000000	0.336135
1710.000000	0.336170
1711.000000	0.336226
1712.000000	0.336362
1713.000000	0.336340
1714.000000	0.336262
1715.000000	0.336235
1716.000000	0.336112
1717.000000	0.336069
1718.000000	0.336164
1719.000000	0.336092
1720.000000	0.335969
1721.000000	0.335864
1722.000000	0.335643
1723.000000	0.335586
1724.000000	0.335685
1725.000000	0.335702
1726.000000	0.335648
1727.000000	0.335654
1728.000000	0.335593
1729.000000	0.335485
1730.000000	0.335547
1731.000000	0.335565
1732.000000	0.335482
1733.000000	0.335579
1734.000000	0.335708
1735.000000	0.335701
1736.000000	0.335660
1737.000000	0.335566
1738.000000	0.335371
1739.000000	0.335233
1740.000000	0.335072
1741.000000	0.334945
1742.000000	0.334815
1743.000000	0.334821
1744.000000	0.334955
1745.000000	0.334791
1746.000000	0.334535
1747.000000	0.334271
1748.000000	0.334088
1749.000000	0.334218
1750.000000	0.334208
1751.000000	0.334283
1752.000000	0.334389
1753.000000	0.334273
1754.000000	0.334264
1755.000000	0.334227
1756.000000	0.334230
1757.000000	0.334302
1758.000000	0.334416
1759.000000	0.334654
1760.000000	0.334706
1761.000000	0.334594
1762.000000	0.334576
1763.000000	0.334491
1764.000000	0.334451
1765.000000	0.334487
1766.000000	0.334527
1767.000000	0.334449
1768.000000	0.334388
1769.000000	0.334447
1770.000000	0.334572
1771.000000	0.334772
1772.000000	0.334723
1773.000000	0.334536
1774.000000	0.334459
1775.000000	0.334289
1776.000000	0.334185
1777.000000	0.334190
1778.000000	0.334120
1779.000000	0.333903
1780.000000	0.333874
1781.000000	0.333960
1782.000000	0.333969
1783.000000	0.334071
1784.000000	0.333923
1785.000000	0.333779
1786.000000	0.333794
1787.000000	0.333823
1788.000000	0.333989
1789.000000	0.334190
1790.000000	0.334140
1791.000000	0.334103
1792.000000	0.334134
1793.000000	0.334128
1794.000000	0.334129
1795.000000	0.334167
1796.000000	0.334161
1797.000000	0.334197
1798.000000	0.334319
1799.000000	0.334347
1800.000000	0.334364
1801.000000	0.334334
1802.000000	0.334576
1803.000000	0.334122
1804.000000	0.334348
1805.000000	0.334978
1806.000000	0.335179
1807.000000	0.335562
1808.000000	0.335613
1809.000000	0.334950
1810.000000	0.334990
1811.000000	0.334502
1812.000000	0.333572
1813.000000	0.333313
1814.000000	0.332912
1815.000000	0.333048
1816.000000	0.334478
1817.000000	0.334620
1818.000000	0.334407
1819.000000	0.334257
1820.000000	0.334125
1821.000000	0.333154
1822.000000	0.332628
1823.000000	0.332175
1824.000000	0.332029
1825.000000	0.331729
1826.000000	0.331863
1827.000000	0.333016
1828.000000	0.332876
1829.000000	0.332577
1830.000000	0.332781
1831.000000	0.332572
1832.000000	0.331892
1833.000000	0.331585
1834.000000	0.331118
1835.000000	0.331032
1836.000000	0.331410
1837.000000	0.331526
1838.000000	0.331676
1839.000000	0.331823
1840.000000	0.331487
1841.000000	0.330735
1842.000000	0.330209
1843.000000	0.329304
1844.000000	0.329088
1845.000000	0.329361
1846.000000	0.329121
1847.000000	0.328709
1848.000000	0.328489
1849.000000	0.328272
1850.000000	0.328218
1851.000000	0.328092
1852.000000	0.328401
1853.000000	0.328386
1854.000000	0.327670
1855.000000	0.327357
1856.000000	0.327184
1857.000000	0.327089
1858.000000	0.326859
1859.000000	0.326838
1860.000000	0.326165
1861.000000	0.325435
1862.000000	0.324940
1863.000000	0.324134
1864.000000	0.323591
1865.000000	0.323786
1866.000000	0.323373
1867.000000	0.322531
1868.000000	0.322047
1869.000000	0.321052
1870.000000	0.320106
1871.000000	0.319372
1872.000000	0.318320
1873.000000	0.317008
1874.000000	0.315308
1875.000000	0.313821
1876.000000	0.312094
1877.000000	0.309940
1878.000000	0.307647
1879.000000	0.305366
1880.000000	0.302490
1881.000000	0.299656
1882.000000	0.297095
1883.000000	0.294739
1884.000000	0.292334
1885.000000	0.289724
1886.000000	0.287098
1887.000000	0.284710
1888.000000	0.281536
1889.000000	0.278224
1890.000000	0.275456
1891.000000	0.272243
1892.000000	0.269496
1893.000000	0.266572
1894.000000	0.262924
1895.000000	0.259524
1896.000000	0.256091
1897.000000	0.252642
1898.000000	0.249545
1899.000000	0.247707
1900.000000	0.245850
1901.000000	0.243993
1902.000000	0.242278
1903.000000	0.240009
1904.000000	0.238445
1905.000000	0.237262
1906.000000	0.236425
1907.000000	0.235968
1908.000000	0.236565
1909.000000	0.236800
1910.000000	0.236562
1911.000000	0.236484
1912.000000	0.236060
1913.000000	0.236386
1914.000000	0.237297
1915.000000	0.237234
1916.000000	0.237071
1917.000000	0.236951
1918.000000	0.236356
1919.000000	0.235756
1920.000000	0.236526
1921.000000	0.237776
1922.000000	0.238652
1923.000000	0.239749
1924.000000	0.240313
1925.000000	0.240297
1926.000000	0.240852
1927.000000	0.241634
1928.000000	0.242225
1929.000000	0.242946
1930.000000	0.243852
1931.000000	0.244304
1932.000000	0.244354
1933.000000	0.244636
1934.000000	0.244845
1935.000000	0.245139
1936.000000	0.245856
1937.000000	0.246580
1938.000000	0.247323
1939.000000	0.247790
1940.000000	0.248156
1941.000000	0.248371
1942.000000	0.248504
1943.000000	0.248499
1944.000000	0.248872
1945.000000	0.248812
1946.000000	0.249064
1947.000000	0.249457
1948.000000	0.249577
1949.000000	0.250262
1950.000000	0.250240
1951.000000	0.250376
1952.000000	0.250464
1953.000000	0.250949
1954.000000	0.250926
1955.000000	0.251401
1956.000000	0.251922
1957.000000	0.251587
1958.000000	0.251421
1959.000000	0.251795
1960.000000	0.251625
1961.000000	0.251439
1962.000000	0.251782
1963.000000	0.252587
1964.000000	0.253267
1965.000000	0.254116
1966.000000	0.255213
1967.000000	0.255922
1968.000000	0.256114
1969.000000	0.256103
1970.000000	0.256063
1971.000000	0.255845
1972.000000	0.255587
1973.000000	0.255507
1974.000000	0.255637
1975.000000	0.255910
1976.000000	0.256301
1977.000000	0.257156
1978.000000	0.257670
1979.000000	0.258232
1980.000000	0.258997
1981.000000	0.259073
1982.000000	0.259603
1983.000000	0.259945
1984.000000	0.260318
1985.000000	0.260948
1986.000000	0.261201
1987.000000	0.261050
1988.000000	0.261765
1989.000000	0.262007
1990.000000	0.262223
1991.000000	0.263014
1992.000000	0.263356
1993.000000	0.264213
1994.000000	0.265259
1995.000000	0.266025
1996.000000	0.266511
1997.000000	0.267150
1998.000000	0.267534
1999.000000	0.268366
2000.000000	0.269590
2001.000000	0.270716
2002.000000	0.271597
2003.000000	0.272306
2004.000000	0.272332
2005.000000	0.272212
2006.000000	0.272644
2007.000000	0.272572
2008.000000	0.272818
2009.000000	0.273337
2010.000000	0.273994
2011.000000	0.274711
2012.000000	0.275286
2013.000000	0.276117
2014.000000	0.276207
2015.000000	0.276161
2016.000000	0.276052
2017.000000	0.275998
2018.000000	0.276255
2019.000000	0.276378
2020.000000	0.276951
2021.000000	0.277518
2022.000000	0.278230
2023.000000	0.278811
2024.000000	0.279390
2025.000000	0.279902
2026.000000	0.280285
2027.000000	0.280429
2028.000000	0.280694
2029.000000	0.281376
2030.000000	0.281811
2031.000000	0.282436
2032.000000	0.283214
2033.000000	0.284404
2034.000000	0.284949
2035.000000	0.285300
2036.000000	0.285625
2037.000000	0.285527
2038.000000	0.285790
2039.000000	0.286370
2040.000000	0.287082
2041.000000	0.287687
2042.000000	0.287881
2043.000000	0.288298
2044.000000	0.288941
2045.000000	0.289064
2046.000000	0.289327
2047.000000	0.289456
2048.000000	0.289242
2049.000000	0.289375
2050.000000	0.289126
2051.000000	0.289190
2052.000000	0.289363
2053.000000	0.289377
2054.000000	0.289615
2055.000000	0.290166
2056.000000	0.290515
2057.000000	0.291314
2058.000000	0.291964
2059.000000	0.292262
2060.000000	0.292603
2061.000000	0.292842
2062.000000	0.292925
2063.000000	0.293192
2064.000000	0.293126
2065.000000	0.292632
2066.000000	0.292540
2067.000000	0.292858
2068.000000	0.292830
2069.000000	0.293547
2070.000000	0.294609
2071.000000	0.294654
2072.000000	0.295178
2073.000000	0.295678
2074.000000	0.295438
2075.000000	0.295683
2076.000000	0.296356
2077.000000	0.296637
2078.000000	0.296966
2079.000000	0.296956
2080.000000	0.296628
2081.000000	0.296357
2082.000000	0.295523
2083.000000	0.295377
2084.000000	0.295598
2085.000000	0.296509
2086.000000	0.297684
2087.000000	0.298027
2088.000000	0.298352
2089.000000	0.298184
2090.000000	0.298433
2091.000000	0.299080
2092.000000	0.299365
2093.000000	0.299904
2094.000000	0.299933
2095.000000	0.298940
2096.000000	0.298724
2097.000000	0.298549
2098.000000	0.298550
2099.000000	0.298833
2100.000000	0.299792
2101.000000	0.300576
2102.000000	0.301005
2103.000000	0.301326
2104.000000	0.301644
2105.000000	0.301771
2106.000000	0.301451
2107.000000	0.301462
2108.000000	0.301469
2109.000000	0.301587
2110.000000	0.301616
2111.000000	0.301829
2112.000000	0.301971
2113.000000	0.302357
2114.000000	0.302720
2115.000000	0.303281
2116.000000	0.303646
2117.000000	0.303553
2118.000000	0.304088
2119.000000	0.304577
2120.000000	0.304598
2121.000000	0.304456
2122.000000	0.304509
2123.000000	0.303856
2124.000000	0.303897
2125.000000	0.304678
2126.000000	0.305117
2127.000000	0.305857
2128.000000	0.306371
2129.000000	0.306617
2130.000000	0.306950
2131.000000	0.307093
2132.000000	0.306640
2133.000000	0.306142
2134.000000	0.305641
2135.000000	0.305314
2136.000000	0.304935
2137.000000	0.305012
2138.000000	0.306023
2139.000000	0.306028
2140.000000	0.305508
2141.000000	0.305562
2142.000000	0.305076
2143.000000	0.305115
2144.000000	0.306839
2145.000000	0.307173
2146.000000	0.306690
2147.000000	0.307051
2148.000000	0.306737
2149.000000	0.306243
2150.000000	0.306646
2151.000000	0.306836
2152.000000	0.306813
2153.000000	0.307189
2154.000000	0.307378
2155.000000	0.307771
2156.000000	0.307661
2157.000000	0.307158
2158.000000	0.306880
2159.000000	0.306501
2160.000000	0.306559
2161.000000	0.307127
2162.000000	0.307333
2163.000000	0.306938
2164.000000	0.306992
2165.000000	0.307350
2166.000000	0.307459
2167.000000	0.307704
2168.000000	0.308085
2169.000000	0.307270
2170.000000	0.306263
2171.000000	0.305847
2172.000000	0.305610
2173.000000	0.305391
2174.000000	0.305766
2175.000000	0.305693
2176.000000	0.304926
2177.000000	0.304972
2178.000000	0.305294
2179.000000	0.305902
2180.000000	0.307362
2181.000000	0.308402
2182.000000	0.309041
2183.000000	0.309383
2184.000000	0.309185
2185.000000	0.309134
2186.000000	0.308301
2187.000000	0.307230
2188.000000	0.306386
2189.000000	0.305972
2190.000000	0.305843
2191.000000	0.306432
2192.000000	0.306637
2193.000000	0.306864
2194.000000	0.306350
2195.000000	0.305024
2196.000000	0.305077
2197.000000	0.305415
2198.000000	0.305623
2199.000000	0.307862
2200.000000	0.307959
2201.000000	0.304997
2202.000000	0.304383
2203.000000	0.303500
2204.000000	0.304181
2205.000000	0.306011
2206.000000	0.308237
2207.000000	0.310699
2208.000000	0.311450
2209.000000	0.311087
2210.000000	0.311730
2211.000000	0.310726
2212.000000	0.308066
2213.000000	0.306208
2214.000000	0.303720
2215.000000	0.303028
2216.000000	0.302532
2217.000000	0.303928
2218.000000	0.308213
2219.000000	0.309741
2220.000000	0.311072
2221.000000	0.312700
2222.000000	0.314340
2223.000000	0.314348
2224.000000	0.314670
2225.000000	0.312934
2226.000000	0.308699
2227.000000	0.303818
2228.000000	0.301932
2229.000000	0.301308
2230.000000	0.303278
2231.000000	0.306205
2232.000000	0.306823
2233.000000	0.306096
2234.000000	0.303957
2235.000000	0.303814
2236.000000	0.303840
2237.000000	0.305335
2238.000000	0.305918
2239.000000	0.306395
2240.000000	0.306141
2241.000000	0.304844
2242.000000	0.305111
2243.000000	0.305829
2244.000000	0.306325
2245.000000	0.307946
2246.000000	0.308873
2247.000000	0.309730
2248.000000	0.309839
2249.000000	0.310492
2250.000000	0.308299
2251.000000	0.306499
2252.000000	0.304437
2253.000000	0.302273
2254.000000	0.303114
2255.000000	0.304325
2256.000000	0.306457
2257.000000	0.308951
2258.000000	0.309634
2259.000000	0.308938
2260.000000	0.305908
2261.000000	0.304148
2262.000000	0.301829
2263.000000	0.300518
2264.000000	0.300423
2265.000000	0.299304
2266.000000	0.297094
2267.000000	0.296681
2268.000000	0.297098
2269.000000	0.296777
2270.000000	0.297396
2271.000000	0.297434
2272.000000	0.296692
2273.000000	0.296517
2274.000000	0.297008
2275.000000	0.296727
2276.000000	0.296951
2277.000000	0.294188
2278.000000	0.290934
2279.000000	0.289025
2280.000000	0.287357
2281.000000	0.286757
2282.000000	0.288408
2283.000000	0.287947
2284.000000	0.286751
2285.000000	0.285142
2286.000000	0.282512
2287.000000	0.282883
2288.000000	0.282098
2289.000000	0.281189
2290.000000	0.280836
2291.000000	0.278194
2292.000000	0.276496
2293.000000	0.275069
2294.000000	0.273968
2295.000000	0.273147
2296.000000	0.272478
2297.000000	0.271329
2298.000000	0.272214
2299.000000	0.274884
2300.000000	0.276504
2301.000000	0.280274
2302.000000	0.280921
2303.000000	0.279267
2304.000000	0.276812
2305.000000	0.271598
2306.000000	0.268775
2307.000000	0.265775
2308.000000	0.264105
2309.000000	0.263712
2310.000000	0.263431
2311.000000	0.263005
2312.000000	0.262904
2313.000000	0.262764
2314.000000	0.262043
2315.000000	0.260685
2316.000000	0.258626
2317.000000	0.257417
2318.000000	0.257325
2319.000000	0.259800
2320.000000	0.262953
2321.000000	0.265137
2322.000000	0.266101
2323.000000	0.264834
2324.000000	0.264323
2325.000000	0.265075
2326.000000	0.266822
2327.000000	0.269224
2328.000000	0.271411
2329.000000	0.273653
2330.000000	0.277207
2331.000000	0.281016
2332.000000	0.282966
2333.000000	0.284265
2334.000000	0.284622
2335.000000	0.284388
2336.000000	0.282647
2337.000000	0.280466
2338.000000	0.275936
2339.000000	0.274927
2340.000000	0.274770
2341.000000	0.274082
2342.000000	0.276565
2343.000000	0.276896
2344.000000	0.274597
2345.000000	0.273963
2346.000000	0.273676
2347.000000	0.274452
2348.000000	0.275055
2349.000000	0.278727
2350.000000	0.281404
2351.000000	0.280064
2352.000000	0.278496
2353.000000	0.272788
2354.000000	0.266858
2355.000000	0.264768
2356.000000	0.263120
2357.000000	0.264339
2358.000000	0.268371
2359.000000	0.271799
2360.000000	0.275195
2361.000000	0.278447
2362.000000	0.277417
2363.000000	0.276918
2364.000000	0.274346
2365.000000	0.268458
2366.000000	0.268363
2367.000000	0.266936
2368.000000	0.265315
2369.000000	0.265570
2370.000000	0.262915
2371.000000	0.261081
2372.000000	0.262556
2373.000000	0.264670
2374.000000	0.263149
2375.000000	0.266175
2376.000000	0.269012
2377.000000	0.268048
2378.000000	0.270402
2379.000000	0.265987
2380.000000	0.258582
2381.000000	0.254397
2382.000000	0.249970
2383.000000	0.253024
2384.000000	0.258044
2385.000000	0.262079
2386.000000	0.265612
2387.000000	0.263301
2388.000000	0.260272
2389.000000	0.255689
2390.000000	0.252609
2391.000000	0.253809
2392.000000	0.257179
2393.000000	0.257681
2394.000000	0.257725
2395.000000	0.259789
2396.000000	0.257101
2397.000000	0.254572
2398.000000	0.257798
2399.000000	0.258378
2400.000000	0.254979
2401.000000	0.257738
2402.000000	0.254259
2403.000000	0.254391
2404.000000	0.263105
2405.000000	0.265107
2406.000000	0.272073
2407.000000	0.274350
2408.000000	0.268452
2409.000000	0.263906
2410.000000	0.262109
2411.000000	0.261547
2412.000000	0.257719
2413.000000	0.254349
2414.000000	0.251427
2415.000000	0.248097
2416.000000	0.245973
2417.000000	0.246347
2418.000000	0.248046
2419.000000	0.252451
2420.000000	0.260091
2421.000000	0.260896
2422.000000	0.263052
2423.000000	0.262808
2424.000000	0.252556
2425.000000	0.251894
2426.000000	0.248513
2427.000000	0.251035
2428.000000	0.259972
2429.000000	0.257864
2430.000000	0.262033
2431.000000	0.262129
2432.000000	0.262758
2433.000000	0.274023
2434.000000	0.277228
2435.000000	0.273089
2436.000000	0.264620
2437.000000	0.259630
2438.000000	0.273032
2439.000000	0.281556
2440.000000	0.280276
2441.000000	0.281750
2442.000000	0.276573
2443.000000	0.283781
2444.000000	0.288650
2445.000000	0.283454
2446.000000	0.276507
2447.000000	0.269838
2448.000000	0.280595
2449.000000	0.292776
2450.000000	0.292825
2451.000000	0.280041
2452.000000	0.264772
2453.000000	0.250374
2454.000000	0.251395
2455.000000	0.263244
2456.000000	0.266893
2457.000000	0.269090
2458.000000	0.269272
2459.000000	0.267208
2460.000000	0.267346
2461.000000	0.279826
2462.000000	0.287619
2463.000000	0.276861
2464.000000	0.261624
2465.000000	0.245206
2466.000000	0.228756
2467.000000	0.231551
2468.000000	0.240193
2469.000000	0.235958
2470.000000	0.227598
2471.000000	0.209432
2472.000000	0.206468
2473.000000	0.226141
2474.000000	0.243501
2475.000000	0.263602
2476.000000	0.276178
2477.000000	0.261967
2478.000000	0.260853
2479.000000	0.268770
2480.000000	0.258409
2481.000000	0.266452
2482.000000	0.268785
2483.000000	0.280385
2484.000000	0.283404
2485.000000	0.265882
2486.000000	0.270576
2487.000000	0.245838
2488.000000	0.263716
2489.000000	0.295516
2490.000000	0.283619
2491.000000	0.290212
2492.000000	0.282577
2493.000000	0.298001
2494.000000	0.293808
2495.000000	0.254902
2496.000000	0.228238
2497.000000	0.158308
2498.000000	0.148470
2499.000000	0.205432
2500.000000	0.241196
