# Wavelength	SM1200H-60_HEX-30_FV7-10_00001.asd.rts.txt
350.000000	0.408845
351.000000	0.415449
352.000000	0.411237
353.000000	0.406322
354.000000	0.407762
355.000000	0.399227
356.000000	0.401353
357.000000	0.411499
358.000000	0.404362
359.000000	0.405952
360.000000	0.414572
361.000000	0.420887
362.000000	0.419682
363.000000	0.418415
364.000000	0.419649
365.000000	0.415367
366.000000	0.417183
367.000000	0.422030
368.000000	0.414982
369.000000	0.414123
370.000000	0.419472
371.000000	0.425265
372.000000	0.424340
373.000000	0.425471
374.000000	0.432503
375.000000	0.427994
376.000000	0.425586
377.000000	0.429307
378.000000	0.435661
379.000000	0.434336
380.000000	0.430026
381.000000	0.432732
382.000000	0.434672
383.000000	0.433320
384.000000	0.429933
385.000000	0.432450
386.000000	0.434977
387.000000	0.436081
388.000000	0.438358
389.000000	0.440011
390.000000	0.440620
391.000000	0.439819
392.000000	0.439091
393.000000	0.439267
394.000000	0.440684
395.000000	0.443102
396.000000	0.444381
397.000000	0.444035
398.000000	0.443789
399.000000	0.443426
400.000000	0.443355
401.000000	0.443909
402.000000	0.445233
403.000000	0.446682
404.000000	0.447750
405.000000	0.447508
406.000000	0.447851
407.000000	0.449376
408.000000	0.450391
409.000000	0.450312
410.000000	0.449987
411.000000	0.451104
412.000000	0.451717
413.000000	0.451759
414.000000	0.451708
415.000000	0.452245
416.000000	0.452629
417.000000	0.452654
418.000000	0.453575
419.000000	0.454193
420.000000	0.454332
421.000000	0.454609
422.000000	0.454783
423.000000	0.455128
424.000000	0.456109
425.000000	0.457153
426.000000	0.457797
427.000000	0.457869
428.000000	0.458048
429.000000	0.458423
430.000000	0.458995
431.000000	0.459642
432.000000	0.460408
433.000000	0.460968
434.000000	0.461063
435.000000	0.461209
436.000000	0.461630
437.000000	0.462312
438.000000	0.462779
439.000000	0.462941
440.000000	0.463069
441.000000	0.463504
442.000000	0.463757
443.000000	0.463817
444.000000	0.464320
445.000000	0.464669
446.000000	0.465086
447.000000	0.465557
448.000000	0.465406
449.000000	0.465483
450.000000	0.466260
451.000000	0.466765
452.000000	0.467067
453.000000	0.467133
454.000000	0.467207
455.000000	0.467749
456.000000	0.468636
457.000000	0.469134
458.000000	0.469307
459.000000	0.469450
460.000000	0.469873
461.000000	0.470209
462.000000	0.470707
463.000000	0.471171
464.000000	0.471549
465.000000	0.472049
466.000000	0.472429
467.000000	0.472402
468.000000	0.472780
469.000000	0.473278
470.000000	0.473649
471.000000	0.473597
472.000000	0.473588
473.000000	0.473947
474.000000	0.474292
475.000000	0.474313
476.000000	0.474380
477.000000	0.475039
478.000000	0.475030
479.000000	0.474938
480.000000	0.475361
481.000000	0.475415
482.000000	0.475482
483.000000	0.475653
484.000000	0.476257
485.000000	0.476645
486.000000	0.476840
487.000000	0.476967
488.000000	0.477303
489.000000	0.477759
490.000000	0.477931
491.000000	0.478300
492.000000	0.478838
493.000000	0.479144
494.000000	0.479326
495.000000	0.479577
496.000000	0.479940
497.000000	0.480376
498.000000	0.480855
499.000000	0.481448
500.000000	0.481986
501.000000	0.482419
502.000000	0.482809
503.000000	0.483111
504.000000	0.483340
505.000000	0.483587
506.000000	0.483920
507.000000	0.484150
508.000000	0.484488
509.000000	0.484959
510.000000	0.485461
511.000000	0.485873
512.000000	0.486243
513.000000	0.486658
514.000000	0.487123
515.000000	0.487582
516.000000	0.487858
517.000000	0.488077
518.000000	0.488333
519.000000	0.488554
520.000000	0.488916
521.000000	0.489232
522.000000	0.489470
523.000000	0.489787
524.000000	0.490129
525.000000	0.490466
526.000000	0.490852
527.000000	0.491161
528.000000	0.491376
529.000000	0.491607
530.000000	0.491803
531.000000	0.492115
532.000000	0.492451
533.000000	0.492761
534.000000	0.493001
535.000000	0.493201
536.000000	0.493555
537.000000	0.493905
538.000000	0.494221
539.000000	0.494505
540.000000	0.494843
541.000000	0.495192
542.000000	0.495559
543.000000	0.495925
544.000000	0.496336
545.000000	0.496703
546.000000	0.497135
547.000000	0.497517
548.000000	0.497892
549.000000	0.498234
550.000000	0.498671
551.000000	0.499129
552.000000	0.499411
553.000000	0.499779
554.000000	0.500146
555.000000	0.500457
556.000000	0.500857
557.000000	0.501201
558.000000	0.501632
559.000000	0.501996
560.000000	0.502314
561.000000	0.502699
562.000000	0.503040
563.000000	0.503355
564.000000	0.503680
565.000000	0.503882
566.000000	0.504195
567.000000	0.504536
568.000000	0.504815
569.000000	0.505115
570.000000	0.505466
571.000000	0.505818
572.000000	0.506083
573.000000	0.506399
574.000000	0.506702
575.000000	0.506970
576.000000	0.507220
577.000000	0.507425
578.000000	0.507683
579.000000	0.507995
580.000000	0.508285
581.000000	0.508535
582.000000	0.508821
583.000000	0.509151
584.000000	0.509483
585.000000	0.509749
586.000000	0.509978
587.000000	0.510221
588.000000	0.510528
589.000000	0.510896
590.000000	0.511203
591.000000	0.511403
592.000000	0.511639
593.000000	0.511895
594.000000	0.512135
595.000000	0.512308
596.000000	0.512543
597.000000	0.512859
598.000000	0.513053
599.000000	0.513137
600.000000	0.513313
601.000000	0.513590
602.000000	0.513847
603.000000	0.514050
604.000000	0.514246
605.000000	0.514585
606.000000	0.514783
607.000000	0.514903
608.000000	0.515218
609.000000	0.515462
610.000000	0.515609
611.000000	0.515712
612.000000	0.515867
613.000000	0.516054
614.000000	0.516289
615.000000	0.516468
616.000000	0.516623
617.000000	0.516735
618.000000	0.516920
619.000000	0.517101
620.000000	0.517241
621.000000	0.517418
622.000000	0.517575
623.000000	0.517644
624.000000	0.517609
625.000000	0.517663
626.000000	0.517671
627.000000	0.517605
628.000000	0.517605
629.000000	0.517730
630.000000	0.517779
631.000000	0.517896
632.000000	0.517952
633.000000	0.518021
634.000000	0.518171
635.000000	0.518404
636.000000	0.518731
637.000000	0.519065
638.000000	0.519214
639.000000	0.519369
640.000000	0.519611
641.000000	0.519654
642.000000	0.519712
643.000000	0.519832
644.000000	0.519999
645.000000	0.520057
646.000000	0.520164
647.000000	0.520369
648.000000	0.520501
649.000000	0.520591
650.000000	0.520674
651.000000	0.520906
652.000000	0.521043
653.000000	0.521149
654.000000	0.521277
655.000000	0.521414
656.000000	0.521531
657.000000	0.521546
658.000000	0.521758
659.000000	0.521952
660.000000	0.522012
661.000000	0.522089
662.000000	0.522156
663.000000	0.522305
664.000000	0.522512
665.000000	0.522685
666.000000	0.522838
667.000000	0.522957
668.000000	0.523074
669.000000	0.523231
670.000000	0.523432
671.000000	0.523542
672.000000	0.523653
673.000000	0.523780
674.000000	0.523916
675.000000	0.524030
676.000000	0.524143
677.000000	0.524319
678.000000	0.524544
679.000000	0.524704
680.000000	0.524766
681.000000	0.524853
682.000000	0.525020
683.000000	0.525154
684.000000	0.525358
685.000000	0.525534
686.000000	0.525696
687.000000	0.525800
688.000000	0.525886
689.000000	0.525983
690.000000	0.526152
691.000000	0.526317
692.000000	0.526422
693.000000	0.526580
694.000000	0.526810
695.000000	0.527031
696.000000	0.527237
697.000000	0.527443
698.000000	0.527571
699.000000	0.527691
700.000000	0.527868
701.000000	0.527990
702.000000	0.528099
703.000000	0.528177
704.000000	0.528212
705.000000	0.528335
706.000000	0.528456
707.000000	0.528556
708.000000	0.528693
709.000000	0.528860
710.000000	0.529062
711.000000	0.529220
712.000000	0.529364
713.000000	0.529543
714.000000	0.529739
715.000000	0.529875
716.000000	0.530009
717.000000	0.530207
718.000000	0.530306
719.000000	0.530342
720.000000	0.530395
721.000000	0.530454
722.000000	0.530456
723.000000	0.530485
724.000000	0.530507
725.000000	0.530547
726.000000	0.530728
727.000000	0.530906
728.000000	0.531070
729.000000	0.531205
730.000000	0.531231
731.000000	0.531300
732.000000	0.531305
733.000000	0.531303
734.000000	0.531364
735.000000	0.531367
736.000000	0.531476
737.000000	0.531517
738.000000	0.531522
739.000000	0.531567
740.000000	0.531459
741.000000	0.531529
742.000000	0.531612
743.000000	0.531628
744.000000	0.531736
745.000000	0.531812
746.000000	0.531874
747.000000	0.531828
748.000000	0.531904
749.000000	0.532055
750.000000	0.532170
751.000000	0.532308
752.000000	0.532395
753.000000	0.532441
754.000000	0.532481
755.000000	0.532599
756.000000	0.532778
757.000000	0.532888
758.000000	0.532951
759.000000	0.533003
760.000000	0.532986
761.000000	0.533132
762.000000	0.533209
763.000000	0.533188
764.000000	0.533292
765.000000	0.533395
766.000000	0.533481
767.000000	0.533557
768.000000	0.533711
769.000000	0.533812
770.000000	0.533848
771.000000	0.533966
772.000000	0.534121
773.000000	0.534149
774.000000	0.534098
775.000000	0.534213
776.000000	0.534315
777.000000	0.534256
778.000000	0.534292
779.000000	0.534340
780.000000	0.534404
781.000000	0.534523
782.000000	0.534596
783.000000	0.534741
784.000000	0.534803
785.000000	0.534859
786.000000	0.534886
787.000000	0.534875
788.000000	0.534903
789.000000	0.534943
790.000000	0.534926
791.000000	0.534852
792.000000	0.534852
793.000000	0.534908
794.000000	0.534979
795.000000	0.534989
796.000000	0.534970
797.000000	0.534939
798.000000	0.534909
799.000000	0.535019
800.000000	0.535128
801.000000	0.535071
802.000000	0.535057
803.000000	0.535100
804.000000	0.535199
805.000000	0.535121
806.000000	0.534891
807.000000	0.534757
808.000000	0.534790
809.000000	0.534642
810.000000	0.534492
811.000000	0.534490
812.000000	0.534546
813.000000	0.534630
814.000000	0.534710
815.000000	0.534792
816.000000	0.534754
817.000000	0.534744
818.000000	0.534775
819.000000	0.534810
820.000000	0.534838
821.000000	0.534787
822.000000	0.534750
823.000000	0.534816
824.000000	0.534830
825.000000	0.534781
826.000000	0.534770
827.000000	0.534686
828.000000	0.534578
829.000000	0.534622
830.000000	0.534601
831.000000	0.534558
832.000000	0.534389
833.000000	0.534305
834.000000	0.534272
835.000000	0.534273
836.000000	0.534225
837.000000	0.534152
838.000000	0.534076
839.000000	0.533939
840.000000	0.533903
841.000000	0.533947
842.000000	0.533959
843.000000	0.534031
844.000000	0.534011
845.000000	0.533865
846.000000	0.533826
847.000000	0.533857
848.000000	0.533850
849.000000	0.533757
850.000000	0.533591
851.000000	0.533421
852.000000	0.533399
853.000000	0.533609
854.000000	0.533615
855.000000	0.533548
856.000000	0.533393
857.000000	0.533209
858.000000	0.533150
859.000000	0.533087
860.000000	0.532844
861.000000	0.532593
862.000000	0.532488
863.000000	0.532488
864.000000	0.532321
865.000000	0.532258
866.000000	0.532426
867.000000	0.532470
868.000000	0.532398
869.000000	0.532232
870.000000	0.532192
871.000000	0.532051
872.000000	0.531975
873.000000	0.531981
874.000000	0.532130
875.000000	0.532125
876.000000	0.532008
877.000000	0.531843
878.000000	0.531613
879.000000	0.531454
880.000000	0.531219
881.000000	0.531064
882.000000	0.530951
883.000000	0.530831
884.000000	0.530555
885.000000	0.530342
886.000000	0.530060
887.000000	0.529686
888.000000	0.529280
889.000000	0.529048
890.000000	0.528859
891.000000	0.528824
892.000000	0.528680
893.000000	0.528474
894.000000	0.528451
895.000000	0.528460
896.000000	0.528163
897.000000	0.527819
898.000000	0.527803
899.000000	0.527729
900.000000	0.527634
901.000000	0.527497
902.000000	0.527413
903.000000	0.527234
904.000000	0.527046
905.000000	0.526838
906.000000	0.526957
907.000000	0.526896
908.000000	0.526661
909.000000	0.526528
910.000000	0.526402
911.000000	0.526304
912.000000	0.526255
913.000000	0.526048
914.000000	0.525972
915.000000	0.526008
916.000000	0.525646
917.000000	0.525379
918.000000	0.525218
919.000000	0.525049
920.000000	0.524837
921.000000	0.524456
922.000000	0.524102
923.000000	0.524042
924.000000	0.524005
925.000000	0.523798
926.000000	0.523476
927.000000	0.523297
928.000000	0.523136
929.000000	0.522882
930.000000	0.522494
931.000000	0.522235
932.000000	0.521996
933.000000	0.521794
934.000000	0.521614
935.000000	0.521299
936.000000	0.520966
937.000000	0.520557
938.000000	0.520055
939.000000	0.519671
940.000000	0.519375
941.000000	0.519229
942.000000	0.518830
943.000000	0.518361
944.000000	0.517795
945.000000	0.517324
946.000000	0.516716
947.000000	0.516176
948.000000	0.515872
949.000000	0.515771
950.000000	0.515680
951.000000	0.515484
952.000000	0.515371
953.000000	0.515352
954.000000	0.515305
955.000000	0.515057
956.000000	0.514891
957.000000	0.514676
958.000000	0.514306
959.000000	0.513963
960.000000	0.513971
961.000000	0.513862
962.000000	0.513528
963.000000	0.513436
964.000000	0.513277
965.000000	0.513034
966.000000	0.512604
967.000000	0.512338
968.000000	0.511993
969.000000	0.511686
970.000000	0.511804
971.000000	0.511556
972.000000	0.511209
973.000000	0.510915
974.000000	0.510883
975.000000	0.510580
976.000000	0.510340
977.000000	0.510403
978.000000	0.510216
979.000000	0.510163
980.000000	0.509859
981.000000	0.509492
982.000000	0.509146
983.000000	0.508951
984.000000	0.508929
985.000000	0.508733
986.000000	0.508520
987.000000	0.508393
988.000000	0.508207
989.000000	0.508007
990.000000	0.507952
991.000000	0.507832
992.000000	0.507511
993.000000	0.507404
994.000000	0.507294
995.000000	0.507236
996.000000	0.506866
997.000000	0.506666
998.000000	0.506820
999.000000	0.507210
1000.000000	0.506948
1001.000000	0.507262
1002.000000	0.507202
1003.000000	0.506515
1004.000000	0.506458
1005.000000	0.506747
1006.000000	0.506869
1007.000000	0.507298
1008.000000	0.507628
1009.000000	0.507283
1010.000000	0.506090
1011.000000	0.505750
1012.000000	0.506032
1013.000000	0.505723
1014.000000	0.505698
1015.000000	0.505630
1016.000000	0.505036
1017.000000	0.504737
1018.000000	0.505444
1019.000000	0.505812
1020.000000	0.506576
1021.000000	0.506098
1022.000000	0.505289
1023.000000	0.505027
1024.000000	0.503791
1025.000000	0.503903
1026.000000	0.504727
1027.000000	0.504963
1028.000000	0.504870
1029.000000	0.504869
1030.000000	0.504623
1031.000000	0.504492
1032.000000	0.505159
1033.000000	0.505270
1034.000000	0.505155
1035.000000	0.504641
1036.000000	0.504650
1037.000000	0.504651
1038.000000	0.504601
1039.000000	0.505009
1040.000000	0.505289
1041.000000	0.505541
1042.000000	0.505887
1043.000000	0.506082
1044.000000	0.506184
1045.000000	0.506078
1046.000000	0.505968
1047.000000	0.506271
1048.000000	0.506942
1049.000000	0.507304
1050.000000	0.508013
1051.000000	0.508125
1052.000000	0.507552
1053.000000	0.507490
1054.000000	0.507847
1055.000000	0.507783
1056.000000	0.507748
1057.000000	0.507868
1058.000000	0.507140
1059.000000	0.506542
1060.000000	0.507331
1061.000000	0.508317
1062.000000	0.508799
1063.000000	0.509804
1064.000000	0.510225
1065.000000	0.509640
1066.000000	0.509588
1067.000000	0.509676
1068.000000	0.509696
1069.000000	0.509421
1070.000000	0.509643
1071.000000	0.510546
1072.000000	0.510871
1073.000000	0.511142
1074.000000	0.511508
1075.000000	0.511534
1076.000000	0.511494
1077.000000	0.511664
1078.000000	0.511773
1079.000000	0.511838
1080.000000	0.511876
1081.000000	0.511914
1082.000000	0.512146
1083.000000	0.512165
1084.000000	0.511857
1085.000000	0.512112
1086.000000	0.512549
1087.000000	0.512919
1088.000000	0.513856
1089.000000	0.514137
1090.000000	0.513792
1091.000000	0.513537
1092.000000	0.513621
1093.000000	0.513473
1094.000000	0.513596
1095.000000	0.514025
1096.000000	0.514253
1097.000000	0.514471
1098.000000	0.514498
1099.000000	0.514122
1100.000000	0.514370
1101.000000	0.514713
1102.000000	0.514967
1103.000000	0.515703
1104.000000	0.516091
1105.000000	0.516054
1106.000000	0.516211
1107.000000	0.516383
1108.000000	0.516416
1109.000000	0.516572
1110.000000	0.516495
1111.000000	0.516501
1112.000000	0.516445
1113.000000	0.516463
1114.000000	0.516400
1115.000000	0.516646
1116.000000	0.517181
1117.000000	0.517395
1118.000000	0.517711
1119.000000	0.517775
1120.000000	0.517464
1121.000000	0.517337
1122.000000	0.517401
1123.000000	0.517675
1124.000000	0.517640
1125.000000	0.517736
1126.000000	0.517835
1127.000000	0.517858
1128.000000	0.517856
1129.000000	0.517904
1130.000000	0.517953
1131.000000	0.517970
1132.000000	0.518006
1133.000000	0.518279
1134.000000	0.518261
1135.000000	0.518012
1136.000000	0.517830
1137.000000	0.517561
1138.000000	0.517178
1139.000000	0.516781
1140.000000	0.516683
1141.000000	0.516498
1142.000000	0.516411
1143.000000	0.516601
1144.000000	0.516741
1145.000000	0.516537
1146.000000	0.516221
1147.000000	0.516016
1148.000000	0.515615
1149.000000	0.515395
1150.000000	0.515258
1151.000000	0.515237
1152.000000	0.515249
1153.000000	0.515221
1154.000000	0.515222
1155.000000	0.515151
1156.000000	0.514962
1157.000000	0.514894
1158.000000	0.514836
1159.000000	0.514749
1160.000000	0.514646
1161.000000	0.514570
1162.000000	0.514571
1163.000000	0.514685
1164.000000	0.514933
1165.000000	0.515069
1166.000000	0.515200
1167.000000	0.515345
1168.000000	0.515247
1169.000000	0.514919
1170.000000	0.514938
1171.000000	0.515119
1172.000000	0.515212
1173.000000	0.515479
1174.000000	0.515468
1175.000000	0.515090
1176.000000	0.514867
1177.000000	0.514762
1178.000000	0.514670
1179.000000	0.514645
1180.000000	0.514461
1181.000000	0.514310
1182.000000	0.514196
1183.000000	0.514079
1184.000000	0.514162
1185.000000	0.514121
1186.000000	0.514128
1187.000000	0.514030
1188.000000	0.513832
1189.000000	0.513659
1190.000000	0.513553
1191.000000	0.513424
1192.000000	0.513416
1193.000000	0.513530
1194.000000	0.513446
1195.000000	0.513514
1196.000000	0.513721
1197.000000	0.513732
1198.000000	0.513678
1199.000000	0.513710
1200.000000	0.513709
1201.000000	0.513611
1202.000000	0.513511
1203.000000	0.513537
1204.000000	0.513621
1205.000000	0.513668
1206.000000	0.513668
1207.000000	0.513959
1208.000000	0.513953
1209.000000	0.513854
1210.000000	0.513773
1211.000000	0.513610
1212.000000	0.513516
1213.000000	0.513459
1214.000000	0.513464
1215.000000	0.513539
1216.000000	0.513548
1217.000000	0.513440
1218.000000	0.513439
1219.000000	0.513515
1220.000000	0.513670
1221.000000	0.513798
1222.000000	0.513810
1223.000000	0.513678
1224.000000	0.513555
1225.000000	0.513412
1226.000000	0.513295
1227.000000	0.513208
1228.000000	0.513131
1229.000000	0.513089
1230.000000	0.513082
1231.000000	0.513064
1232.000000	0.513315
1233.000000	0.513523
1234.000000	0.513738
1235.000000	0.513837
1236.000000	0.513679
1237.000000	0.513712
1238.000000	0.513668
1239.000000	0.513616
1240.000000	0.513605
1241.000000	0.513676
1242.000000	0.513543
1243.000000	0.513469
1244.000000	0.513337
1245.000000	0.513023
1246.000000	0.512755
1247.000000	0.512784
1248.000000	0.512858
1249.000000	0.512953
1250.000000	0.513142
1251.000000	0.513220
1252.000000	0.513179
1253.000000	0.513144
1254.000000	0.513077
1255.000000	0.512753
1256.000000	0.512639
1257.000000	0.512723
1258.000000	0.512765
1259.000000	0.512770
1260.000000	0.512835
1261.000000	0.512784
1262.000000	0.512733
1263.000000	0.512701
1264.000000	0.512704
1265.000000	0.512715
1266.000000	0.512669
1267.000000	0.512537
1268.000000	0.512445
1269.000000	0.512241
1270.000000	0.512138
1271.000000	0.512138
1272.000000	0.512091
1273.000000	0.512122
1274.000000	0.512189
1275.000000	0.512216
1276.000000	0.512266
1277.000000	0.512392
1278.000000	0.512437
1279.000000	0.512440
1280.000000	0.512390
1281.000000	0.512278
1282.000000	0.512084
1283.000000	0.512073
1284.000000	0.512065
1285.000000	0.511917
1286.000000	0.511631
1287.000000	0.511588
1288.000000	0.511473
1289.000000	0.511449
1290.000000	0.511508
1291.000000	0.511432
1292.000000	0.511339
1293.000000	0.511221
1294.000000	0.511272
1295.000000	0.511406
1296.000000	0.511274
1297.000000	0.511162
1298.000000	0.511134
1299.000000	0.511078
1300.000000	0.511283
1301.000000	0.511329
1302.000000	0.511182
1303.000000	0.510964
1304.000000	0.510832
1305.000000	0.510784
1306.000000	0.510727
1307.000000	0.510871
1308.000000	0.510882
1309.000000	0.510785
1310.000000	0.510665
1311.000000	0.510606
1312.000000	0.510303
1313.000000	0.510022
1314.000000	0.509805
1315.000000	0.509509
1316.000000	0.509390
1317.000000	0.509111
1318.000000	0.508741
1319.000000	0.508376
1320.000000	0.507991
1321.000000	0.507655
1322.000000	0.507435
1323.000000	0.507365
1324.000000	0.507202
1325.000000	0.506876
1326.000000	0.506650
1327.000000	0.506248
1328.000000	0.505784
1329.000000	0.505334
1330.000000	0.504926
1331.000000	0.504527
1332.000000	0.504245
1333.000000	0.503853
1334.000000	0.503514
1335.000000	0.503219
1336.000000	0.502886
1337.000000	0.502513
1338.000000	0.502094
1339.000000	0.501654
1340.000000	0.501187
1341.000000	0.500768
1342.000000	0.500428
1343.000000	0.500089
1344.000000	0.499675
1345.000000	0.499292
1346.000000	0.499041
1347.000000	0.498577
1348.000000	0.498237
1349.000000	0.497794
1350.000000	0.497339
1351.000000	0.496964
1352.000000	0.496511
1353.000000	0.496123
1354.000000	0.495825
1355.000000	0.495411
1356.000000	0.494961
1357.000000	0.494406
1358.000000	0.493875
1359.000000	0.493398
1360.000000	0.492939
1361.000000	0.492720
1362.000000	0.492192
1363.000000	0.491405
1364.000000	0.490852
1365.000000	0.490303
1366.000000	0.489727
1367.000000	0.489304
1368.000000	0.488575
1369.000000	0.487856
1370.000000	0.486748
1371.000000	0.485528
1372.000000	0.484565
1373.000000	0.483295
1374.000000	0.481781
1375.000000	0.480000
1376.000000	0.477829
1377.000000	0.475420
1378.000000	0.472465
1379.000000	0.469049
1380.000000	0.465184
1381.000000	0.460446
1382.000000	0.455420
1383.000000	0.450221
1384.000000	0.444686
1385.000000	0.439445
1386.000000	0.434522
1387.000000	0.430101
1388.000000	0.426504
1389.000000	0.423606
1390.000000	0.421516
1391.000000	0.420104
1392.000000	0.419288
1393.000000	0.418967
1394.000000	0.419662
1395.000000	0.420017
1396.000000	0.420865
1397.000000	0.421103
1398.000000	0.421063
1399.000000	0.420780
1400.000000	0.420356
1401.000000	0.419421
1402.000000	0.418192
1403.000000	0.416683
1404.000000	0.415030
1405.000000	0.413237
1406.000000	0.411499
1407.000000	0.409920
1408.000000	0.408163
1409.000000	0.406530
1410.000000	0.405188
1411.000000	0.403911
1412.000000	0.402666
1413.000000	0.401613
1414.000000	0.400648
1415.000000	0.399680
1416.000000	0.398924
1417.000000	0.398205
1418.000000	0.397430
1419.000000	0.396979
1420.000000	0.396490
1421.000000	0.396027
1422.000000	0.395691
1423.000000	0.395432
1424.000000	0.395031
1425.000000	0.394796
1426.000000	0.394548
1427.000000	0.394136
1428.000000	0.393882
1429.000000	0.393718
1430.000000	0.393616
1431.000000	0.393575
1432.000000	0.393349
1433.000000	0.393016
1434.000000	0.392732
1435.000000	0.392453
1436.000000	0.392166
1437.000000	0.391902
1438.000000	0.391652
1439.000000	0.391440
1440.000000	0.391216
1441.000000	0.391094
1442.000000	0.390885
1443.000000	0.390510
1444.000000	0.390184
1445.000000	0.389911
1446.000000	0.389611
1447.000000	0.389279
1448.000000	0.388884
1449.000000	0.388443
1450.000000	0.387984
1451.000000	0.387610
1452.000000	0.387260
1453.000000	0.386945
1454.000000	0.386622
1455.000000	0.386368
1456.000000	0.386229
1457.000000	0.386035
1458.000000	0.385938
1459.000000	0.385857
1460.000000	0.385683
1461.000000	0.385641
1462.000000	0.385643
1463.000000	0.385526
1464.000000	0.385569
1465.000000	0.385696
1466.000000	0.385708
1467.000000	0.385900
1468.000000	0.386227
1469.000000	0.386575
1470.000000	0.386863
1471.000000	0.387255
1472.000000	0.387678
1473.000000	0.388201
1474.000000	0.388810
1475.000000	0.389422
1476.000000	0.389993
1477.000000	0.390602
1478.000000	0.391316
1479.000000	0.392044
1480.000000	0.392722
1481.000000	0.393403
1482.000000	0.394121
1483.000000	0.394909
1484.000000	0.395762
1485.000000	0.396511
1486.000000	0.397179
1487.000000	0.397947
1488.000000	0.398673
1489.000000	0.399557
1490.000000	0.400589
1491.000000	0.401389
1492.000000	0.402020
1493.000000	0.402749
1494.000000	0.403290
1495.000000	0.403934
1496.000000	0.404775
1497.000000	0.405419
1498.000000	0.406010
1499.000000	0.406497
1500.000000	0.407032
1501.000000	0.407591
1502.000000	0.408221
1503.000000	0.408971
1504.000000	0.409652
1505.000000	0.410246
1506.000000	0.410840
1507.000000	0.411436
1508.000000	0.412073
1509.000000	0.412674
1510.000000	0.413280
1511.000000	0.413906
1512.000000	0.414378
1513.000000	0.414892
1514.000000	0.415482
1515.000000	0.415945
1516.000000	0.416493
1517.000000	0.416953
1518.000000	0.417206
1519.000000	0.417397
1520.000000	0.417685
1521.000000	0.417933
1522.000000	0.418337
1523.000000	0.418815
1524.000000	0.419012
1525.000000	0.419332
1526.000000	0.419650
1527.000000	0.419881
1528.000000	0.420302
1529.000000	0.420624
1530.000000	0.420823
1531.000000	0.421188
1532.000000	0.421527
1533.000000	0.421741
1534.000000	0.421916
1535.000000	0.422086
1536.000000	0.422190
1537.000000	0.422553
1538.000000	0.422990
1539.000000	0.423142
1540.000000	0.423325
1541.000000	0.423589
1542.000000	0.423807
1543.000000	0.424122
1544.000000	0.424425
1545.000000	0.424624
1546.000000	0.424809
1547.000000	0.424954
1548.000000	0.425105
1549.000000	0.425180
1550.000000	0.425192
1551.000000	0.425282
1552.000000	0.425379
1553.000000	0.425500
1554.000000	0.425504
1555.000000	0.425513
1556.000000	0.425676
1557.000000	0.425690
1558.000000	0.425814
1559.000000	0.426017
1560.000000	0.426143
1561.000000	0.426302
1562.000000	0.426375
1563.000000	0.426465
1564.000000	0.426540
1565.000000	0.426523
1566.000000	0.426479
1567.000000	0.426556
1568.000000	0.426579
1569.000000	0.426639
1570.000000	0.426694
1571.000000	0.426743
1572.000000	0.426787
1573.000000	0.426796
1574.000000	0.426895
1575.000000	0.427128
1576.000000	0.427270
1577.000000	0.427379
1578.000000	0.427462
1579.000000	0.427522
1580.000000	0.427607
1581.000000	0.427844
1582.000000	0.427970
1583.000000	0.428101
1584.000000	0.428064
1585.000000	0.427968
1586.000000	0.428001
1587.000000	0.427956
1588.000000	0.427974
1589.000000	0.428129
1590.000000	0.428217
1591.000000	0.428289
1592.000000	0.428435
1593.000000	0.428731
1594.000000	0.428861
1595.000000	0.429011
1596.000000	0.429094
1597.000000	0.429039
1598.000000	0.429117
1599.000000	0.429362
1600.000000	0.429387
1601.000000	0.429444
1602.000000	0.429497
1603.000000	0.429446
1604.000000	0.429422
1605.000000	0.429523
1606.000000	0.429574
1607.000000	0.429539
1608.000000	0.429679
1609.000000	0.430119
1610.000000	0.430223
1611.000000	0.430304
1612.000000	0.430324
1613.000000	0.430193
1614.000000	0.430210
1615.000000	0.430369
1616.000000	0.430598
1617.000000	0.430884
1618.000000	0.431070
1619.000000	0.431217
1620.000000	0.431428
1621.000000	0.431637
1622.000000	0.431943
1623.000000	0.432329
1624.000000	0.432634
1625.000000	0.432755
1626.000000	0.432854
1627.000000	0.432861
1628.000000	0.433151
1629.000000	0.433548
1630.000000	0.433907
1631.000000	0.434338
1632.000000	0.434644
1633.000000	0.434870
1634.000000	0.435085
1635.000000	0.435412
1636.000000	0.435599
1637.000000	0.435567
1638.000000	0.435772
1639.000000	0.436134
1640.000000	0.436381
1641.000000	0.436858
1642.000000	0.437142
1643.000000	0.437318
1644.000000	0.437507
1645.000000	0.437620
1646.000000	0.437734
1647.000000	0.437841
1648.000000	0.437986
1649.000000	0.438307
1650.000000	0.438574
1651.000000	0.438912
1652.000000	0.439198
1653.000000	0.439359
1654.000000	0.439609
1655.000000	0.439799
1656.000000	0.439938
1657.000000	0.440189
1658.000000	0.440406
1659.000000	0.440726
1660.000000	0.441034
1661.000000	0.441237
1662.000000	0.441471
1663.000000	0.441662
1664.000000	0.441869
1665.000000	0.442046
1666.000000	0.442422
1667.000000	0.442794
1668.000000	0.443087
1669.000000	0.443473
1670.000000	0.443594
1671.000000	0.443651
1672.000000	0.443811
1673.000000	0.443879
1674.000000	0.444073
1675.000000	0.444293
1676.000000	0.444559
1677.000000	0.444558
1678.000000	0.444567
1679.000000	0.444677
1680.000000	0.444590
1681.000000	0.444831
1682.000000	0.445205
1683.000000	0.445425
1684.000000	0.445765
1685.000000	0.445876
1686.000000	0.445674
1687.000000	0.445652
1688.000000	0.445682
1689.000000	0.445766
1690.000000	0.445841
1691.000000	0.446079
1692.000000	0.446306
1693.000000	0.446387
1694.000000	0.446516
1695.000000	0.446668
1696.000000	0.446589
1697.000000	0.446509
1698.000000	0.446528
1699.000000	0.446526
1700.000000	0.446386
1701.000000	0.446534
1702.000000	0.446599
1703.000000	0.446617
1704.000000	0.447036
1705.000000	0.447113
1706.000000	0.446905
1707.000000	0.446886
1708.000000	0.446657
1709.000000	0.446601
1710.000000	0.446954
1711.000000	0.447197
1712.000000	0.447549
1713.000000	0.447758
1714.000000	0.447921
1715.000000	0.448120
1716.000000	0.448341
1717.000000	0.448440
1718.000000	0.448392
1719.000000	0.448463
1720.000000	0.448608
1721.000000	0.448668
1722.000000	0.448771
1723.000000	0.448899
1724.000000	0.449000
1725.000000	0.449075
1726.000000	0.449042
1727.000000	0.449161
1728.000000	0.449204
1729.000000	0.449146
1730.000000	0.449395
1731.000000	0.449472
1732.000000	0.449363
1733.000000	0.449403
1734.000000	0.449279
1735.000000	0.449364
1736.000000	0.449469
1737.000000	0.449560
1738.000000	0.449860
1739.000000	0.449960
1740.000000	0.449843
1741.000000	0.449938
1742.000000	0.450185
1743.000000	0.450206
1744.000000	0.450157
1745.000000	0.450121
1746.000000	0.449877
1747.000000	0.450149
1748.000000	0.450123
1749.000000	0.449869
1750.000000	0.449736
1751.000000	0.449747
1752.000000	0.449799
1753.000000	0.449858
1754.000000	0.449805
1755.000000	0.449439
1756.000000	0.449232
1757.000000	0.449075
1758.000000	0.448970
1759.000000	0.448901
1760.000000	0.448904
1761.000000	0.448926
1762.000000	0.448937
1763.000000	0.449161
1764.000000	0.449131
1765.000000	0.448810
1766.000000	0.448712
1767.000000	0.448464
1768.000000	0.448275
1769.000000	0.448412
1770.000000	0.448434
1771.000000	0.448235
1772.000000	0.448252
1773.000000	0.448302
1774.000000	0.448417
1775.000000	0.448873
1776.000000	0.448914
1777.000000	0.448681
1778.000000	0.448624
1779.000000	0.448342
1780.000000	0.448408
1781.000000	0.448725
1782.000000	0.448898
1783.000000	0.449195
1784.000000	0.449421
1785.000000	0.449450
1786.000000	0.449598
1787.000000	0.449760
1788.000000	0.449876
1789.000000	0.450025
1790.000000	0.450088
1791.000000	0.450117
1792.000000	0.450305
1793.000000	0.450412
1794.000000	0.450484
1795.000000	0.450585
1796.000000	0.450602
1797.000000	0.450655
1798.000000	0.450778
1799.000000	0.450859
1800.000000	0.450960
1801.000000	0.450618
1802.000000	0.450870
1803.000000	0.451109
1804.000000	0.451253
1805.000000	0.451731
1806.000000	0.451502
1807.000000	0.450598
1808.000000	0.450233
1809.000000	0.449968
1810.000000	0.448845
1811.000000	0.448858
1812.000000	0.449960
1813.000000	0.449737
1814.000000	0.448927
1815.000000	0.449078
1816.000000	0.449174
1817.000000	0.449107
1818.000000	0.449806
1819.000000	0.450695
1820.000000	0.450253
1821.000000	0.449217
1822.000000	0.448754
1823.000000	0.448002
1824.000000	0.447533
1825.000000	0.447199
1826.000000	0.447224
1827.000000	0.447235
1828.000000	0.447493
1829.000000	0.448516
1830.000000	0.448512
1831.000000	0.448337
1832.000000	0.447764
1833.000000	0.447473
1834.000000	0.446927
1835.000000	0.446510
1836.000000	0.446238
1837.000000	0.445843
1838.000000	0.445178
1839.000000	0.444317
1840.000000	0.443856
1841.000000	0.442830
1842.000000	0.441922
1843.000000	0.440607
1844.000000	0.440014
1845.000000	0.439591
1846.000000	0.439232
1847.000000	0.439272
1848.000000	0.438746
1849.000000	0.438340
1850.000000	0.437519
1851.000000	0.436924
1852.000000	0.436458
1853.000000	0.435876
1854.000000	0.435262
1855.000000	0.434105
1856.000000	0.432460
1857.000000	0.430745
1858.000000	0.429005
1859.000000	0.427178
1860.000000	0.426006
1861.000000	0.424640
1862.000000	0.422844
1863.000000	0.420727
1864.000000	0.418881
1865.000000	0.417156
1866.000000	0.414910
1867.000000	0.412799
1868.000000	0.410111
1869.000000	0.406030
1870.000000	0.401768
1871.000000	0.397344
1872.000000	0.393001
1873.000000	0.389189
1874.000000	0.386517
1875.000000	0.382435
1876.000000	0.377858
1877.000000	0.372653
1878.000000	0.366661
1879.000000	0.360626
1880.000000	0.355775
1881.000000	0.351058
1882.000000	0.345487
1883.000000	0.339509
1884.000000	0.333104
1885.000000	0.324856
1886.000000	0.317742
1887.000000	0.310891
1888.000000	0.303963
1889.000000	0.296756
1890.000000	0.290147
1891.000000	0.282565
1892.000000	0.274968
1893.000000	0.268471
1894.000000	0.261502
1895.000000	0.254832
1896.000000	0.248691
1897.000000	0.242688
1898.000000	0.236551
1899.000000	0.231577
1900.000000	0.227301
1901.000000	0.223683
1902.000000	0.220304
1903.000000	0.217140
1904.000000	0.214801
1905.000000	0.212508
1906.000000	0.210150
1907.000000	0.207947
1908.000000	0.206167
1909.000000	0.204518
1910.000000	0.203368
1911.000000	0.203026
1912.000000	0.202616
1913.000000	0.201790
1914.000000	0.201540
1915.000000	0.201243
1916.000000	0.201140
1917.000000	0.201152
1918.000000	0.201796
1919.000000	0.201574
1920.000000	0.201105
1921.000000	0.201034
1922.000000	0.200880
1923.000000	0.200871
1924.000000	0.201074
1925.000000	0.201860
1926.000000	0.202658
1927.000000	0.203039
1928.000000	0.203536
1929.000000	0.204365
1930.000000	0.204569
1931.000000	0.204649
1932.000000	0.205497
1933.000000	0.206016
1934.000000	0.206160
1935.000000	0.206576
1936.000000	0.206922
1937.000000	0.207483
1938.000000	0.208280
1939.000000	0.208790
1940.000000	0.209202
1941.000000	0.209368
1942.000000	0.209529
1943.000000	0.209976
1944.000000	0.210300
1945.000000	0.210668
1946.000000	0.211037
1947.000000	0.210789
1948.000000	0.210269
1949.000000	0.210205
1950.000000	0.209941
1951.000000	0.209523
1952.000000	0.208980
1953.000000	0.209151
1954.000000	0.208944
1955.000000	0.208634
1956.000000	0.208612
1957.000000	0.208597
1958.000000	0.208901
1959.000000	0.209214
1960.000000	0.209558
1961.000000	0.209684
1962.000000	0.209826
1963.000000	0.209687
1964.000000	0.209677
1965.000000	0.210223
1966.000000	0.211183
1967.000000	0.212166
1968.000000	0.213509
1969.000000	0.214060
1970.000000	0.214165
1971.000000	0.213987
1972.000000	0.213414
1973.000000	0.213453
1974.000000	0.214102
1975.000000	0.214562
1976.000000	0.215284
1977.000000	0.216153
1978.000000	0.216404
1979.000000	0.216550
1980.000000	0.217231
1981.000000	0.217999
1982.000000	0.218989
1983.000000	0.220392
1984.000000	0.221070
1985.000000	0.220901
1986.000000	0.221530
1987.000000	0.222254
1988.000000	0.223058
1989.000000	0.224444
1990.000000	0.226061
1991.000000	0.226797
1992.000000	0.227404
1993.000000	0.228057
1994.000000	0.228978
1995.000000	0.230461
1996.000000	0.231885
1997.000000	0.233145
1998.000000	0.234418
1999.000000	0.235558
2000.000000	0.236485
2001.000000	0.237499
2002.000000	0.238734
2003.000000	0.240289
2004.000000	0.241262
2005.000000	0.242515
2006.000000	0.243454
2007.000000	0.244227
2008.000000	0.245544
2009.000000	0.247309
2010.000000	0.248695
2011.000000	0.250382
2012.000000	0.251572
2013.000000	0.252297
2014.000000	0.252919
2015.000000	0.253684
2016.000000	0.254256
2017.000000	0.255595
2018.000000	0.257709
2019.000000	0.259869
2020.000000	0.262230
2021.000000	0.263811
2022.000000	0.264650
2023.000000	0.265604
2024.000000	0.266095
2025.000000	0.266931
2026.000000	0.267579
2027.000000	0.268831
2028.000000	0.269762
2029.000000	0.271184
2030.000000	0.273448
2031.000000	0.274925
2032.000000	0.276497
2033.000000	0.278052
2034.000000	0.279228
2035.000000	0.279830
2036.000000	0.280874
2037.000000	0.282392
2038.000000	0.283272
2039.000000	0.283912
2040.000000	0.284658
2041.000000	0.285038
2042.000000	0.285174
2043.000000	0.286089
2044.000000	0.286684
2045.000000	0.287219
2046.000000	0.288655
2047.000000	0.289845
2048.000000	0.291014
2049.000000	0.292475
2050.000000	0.293937
2051.000000	0.294961
2052.000000	0.295717
2053.000000	0.296498
2054.000000	0.297150
2055.000000	0.298245
2056.000000	0.299326
2057.000000	0.300690
2058.000000	0.301809
2059.000000	0.302577
2060.000000	0.303592
2061.000000	0.304980
2062.000000	0.305442
2063.000000	0.305518
2064.000000	0.305760
2065.000000	0.305301
2066.000000	0.305495
2067.000000	0.306281
2068.000000	0.307688
2069.000000	0.308979
2070.000000	0.310143
2071.000000	0.311674
2072.000000	0.312833
2073.000000	0.313530
2074.000000	0.314488
2075.000000	0.315217
2076.000000	0.315540
2077.000000	0.316136
2078.000000	0.316553
2079.000000	0.317540
2080.000000	0.318983
2081.000000	0.320321
2082.000000	0.322387
2083.000000	0.323662
2084.000000	0.324406
2085.000000	0.325213
2086.000000	0.324893
2087.000000	0.325320
2088.000000	0.325866
2089.000000	0.325822
2090.000000	0.326593
2091.000000	0.328060
2092.000000	0.329125
2093.000000	0.330604
2094.000000	0.331845
2095.000000	0.333122
2096.000000	0.334120
2097.000000	0.334833
2098.000000	0.335119
2099.000000	0.336479
2100.000000	0.337447
2101.000000	0.338852
2102.000000	0.340351
2103.000000	0.340781
2104.000000	0.341301
2105.000000	0.341661
2106.000000	0.341829
2107.000000	0.342191
2108.000000	0.342133
2109.000000	0.342617
2110.000000	0.343419
2111.000000	0.343861
2112.000000	0.344310
2113.000000	0.344672
2114.000000	0.344476
2115.000000	0.345212
2116.000000	0.345296
2117.000000	0.345364
2118.000000	0.346499
2119.000000	0.346542
2120.000000	0.346953
2121.000000	0.347776
2122.000000	0.348300
2123.000000	0.348346
2124.000000	0.348895
2125.000000	0.349870
2126.000000	0.350762
2127.000000	0.351776
2128.000000	0.352764
2129.000000	0.353867
2130.000000	0.354697
2131.000000	0.354612
2132.000000	0.354245
2133.000000	0.354666
2134.000000	0.354180
2135.000000	0.354627
2136.000000	0.356657
2137.000000	0.357419
2138.000000	0.358128
2139.000000	0.358196
2140.000000	0.357281
2141.000000	0.356801
2142.000000	0.355725
2143.000000	0.355240
2144.000000	0.355227
2145.000000	0.355573
2146.000000	0.356534
2147.000000	0.358055
2148.000000	0.357819
2149.000000	0.359071
2150.000000	0.359824
2151.000000	0.359065
2152.000000	0.359392
2153.000000	0.359282
2154.000000	0.359123
2155.000000	0.358169
2156.000000	0.358292
2157.000000	0.359343
2158.000000	0.359732
2159.000000	0.360595
2160.000000	0.360987
2161.000000	0.360152
2162.000000	0.360467
2163.000000	0.361059
2164.000000	0.361422
2165.000000	0.362221
2166.000000	0.363597
2167.000000	0.363210
2168.000000	0.363623
2169.000000	0.364040
2170.000000	0.362848
2171.000000	0.361989
2172.000000	0.360597
2173.000000	0.360031
2174.000000	0.359109
2175.000000	0.359471
2176.000000	0.361719
2177.000000	0.362407
2178.000000	0.363714
2179.000000	0.363835
2180.000000	0.361391
2181.000000	0.361090
2182.000000	0.361341
2183.000000	0.360158
2184.000000	0.359951
2185.000000	0.360484
2186.000000	0.358813
2187.000000	0.358479
2188.000000	0.358945
2189.000000	0.359255
2190.000000	0.360964
2191.000000	0.361501
2192.000000	0.361564
2193.000000	0.360853
2194.000000	0.360408
2195.000000	0.359415
2196.000000	0.358950
2197.000000	0.358449
2198.000000	0.358241
2199.000000	0.358495
2200.000000	0.358134
2201.000000	0.357520
2202.000000	0.357687
2203.000000	0.357643
2204.000000	0.357866
2205.000000	0.358131
2206.000000	0.358702
2207.000000	0.358361
2208.000000	0.358256
2209.000000	0.359687
2210.000000	0.359142
2211.000000	0.356352
2212.000000	0.355387
2213.000000	0.354554
2214.000000	0.353955
2215.000000	0.353155
2216.000000	0.352880
2217.000000	0.352690
2218.000000	0.350584
2219.000000	0.351293
2220.000000	0.354721
2221.000000	0.356630
2222.000000	0.359944
2223.000000	0.361754
2224.000000	0.362300
2225.000000	0.363234
2226.000000	0.361372
2227.000000	0.360166
2228.000000	0.359367
2229.000000	0.356817
2230.000000	0.356808
2231.000000	0.358478
2232.000000	0.359688
2233.000000	0.358578
2234.000000	0.357753
2235.000000	0.357033
2236.000000	0.356306
2237.000000	0.355786
2238.000000	0.355573
2239.000000	0.355342
2240.000000	0.354942
2241.000000	0.353610
2242.000000	0.353718
2243.000000	0.354938
2244.000000	0.355751
2245.000000	0.358811
2246.000000	0.359222
2247.000000	0.356883
2248.000000	0.355917
2249.000000	0.355080
2250.000000	0.352159
2251.000000	0.351734
2252.000000	0.351434
2253.000000	0.348321
2254.000000	0.347620
2255.000000	0.347256
2256.000000	0.346538
2257.000000	0.347273
2258.000000	0.347031
2259.000000	0.345796
2260.000000	0.345259
2261.000000	0.345067
2262.000000	0.345719
2263.000000	0.345593
2264.000000	0.345164
2265.000000	0.345334
2266.000000	0.345334
2267.000000	0.345088
2268.000000	0.346152
2269.000000	0.345151
2270.000000	0.342176
2271.000000	0.341120
2272.000000	0.340808
2273.000000	0.339105
2274.000000	0.336437
2275.000000	0.335015
2276.000000	0.333084
2277.000000	0.331628
2278.000000	0.331179
2279.000000	0.331309
2280.000000	0.328239
2281.000000	0.324345
2282.000000	0.321353
2283.000000	0.319191
2284.000000	0.319519
2285.000000	0.317565
2286.000000	0.315160
2287.000000	0.312920
2288.000000	0.308891
2289.000000	0.305539
2290.000000	0.303577
2291.000000	0.301797
2292.000000	0.300374
2293.000000	0.300441
2294.000000	0.300016
2295.000000	0.300829
2296.000000	0.298804
2297.000000	0.295491
2298.000000	0.292601
2299.000000	0.286919
2300.000000	0.283705
2301.000000	0.281647
2302.000000	0.279009
2303.000000	0.278178
2304.000000	0.275676
2305.000000	0.272403
2306.000000	0.269794
2307.000000	0.266215
2308.000000	0.263126
2309.000000	0.260500
2310.000000	0.258327
2311.000000	0.258793
2312.000000	0.257389
2313.000000	0.256871
2314.000000	0.258525
2315.000000	0.259879
2316.000000	0.261124
2317.000000	0.263340
2318.000000	0.265538
2319.000000	0.263925
2320.000000	0.264357
2321.000000	0.267102
2322.000000	0.267835
2323.000000	0.271519
2324.000000	0.273102
2325.000000	0.273191
2326.000000	0.276116
2327.000000	0.277230
2328.000000	0.279779
2329.000000	0.282942
2330.000000	0.282122
2331.000000	0.280479
2332.000000	0.278390
2333.000000	0.275092
2334.000000	0.273788
2335.000000	0.274102
2336.000000	0.276468
2337.000000	0.277773
2338.000000	0.280264
2339.000000	0.280985
2340.000000	0.281215
2341.000000	0.280691
2342.000000	0.279432
2343.000000	0.278830
2344.000000	0.276363
2345.000000	0.275605
2346.000000	0.276453
2347.000000	0.275041
2348.000000	0.273361
2349.000000	0.272338
2350.000000	0.267874
2351.000000	0.265933
2352.000000	0.263566
2353.000000	0.260628
2354.000000	0.258200
2355.000000	0.256435
2356.000000	0.254804
2357.000000	0.253425
2358.000000	0.253496
2359.000000	0.250999
2360.000000	0.248205
2361.000000	0.246524
2362.000000	0.244990
2363.000000	0.242614
2364.000000	0.241441
2365.000000	0.243228
2366.000000	0.244136
2367.000000	0.248638
2368.000000	0.252381
2369.000000	0.249813
2370.000000	0.245999
2371.000000	0.241219
2372.000000	0.236618
2373.000000	0.234827
2374.000000	0.238787
2375.000000	0.242350
2376.000000	0.239935
2377.000000	0.239332
2378.000000	0.236353
2379.000000	0.230527
2380.000000	0.232057
2381.000000	0.234214
2382.000000	0.229882
2383.000000	0.224294
2384.000000	0.219319
2385.000000	0.214111
2386.000000	0.207626
2387.000000	0.205195
2388.000000	0.207340
2389.000000	0.207644
2390.000000	0.210332
2391.000000	0.212073
2392.000000	0.211863
2393.000000	0.208299
2394.000000	0.206019
2395.000000	0.209947
2396.000000	0.208010
2397.000000	0.209141
2398.000000	0.213592
2399.000000	0.213094
2400.000000	0.217170
2401.000000	0.221318
2402.000000	0.223127
2403.000000	0.231518
2404.000000	0.234491
2405.000000	0.228025
2406.000000	0.223549
2407.000000	0.213021
2408.000000	0.209115
2409.000000	0.214159
2410.000000	0.216416
2411.000000	0.229688
2412.000000	0.234632
2413.000000	0.231702
2414.000000	0.235388
2415.000000	0.223414
2416.000000	0.212976
2417.000000	0.211639
2418.000000	0.202807
2419.000000	0.199669
2420.000000	0.201579
2421.000000	0.201893
2422.000000	0.206721
2423.000000	0.209277
2424.000000	0.210610
2425.000000	0.214548
2426.000000	0.221546
2427.000000	0.231130
2428.000000	0.236473
2429.000000	0.232694
2430.000000	0.222570
2431.000000	0.214547
2432.000000	0.206006
2433.000000	0.203712
2434.000000	0.196395
2435.000000	0.189479
2436.000000	0.197840
2437.000000	0.204379
2438.000000	0.214470
2439.000000	0.220033
2440.000000	0.210677
2441.000000	0.192632
2442.000000	0.181619
2443.000000	0.182076
2444.000000	0.177497
2445.000000	0.188550
2446.000000	0.205882
2447.000000	0.215192
2448.000000	0.232689
2449.000000	0.238022
2450.000000	0.230753
2451.000000	0.219388
2452.000000	0.204730
2453.000000	0.193464
2454.000000	0.187327
2455.000000	0.182219
2456.000000	0.170317
2457.000000	0.163343
2458.000000	0.162184
2459.000000	0.156531
2460.000000	0.158876
2461.000000	0.167230
2462.000000	0.163193
2463.000000	0.161585
2464.000000	0.171273
2465.000000	0.169656
2466.000000	0.177194
2467.000000	0.192930
2468.000000	0.178953
2469.000000	0.172956
2470.000000	0.178781
2471.000000	0.184296
2472.000000	0.201661
2473.000000	0.186040
2474.000000	0.152625
2475.000000	0.125675
2476.000000	0.100407
2477.000000	0.103588
2478.000000	0.140184
2479.000000	0.186290
2480.000000	0.203856
2481.000000	0.248399
2482.000000	0.263510
2483.000000	0.219833
2484.000000	0.216174
2485.000000	0.204740
2486.000000	0.188702
2487.000000	0.207109
2488.000000	0.246066
2489.000000	0.246826
2490.000000	0.214668
2491.000000	0.151504
2492.000000	0.119205
2493.000000	0.126232
2494.000000	0.132290
2495.000000	0.143268
2496.000000	0.166393
2497.000000	0.207136
2498.000000	0.208436
2499.000000	0.209939
2500.000000	0.222715
