# Wavelength	SM1200H-10_HEX-60_FV7-30_00001.asd.rts.txt
350.000000	0.258594
351.000000	0.249236
352.000000	0.253035
353.000000	0.256831
354.000000	0.257504
355.000000	0.265986
356.000000	0.265385
357.000000	0.260369
358.000000	0.266683
359.000000	0.267143
360.000000	0.263746
361.000000	0.262423
362.000000	0.265493
363.000000	0.266953
364.000000	0.263956
365.000000	0.264213
366.000000	0.265993
367.000000	0.267251
368.000000	0.266464
369.000000	0.260897
370.000000	0.257180
371.000000	0.262526
372.000000	0.263755
373.000000	0.265154
374.000000	0.270125
375.000000	0.273605
376.000000	0.271591
377.000000	0.265620
378.000000	0.262577
379.000000	0.264625
380.000000	0.268695
381.000000	0.271210
382.000000	0.274247
383.000000	0.273157
384.000000	0.267545
385.000000	0.269053
386.000000	0.270661
387.000000	0.270915
388.000000	0.274051
389.000000	0.274112
390.000000	0.272482
391.000000	0.272639
392.000000	0.274830
393.000000	0.276485
394.000000	0.276139
395.000000	0.276866
396.000000	0.277794
397.000000	0.278261
398.000000	0.278066
399.000000	0.277029
400.000000	0.276138
401.000000	0.276639
402.000000	0.276959
403.000000	0.277342
404.000000	0.278188
405.000000	0.278247
406.000000	0.278831
407.000000	0.280149
408.000000	0.280162
409.000000	0.280975
410.000000	0.282192
411.000000	0.281988
412.000000	0.281807
413.000000	0.281943
414.000000	0.282387
415.000000	0.282816
416.000000	0.283167
417.000000	0.283479
418.000000	0.283967
419.000000	0.284274
420.000000	0.284388
421.000000	0.284558
422.000000	0.285029
423.000000	0.285553
424.000000	0.285864
425.000000	0.286204
426.000000	0.286569
427.000000	0.286900
428.000000	0.287104
429.000000	0.287677
430.000000	0.288498
431.000000	0.288551
432.000000	0.288604
433.000000	0.288795
434.000000	0.289127
435.000000	0.289233
436.000000	0.289413
437.000000	0.289853
438.000000	0.289698
439.000000	0.289721
440.000000	0.290300
441.000000	0.290556
442.000000	0.290759
443.000000	0.290928
444.000000	0.291139
445.000000	0.291427
446.000000	0.291737
447.000000	0.291795
448.000000	0.291736
449.000000	0.291932
450.000000	0.292551
451.000000	0.293192
452.000000	0.293506
453.000000	0.293427
454.000000	0.293440
455.000000	0.293859
456.000000	0.294453
457.000000	0.294552
458.000000	0.294508
459.000000	0.294761
460.000000	0.295538
461.000000	0.295862
462.000000	0.296129
463.000000	0.296382
464.000000	0.296553
465.000000	0.296840
466.000000	0.297146
467.000000	0.297348
468.000000	0.297931
469.000000	0.298296
470.000000	0.297995
471.000000	0.298029
472.000000	0.298270
473.000000	0.298580
474.000000	0.299041
475.000000	0.299182
476.000000	0.299202
477.000000	0.299655
478.000000	0.299907
479.000000	0.300143
480.000000	0.300430
481.000000	0.300552
482.000000	0.300750
483.000000	0.301003
484.000000	0.301351
485.000000	0.301605
486.000000	0.301879
487.000000	0.302136
488.000000	0.302395
489.000000	0.302661
490.000000	0.302903
491.000000	0.303147
492.000000	0.303411
493.000000	0.303563
494.000000	0.303791
495.000000	0.304127
496.000000	0.304528
497.000000	0.305056
498.000000	0.305339
499.000000	0.305469
500.000000	0.305903
501.000000	0.306152
502.000000	0.306301
503.000000	0.306565
504.000000	0.306902
505.000000	0.307242
506.000000	0.307530
507.000000	0.307755
508.000000	0.308041
509.000000	0.308379
510.000000	0.308638
511.000000	0.308990
512.000000	0.309421
513.000000	0.309701
514.000000	0.309919
515.000000	0.310200
516.000000	0.310574
517.000000	0.310795
518.000000	0.311086
519.000000	0.311497
520.000000	0.311774
521.000000	0.312044
522.000000	0.312388
523.000000	0.312827
524.000000	0.313146
525.000000	0.313342
526.000000	0.313585
527.000000	0.313935
528.000000	0.314291
529.000000	0.314590
530.000000	0.314787
531.000000	0.315050
532.000000	0.315363
533.000000	0.315641
534.000000	0.315908
535.000000	0.316154
536.000000	0.316376
537.000000	0.316641
538.000000	0.316973
539.000000	0.317346
540.000000	0.317654
541.000000	0.317888
542.000000	0.318113
543.000000	0.318391
544.000000	0.318679
545.000000	0.318912
546.000000	0.319289
547.000000	0.319642
548.000000	0.319971
549.000000	0.320274
550.000000	0.320631
551.000000	0.321000
552.000000	0.321262
553.000000	0.321551
554.000000	0.321893
555.000000	0.322283
556.000000	0.322667
557.000000	0.322931
558.000000	0.323222
559.000000	0.323604
560.000000	0.323980
561.000000	0.324356
562.000000	0.324612
563.000000	0.324878
564.000000	0.325230
565.000000	0.325578
566.000000	0.325902
567.000000	0.326202
568.000000	0.326487
569.000000	0.326881
570.000000	0.327250
571.000000	0.327561
572.000000	0.327894
573.000000	0.328249
574.000000	0.328533
575.000000	0.328713
576.000000	0.328979
577.000000	0.329310
578.000000	0.329711
579.000000	0.330038
580.000000	0.330343
581.000000	0.330647
582.000000	0.330933
583.000000	0.331227
584.000000	0.331555
585.000000	0.331940
586.000000	0.332338
587.000000	0.332659
588.000000	0.332850
589.000000	0.333111
590.000000	0.333368
591.000000	0.333588
592.000000	0.333885
593.000000	0.334218
594.000000	0.334541
595.000000	0.334809
596.000000	0.335016
597.000000	0.335263
598.000000	0.335558
599.000000	0.335711
600.000000	0.335880
601.000000	0.336109
602.000000	0.336252
603.000000	0.336422
604.000000	0.336667
605.000000	0.336885
606.000000	0.337057
607.000000	0.337225
608.000000	0.337473
609.000000	0.337657
610.000000	0.337825
611.000000	0.338052
612.000000	0.338237
613.000000	0.338419
614.000000	0.338649
615.000000	0.338780
616.000000	0.338953
617.000000	0.339128
618.000000	0.339183
619.000000	0.339310
620.000000	0.339462
621.000000	0.339579
622.000000	0.339721
623.000000	0.339868
624.000000	0.340003
625.000000	0.340181
626.000000	0.340334
627.000000	0.340466
628.000000	0.340710
629.000000	0.340944
630.000000	0.341027
631.000000	0.341137
632.000000	0.341323
633.000000	0.341541
634.000000	0.341706
635.000000	0.341807
636.000000	0.341976
637.000000	0.342219
638.000000	0.342326
639.000000	0.342496
640.000000	0.342772
641.000000	0.342875
642.000000	0.342986
643.000000	0.343148
644.000000	0.343359
645.000000	0.343550
646.000000	0.343731
647.000000	0.343885
648.000000	0.344026
649.000000	0.344202
650.000000	0.344392
651.000000	0.344548
652.000000	0.344655
653.000000	0.344798
654.000000	0.345009
655.000000	0.345207
656.000000	0.345396
657.000000	0.345535
658.000000	0.345691
659.000000	0.345883
660.000000	0.346076
661.000000	0.346212
662.000000	0.346326
663.000000	0.346486
664.000000	0.346657
665.000000	0.346806
666.000000	0.346947
667.000000	0.347076
668.000000	0.347284
669.000000	0.347493
670.000000	0.347669
671.000000	0.347854
672.000000	0.348062
673.000000	0.348263
674.000000	0.348415
675.000000	0.348560
676.000000	0.348718
677.000000	0.348912
678.000000	0.349060
679.000000	0.349220
680.000000	0.349421
681.000000	0.349511
682.000000	0.349673
683.000000	0.349866
684.000000	0.350091
685.000000	0.350223
686.000000	0.350362
687.000000	0.350605
688.000000	0.350785
689.000000	0.350911
690.000000	0.351050
691.000000	0.351208
692.000000	0.351314
693.000000	0.351439
694.000000	0.351619
695.000000	0.351827
696.000000	0.352024
697.000000	0.352175
698.000000	0.352410
699.000000	0.352683
700.000000	0.352932
701.000000	0.353061
702.000000	0.353189
703.000000	0.353331
704.000000	0.353428
705.000000	0.353584
706.000000	0.353773
707.000000	0.354009
708.000000	0.354174
709.000000	0.354318
710.000000	0.354512
711.000000	0.354663
712.000000	0.354819
713.000000	0.355008
714.000000	0.355158
715.000000	0.355271
716.000000	0.355387
717.000000	0.355532
718.000000	0.355682
719.000000	0.355781
720.000000	0.355835
721.000000	0.356023
722.000000	0.356172
723.000000	0.356290
724.000000	0.356430
725.000000	0.356515
726.000000	0.356629
727.000000	0.356735
728.000000	0.356845
729.000000	0.357010
730.000000	0.357192
731.000000	0.357363
732.000000	0.357491
733.000000	0.357611
734.000000	0.357713
735.000000	0.357761
736.000000	0.357895
737.000000	0.358023
738.000000	0.358166
739.000000	0.358342
740.000000	0.358389
741.000000	0.358532
742.000000	0.358663
743.000000	0.358717
744.000000	0.358770
745.000000	0.358837
746.000000	0.358945
747.000000	0.359011
748.000000	0.359130
749.000000	0.359264
750.000000	0.359338
751.000000	0.359359
752.000000	0.359380
753.000000	0.359434
754.000000	0.359515
755.000000	0.359598
756.000000	0.359699
757.000000	0.359786
758.000000	0.359902
759.000000	0.360019
760.000000	0.360069
761.000000	0.360237
762.000000	0.360330
763.000000	0.360333
764.000000	0.360424
765.000000	0.360501
766.000000	0.360570
767.000000	0.360644
768.000000	0.360710
769.000000	0.360806
770.000000	0.360926
771.000000	0.360984
772.000000	0.361099
773.000000	0.361170
774.000000	0.361183
775.000000	0.361241
776.000000	0.361313
777.000000	0.361345
778.000000	0.361361
779.000000	0.361354
780.000000	0.361346
781.000000	0.361360
782.000000	0.361395
783.000000	0.361532
784.000000	0.361641
785.000000	0.361727
786.000000	0.361769
787.000000	0.361774
788.000000	0.361836
789.000000	0.361850
790.000000	0.361846
791.000000	0.361971
792.000000	0.362054
793.000000	0.362136
794.000000	0.362263
795.000000	0.362349
796.000000	0.362352
797.000000	0.362300
798.000000	0.362310
799.000000	0.362330
800.000000	0.362344
801.000000	0.362346
802.000000	0.362305
803.000000	0.362267
804.000000	0.362291
805.000000	0.362302
806.000000	0.362300
807.000000	0.362342
808.000000	0.362338
809.000000	0.362366
810.000000	0.362405
811.000000	0.362423
812.000000	0.362468
813.000000	0.362510
814.000000	0.362530
815.000000	0.362538
816.000000	0.362547
817.000000	0.362524
818.000000	0.362381
819.000000	0.362444
820.000000	0.362563
821.000000	0.362572
822.000000	0.362490
823.000000	0.362479
824.000000	0.362460
825.000000	0.362417
826.000000	0.362388
827.000000	0.362334
828.000000	0.362293
829.000000	0.362302
830.000000	0.362281
831.000000	0.362276
832.000000	0.362207
833.000000	0.362156
834.000000	0.362115
835.000000	0.362104
836.000000	0.362085
837.000000	0.362077
838.000000	0.362085
839.000000	0.362055
840.000000	0.362027
841.000000	0.362041
842.000000	0.362063
843.000000	0.362035
844.000000	0.362071
845.000000	0.362129
846.000000	0.362080
847.000000	0.362005
848.000000	0.361917
849.000000	0.361841
850.000000	0.361700
851.000000	0.361606
852.000000	0.361630
853.000000	0.361649
854.000000	0.361572
855.000000	0.361578
856.000000	0.361667
857.000000	0.361700
858.000000	0.361699
859.000000	0.361606
860.000000	0.361508
861.000000	0.361413
862.000000	0.361294
863.000000	0.361057
864.000000	0.361030
865.000000	0.360997
866.000000	0.360886
867.000000	0.360899
868.000000	0.360813
869.000000	0.360646
870.000000	0.360631
871.000000	0.360651
872.000000	0.360583
873.000000	0.360327
874.000000	0.360074
875.000000	0.359820
876.000000	0.359634
877.000000	0.359510
878.000000	0.359377
879.000000	0.359238
880.000000	0.359013
881.000000	0.359075
882.000000	0.359008
883.000000	0.358848
884.000000	0.358719
885.000000	0.358563
886.000000	0.358319
887.000000	0.358037
888.000000	0.357869
889.000000	0.357738
890.000000	0.357584
891.000000	0.357589
892.000000	0.357519
893.000000	0.357301
894.000000	0.357115
895.000000	0.357074
896.000000	0.356779
897.000000	0.356433
898.000000	0.356380
899.000000	0.356392
900.000000	0.356285
901.000000	0.356030
902.000000	0.355959
903.000000	0.355789
904.000000	0.355578
905.000000	0.355353
906.000000	0.355309
907.000000	0.355076
908.000000	0.354709
909.000000	0.354520
910.000000	0.354320
911.000000	0.354126
912.000000	0.353993
913.000000	0.353842
914.000000	0.353659
915.000000	0.353455
916.000000	0.353090
917.000000	0.352947
918.000000	0.352800
919.000000	0.352455
920.000000	0.352190
921.000000	0.351999
922.000000	0.351874
923.000000	0.351759
924.000000	0.351602
925.000000	0.351422
926.000000	0.351285
927.000000	0.351206
928.000000	0.350877
929.000000	0.350423
930.000000	0.350109
931.000000	0.349995
932.000000	0.349777
933.000000	0.349451
934.000000	0.349231
935.000000	0.348994
936.000000	0.348803
937.000000	0.348573
938.000000	0.348157
939.000000	0.347845
940.000000	0.347604
941.000000	0.347389
942.000000	0.347131
943.000000	0.346920
944.000000	0.346634
945.000000	0.346229
946.000000	0.345896
947.000000	0.345705
948.000000	0.345579
949.000000	0.345491
950.000000	0.345329
951.000000	0.345001
952.000000	0.344600
953.000000	0.344522
954.000000	0.344458
955.000000	0.344088
956.000000	0.343748
957.000000	0.343533
958.000000	0.343321
959.000000	0.343071
960.000000	0.342923
961.000000	0.342600
962.000000	0.342145
963.000000	0.342070
964.000000	0.342099
965.000000	0.342008
966.000000	0.341620
967.000000	0.341475
968.000000	0.341133
969.000000	0.340739
970.000000	0.340764
971.000000	0.340539
972.000000	0.340260
973.000000	0.339953
974.000000	0.339579
975.000000	0.339199
976.000000	0.339012
977.000000	0.338992
978.000000	0.338387
979.000000	0.338367
980.000000	0.338485
981.000000	0.338262
982.000000	0.338241
983.000000	0.338128
984.000000	0.337901
985.000000	0.337708
986.000000	0.337452
987.000000	0.337111
988.000000	0.336624
989.000000	0.336264
990.000000	0.336239
991.000000	0.336300
992.000000	0.336159
993.000000	0.335947
994.000000	0.336004
995.000000	0.336296
996.000000	0.336126
997.000000	0.336305
998.000000	0.336062
999.000000	0.335428
1000.000000	0.335545
1001.000000	0.335595
1002.000000	0.335885
1003.000000	0.335555
1004.000000	0.335254
1005.000000	0.334203
1006.000000	0.333593
1007.000000	0.333241
1008.000000	0.333022
1009.000000	0.332612
1010.000000	0.331672
1011.000000	0.331302
1012.000000	0.331605
1013.000000	0.331529
1014.000000	0.331039
1015.000000	0.330948
1016.000000	0.331267
1017.000000	0.331263
1018.000000	0.331222
1019.000000	0.331465
1020.000000	0.332116
1021.000000	0.331778
1022.000000	0.331282
1023.000000	0.331445
1024.000000	0.331345
1025.000000	0.330990
1026.000000	0.331530
1027.000000	0.332045
1028.000000	0.331926
1029.000000	0.331614
1030.000000	0.331090
1031.000000	0.330866
1032.000000	0.331031
1033.000000	0.330851
1034.000000	0.331169
1035.000000	0.332183
1036.000000	0.332458
1037.000000	0.332887
1038.000000	0.332891
1039.000000	0.332523
1040.000000	0.331760
1041.000000	0.331504
1042.000000	0.331327
1043.000000	0.331599
1044.000000	0.332115
1045.000000	0.332616
1046.000000	0.333296
1047.000000	0.333766
1048.000000	0.334245
1049.000000	0.334300
1050.000000	0.333936
1051.000000	0.333925
1052.000000	0.333658
1053.000000	0.333651
1054.000000	0.334398
1055.000000	0.334595
1056.000000	0.334414
1057.000000	0.334662
1058.000000	0.334521
1059.000000	0.334439
1060.000000	0.334882
1061.000000	0.335032
1062.000000	0.335318
1063.000000	0.335488
1064.000000	0.335793
1065.000000	0.336123
1066.000000	0.336398
1067.000000	0.336738
1068.000000	0.336917
1069.000000	0.336822
1070.000000	0.336868
1071.000000	0.336927
1072.000000	0.337164
1073.000000	0.337744
1074.000000	0.337993
1075.000000	0.338376
1076.000000	0.338385
1077.000000	0.338380
1078.000000	0.338548
1079.000000	0.338600
1080.000000	0.338734
1081.000000	0.338861
1082.000000	0.339014
1083.000000	0.339080
1084.000000	0.338987
1085.000000	0.339401
1086.000000	0.340198
1087.000000	0.340556
1088.000000	0.340886
1089.000000	0.341267
1090.000000	0.341392
1091.000000	0.341382
1092.000000	0.341456
1093.000000	0.341768
1094.000000	0.341799
1095.000000	0.341232
1096.000000	0.341402
1097.000000	0.342057
1098.000000	0.342236
1099.000000	0.342347
1100.000000	0.342567
1101.000000	0.342545
1102.000000	0.342626
1103.000000	0.342776
1104.000000	0.343087
1105.000000	0.343573
1106.000000	0.343801
1107.000000	0.344071
1108.000000	0.344209
1109.000000	0.343994
1110.000000	0.343836
1111.000000	0.344061
1112.000000	0.344661
1113.000000	0.344846
1114.000000	0.345130
1115.000000	0.345254
1116.000000	0.344977
1117.000000	0.345070
1118.000000	0.345384
1119.000000	0.345502
1120.000000	0.345620
1121.000000	0.345742
1122.000000	0.345768
1123.000000	0.346189
1124.000000	0.346829
1125.000000	0.347113
1126.000000	0.347142
1127.000000	0.347282
1128.000000	0.347360
1129.000000	0.347163
1130.000000	0.347328
1131.000000	0.347806
1132.000000	0.348027
1133.000000	0.348233
1134.000000	0.348501
1135.000000	0.348859
1136.000000	0.348879
1137.000000	0.348642
1138.000000	0.348616
1139.000000	0.348619
1140.000000	0.348625
1141.000000	0.348681
1142.000000	0.348800
1143.000000	0.348799
1144.000000	0.348879
1145.000000	0.348829
1146.000000	0.348928
1147.000000	0.348910
1148.000000	0.348559
1149.000000	0.348625
1150.000000	0.348997
1151.000000	0.349115
1152.000000	0.349176
1153.000000	0.349325
1154.000000	0.349403
1155.000000	0.349371
1156.000000	0.349346
1157.000000	0.349379
1158.000000	0.349280
1159.000000	0.349196
1160.000000	0.349196
1161.000000	0.349156
1162.000000	0.349118
1163.000000	0.349144
1164.000000	0.348941
1165.000000	0.348929
1166.000000	0.348900
1167.000000	0.348716
1168.000000	0.348635
1169.000000	0.348744
1170.000000	0.348773
1171.000000	0.348821
1172.000000	0.348848
1173.000000	0.348831
1174.000000	0.348823
1175.000000	0.348738
1176.000000	0.348658
1177.000000	0.348710
1178.000000	0.348704
1179.000000	0.348647
1180.000000	0.348544
1181.000000	0.348527
1182.000000	0.348418
1183.000000	0.348376
1184.000000	0.348493
1185.000000	0.348524
1186.000000	0.348589
1187.000000	0.348599
1188.000000	0.348589
1189.000000	0.348490
1190.000000	0.348406
1191.000000	0.348353
1192.000000	0.348310
1193.000000	0.348394
1194.000000	0.348466
1195.000000	0.348477
1196.000000	0.348432
1197.000000	0.348388
1198.000000	0.348340
1199.000000	0.348302
1200.000000	0.348234
1201.000000	0.348156
1202.000000	0.348218
1203.000000	0.348236
1204.000000	0.348238
1205.000000	0.348346
1206.000000	0.348273
1207.000000	0.348131
1208.000000	0.348117
1209.000000	0.348163
1210.000000	0.348190
1211.000000	0.348384
1212.000000	0.348326
1213.000000	0.348099
1214.000000	0.348056
1215.000000	0.347944
1216.000000	0.347906
1217.000000	0.348057
1218.000000	0.348011
1219.000000	0.347849
1220.000000	0.347788
1221.000000	0.347769
1222.000000	0.347692
1223.000000	0.347755
1224.000000	0.347853
1225.000000	0.347886
1226.000000	0.347992
1227.000000	0.348063
1228.000000	0.348155
1229.000000	0.348169
1230.000000	0.348156
1231.000000	0.348009
1232.000000	0.347843
1233.000000	0.347822
1234.000000	0.347698
1235.000000	0.347646
1236.000000	0.347629
1237.000000	0.347702
1238.000000	0.347811
1239.000000	0.347867
1240.000000	0.347998
1241.000000	0.348021
1242.000000	0.348028
1243.000000	0.347940
1244.000000	0.347873
1245.000000	0.348056
1246.000000	0.348140
1247.000000	0.348223
1248.000000	0.348241
1249.000000	0.348090
1250.000000	0.348030
1251.000000	0.348064
1252.000000	0.348088
1253.000000	0.348308
1254.000000	0.348366
1255.000000	0.348304
1256.000000	0.348283
1257.000000	0.348288
1258.000000	0.348281
1259.000000	0.348203
1260.000000	0.348177
1261.000000	0.348046
1262.000000	0.347996
1263.000000	0.348044
1264.000000	0.348024
1265.000000	0.347970
1266.000000	0.347792
1267.000000	0.347697
1268.000000	0.347662
1269.000000	0.347520
1270.000000	0.347619
1271.000000	0.347600
1272.000000	0.347481
1273.000000	0.347558
1274.000000	0.347629
1275.000000	0.347653
1276.000000	0.347680
1277.000000	0.347773
1278.000000	0.347776
1279.000000	0.347762
1280.000000	0.347738
1281.000000	0.347644
1282.000000	0.347485
1283.000000	0.347542
1284.000000	0.347668
1285.000000	0.347620
1286.000000	0.347530
1287.000000	0.347429
1288.000000	0.347397
1289.000000	0.347379
1290.000000	0.347444
1291.000000	0.347592
1292.000000	0.347523
1293.000000	0.347477
1294.000000	0.347561
1295.000000	0.347519
1296.000000	0.347426
1297.000000	0.347394
1298.000000	0.347490
1299.000000	0.347649
1300.000000	0.347753
1301.000000	0.347661
1302.000000	0.347541
1303.000000	0.347319
1304.000000	0.347182
1305.000000	0.347274
1306.000000	0.347251
1307.000000	0.347136
1308.000000	0.347140
1309.000000	0.347256
1310.000000	0.347190
1311.000000	0.347117
1312.000000	0.347054
1313.000000	0.346717
1314.000000	0.346377
1315.000000	0.346213
1316.000000	0.346178
1317.000000	0.346237
1318.000000	0.346207
1319.000000	0.346083
1320.000000	0.345999
1321.000000	0.345820
1322.000000	0.345803
1323.000000	0.345836
1324.000000	0.345712
1325.000000	0.345544
1326.000000	0.345311
1327.000000	0.345023
1328.000000	0.344773
1329.000000	0.344544
1330.000000	0.344409
1331.000000	0.344241
1332.000000	0.344127
1333.000000	0.344015
1334.000000	0.344007
1335.000000	0.343986
1336.000000	0.343964
1337.000000	0.343879
1338.000000	0.343742
1339.000000	0.343521
1340.000000	0.343270
1341.000000	0.342969
1342.000000	0.342617
1343.000000	0.342317
1344.000000	0.341975
1345.000000	0.341839
1346.000000	0.341985
1347.000000	0.341761
1348.000000	0.341444
1349.000000	0.341186
1350.000000	0.340925
1351.000000	0.340648
1352.000000	0.340543
1353.000000	0.340422
1354.000000	0.340178
1355.000000	0.340044
1356.000000	0.340028
1357.000000	0.339933
1358.000000	0.339779
1359.000000	0.339662
1360.000000	0.339439
1361.000000	0.339081
1362.000000	0.338855
1363.000000	0.338606
1364.000000	0.338384
1365.000000	0.338233
1366.000000	0.338077
1367.000000	0.337912
1368.000000	0.337717
1369.000000	0.337607
1370.000000	0.337415
1371.000000	0.337080
1372.000000	0.336792
1373.000000	0.336539
1374.000000	0.336227
1375.000000	0.335885
1376.000000	0.335544
1377.000000	0.335180
1378.000000	0.334707
1379.000000	0.334013
1380.000000	0.333403
1381.000000	0.332791
1382.000000	0.332015
1383.000000	0.331403
1384.000000	0.330664
1385.000000	0.329661
1386.000000	0.328790
1387.000000	0.328027
1388.000000	0.327370
1389.000000	0.326804
1390.000000	0.326207
1391.000000	0.325755
1392.000000	0.325326
1393.000000	0.324828
1394.000000	0.324436
1395.000000	0.324069
1396.000000	0.323670
1397.000000	0.323146
1398.000000	0.322602
1399.000000	0.322001
1400.000000	0.321246
1401.000000	0.320470
1402.000000	0.319738
1403.000000	0.318966
1404.000000	0.318185
1405.000000	0.317338
1406.000000	0.316418
1407.000000	0.315538
1408.000000	0.314501
1409.000000	0.313491
1410.000000	0.312712
1411.000000	0.311797
1412.000000	0.310703
1413.000000	0.309692
1414.000000	0.308582
1415.000000	0.307448
1416.000000	0.306484
1417.000000	0.305585
1418.000000	0.304584
1419.000000	0.303619
1420.000000	0.302598
1421.000000	0.301629
1422.000000	0.300793
1423.000000	0.299974
1424.000000	0.298987
1425.000000	0.298040
1426.000000	0.297063
1427.000000	0.296069
1428.000000	0.295310
1429.000000	0.294615
1430.000000	0.293820
1431.000000	0.293073
1432.000000	0.292341
1433.000000	0.291634
1434.000000	0.290939
1435.000000	0.290358
1436.000000	0.289701
1437.000000	0.288980
1438.000000	0.288329
1439.000000	0.287742
1440.000000	0.287174
1441.000000	0.286658
1442.000000	0.286156
1443.000000	0.285575
1444.000000	0.285109
1445.000000	0.284653
1446.000000	0.284204
1447.000000	0.283776
1448.000000	0.283336
1449.000000	0.282909
1450.000000	0.282459
1451.000000	0.281958
1452.000000	0.281440
1453.000000	0.281007
1454.000000	0.280694
1455.000000	0.280487
1456.000000	0.280351
1457.000000	0.280294
1458.000000	0.280199
1459.000000	0.279951
1460.000000	0.279699
1461.000000	0.279458
1462.000000	0.279161
1463.000000	0.278986
1464.000000	0.278902
1465.000000	0.278680
1466.000000	0.278466
1467.000000	0.278219
1468.000000	0.277957
1469.000000	0.277972
1470.000000	0.277963
1471.000000	0.277972
1472.000000	0.278001
1473.000000	0.278036
1474.000000	0.278091
1475.000000	0.278139
1476.000000	0.278315
1477.000000	0.278489
1478.000000	0.278631
1479.000000	0.279003
1480.000000	0.279387
1481.000000	0.279706
1482.000000	0.280122
1483.000000	0.280480
1484.000000	0.280704
1485.000000	0.281028
1486.000000	0.281375
1487.000000	0.281777
1488.000000	0.282263
1489.000000	0.282727
1490.000000	0.283152
1491.000000	0.283528
1492.000000	0.283771
1493.000000	0.284152
1494.000000	0.284506
1495.000000	0.284873
1496.000000	0.285333
1497.000000	0.285776
1498.000000	0.286240
1499.000000	0.286643
1500.000000	0.287028
1501.000000	0.287270
1502.000000	0.287490
1503.000000	0.287800
1504.000000	0.288089
1505.000000	0.288443
1506.000000	0.288690
1507.000000	0.288910
1508.000000	0.289296
1509.000000	0.289572
1510.000000	0.289858
1511.000000	0.290135
1512.000000	0.290236
1513.000000	0.290408
1514.000000	0.290643
1515.000000	0.290782
1516.000000	0.290968
1517.000000	0.291143
1518.000000	0.291190
1519.000000	0.291262
1520.000000	0.291481
1521.000000	0.291597
1522.000000	0.291682
1523.000000	0.291757
1524.000000	0.291769
1525.000000	0.291852
1526.000000	0.291983
1527.000000	0.292191
1528.000000	0.292373
1529.000000	0.292505
1530.000000	0.292584
1531.000000	0.292722
1532.000000	0.292884
1533.000000	0.292927
1534.000000	0.292995
1535.000000	0.293049
1536.000000	0.293000
1537.000000	0.293130
1538.000000	0.293325
1539.000000	0.293413
1540.000000	0.293422
1541.000000	0.293351
1542.000000	0.293235
1543.000000	0.293184
1544.000000	0.293332
1545.000000	0.293521
1546.000000	0.293559
1547.000000	0.293592
1548.000000	0.293614
1549.000000	0.293558
1550.000000	0.293559
1551.000000	0.293518
1552.000000	0.293434
1553.000000	0.293416
1554.000000	0.293478
1555.000000	0.293652
1556.000000	0.293675
1557.000000	0.293632
1558.000000	0.293688
1559.000000	0.293643
1560.000000	0.293667
1561.000000	0.293865
1562.000000	0.293891
1563.000000	0.293903
1564.000000	0.293874
1565.000000	0.293756
1566.000000	0.293655
1567.000000	0.293592
1568.000000	0.293569
1569.000000	0.293671
1570.000000	0.293667
1571.000000	0.293608
1572.000000	0.293554
1573.000000	0.293438
1574.000000	0.293415
1575.000000	0.293496
1576.000000	0.293565
1577.000000	0.293667
1578.000000	0.293616
1579.000000	0.293535
1580.000000	0.293511
1581.000000	0.293493
1582.000000	0.293498
1583.000000	0.293563
1584.000000	0.293535
1585.000000	0.293515
1586.000000	0.293527
1587.000000	0.293567
1588.000000	0.293565
1589.000000	0.293496
1590.000000	0.293529
1591.000000	0.293642
1592.000000	0.293714
1593.000000	0.293867
1594.000000	0.293918
1595.000000	0.293935
1596.000000	0.293973
1597.000000	0.294009
1598.000000	0.294074
1599.000000	0.294209
1600.000000	0.294211
1601.000000	0.294197
1602.000000	0.294269
1603.000000	0.294422
1604.000000	0.294439
1605.000000	0.294430
1606.000000	0.294464
1607.000000	0.294440
1608.000000	0.294443
1609.000000	0.294671
1610.000000	0.294724
1611.000000	0.294618
1612.000000	0.294606
1613.000000	0.294674
1614.000000	0.294676
1615.000000	0.294777
1616.000000	0.294878
1617.000000	0.294884
1618.000000	0.294963
1619.000000	0.295051
1620.000000	0.295153
1621.000000	0.295322
1622.000000	0.295490
1623.000000	0.295657
1624.000000	0.295800
1625.000000	0.295777
1626.000000	0.295811
1627.000000	0.295878
1628.000000	0.296003
1629.000000	0.296097
1630.000000	0.296351
1631.000000	0.296719
1632.000000	0.296932
1633.000000	0.297228
1634.000000	0.297383
1635.000000	0.297369
1636.000000	0.297467
1637.000000	0.297568
1638.000000	0.297691
1639.000000	0.297953
1640.000000	0.298086
1641.000000	0.298244
1642.000000	0.298346
1643.000000	0.298338
1644.000000	0.298499
1645.000000	0.298742
1646.000000	0.298895
1647.000000	0.299158
1648.000000	0.299259
1649.000000	0.299280
1650.000000	0.299415
1651.000000	0.299646
1652.000000	0.299846
1653.000000	0.300003
1654.000000	0.300165
1655.000000	0.300196
1656.000000	0.300272
1657.000000	0.300473
1658.000000	0.300656
1659.000000	0.300984
1660.000000	0.301210
1661.000000	0.301276
1662.000000	0.301495
1663.000000	0.301706
1664.000000	0.301916
1665.000000	0.302189
1666.000000	0.302540
1667.000000	0.302834
1668.000000	0.303118
1669.000000	0.303479
1670.000000	0.303670
1671.000000	0.303849
1672.000000	0.303975
1673.000000	0.303987
1674.000000	0.304076
1675.000000	0.304299
1676.000000	0.304672
1677.000000	0.304819
1678.000000	0.304905
1679.000000	0.304991
1680.000000	0.304922
1681.000000	0.305069
1682.000000	0.305388
1683.000000	0.305519
1684.000000	0.305645
1685.000000	0.305812
1686.000000	0.305706
1687.000000	0.305713
1688.000000	0.305785
1689.000000	0.305850
1690.000000	0.306099
1691.000000	0.306230
1692.000000	0.306198
1693.000000	0.306223
1694.000000	0.306079
1695.000000	0.306042
1696.000000	0.306134
1697.000000	0.306069
1698.000000	0.305917
1699.000000	0.305943
1700.000000	0.305995
1701.000000	0.306137
1702.000000	0.306391
1703.000000	0.306418
1704.000000	0.306306
1705.000000	0.306313
1706.000000	0.306299
1707.000000	0.306369
1708.000000	0.306572
1709.000000	0.306653
1710.000000	0.306777
1711.000000	0.306918
1712.000000	0.307081
1713.000000	0.307196
1714.000000	0.307344
1715.000000	0.307481
1716.000000	0.307618
1717.000000	0.307688
1718.000000	0.307625
1719.000000	0.307716
1720.000000	0.307921
1721.000000	0.308046
1722.000000	0.308268
1723.000000	0.308422
1724.000000	0.308455
1725.000000	0.308595
1726.000000	0.308752
1727.000000	0.308856
1728.000000	0.308849
1729.000000	0.308888
1730.000000	0.309067
1731.000000	0.309186
1732.000000	0.309367
1733.000000	0.309503
1734.000000	0.309396
1735.000000	0.309510
1736.000000	0.309667
1737.000000	0.309798
1738.000000	0.310051
1739.000000	0.310218
1740.000000	0.310327
1741.000000	0.310341
1742.000000	0.310288
1743.000000	0.310419
1744.000000	0.310524
1745.000000	0.310573
1746.000000	0.310723
1747.000000	0.310686
1748.000000	0.310745
1749.000000	0.311130
1750.000000	0.311279
1751.000000	0.311433
1752.000000	0.311646
1753.000000	0.311547
1754.000000	0.311605
1755.000000	0.311811
1756.000000	0.311867
1757.000000	0.311869
1758.000000	0.311915
1759.000000	0.311844
1760.000000	0.311841
1761.000000	0.311811
1762.000000	0.311919
1763.000000	0.312193
1764.000000	0.312354
1765.000000	0.312575
1766.000000	0.312721
1767.000000	0.312602
1768.000000	0.312630
1769.000000	0.312871
1770.000000	0.313001
1771.000000	0.313066
1772.000000	0.313134
1773.000000	0.313093
1774.000000	0.313105
1775.000000	0.313265
1776.000000	0.313248
1777.000000	0.313044
1778.000000	0.313007
1779.000000	0.312895
1780.000000	0.313011
1781.000000	0.313351
1782.000000	0.313446
1783.000000	0.313531
1784.000000	0.313610
1785.000000	0.313780
1786.000000	0.313948
1787.000000	0.314296
1788.000000	0.314563
1789.000000	0.314599
1790.000000	0.314707
1791.000000	0.314821
1792.000000	0.315083
1793.000000	0.315169
1794.000000	0.315096
1795.000000	0.315228
1796.000000	0.315395
1797.000000	0.315437
1798.000000	0.315588
1799.000000	0.315680
1800.000000	0.315503
1801.000000	0.315610
1802.000000	0.315886
1803.000000	0.315276
1804.000000	0.315723
1805.000000	0.317331
1806.000000	0.317742
1807.000000	0.318081
1808.000000	0.318089
1809.000000	0.317120
1810.000000	0.316232
1811.000000	0.316212
1812.000000	0.316633
1813.000000	0.317004
1814.000000	0.318434
1815.000000	0.318523
1816.000000	0.317819
1817.000000	0.317313
1818.000000	0.316082
1819.000000	0.315604
1820.000000	0.315253
1821.000000	0.315336
1822.000000	0.315658
1823.000000	0.316513
1824.000000	0.316713
1825.000000	0.316888
1826.000000	0.317078
1827.000000	0.316728
1828.000000	0.316795
1829.000000	0.316773
1830.000000	0.316551
1831.000000	0.316193
1832.000000	0.315517
1833.000000	0.314761
1834.000000	0.313521
1835.000000	0.313126
1836.000000	0.312500
1837.000000	0.312543
1838.000000	0.313611
1839.000000	0.314530
1840.000000	0.314715
1841.000000	0.314630
1842.000000	0.314274
1843.000000	0.312842
1844.000000	0.312374
1845.000000	0.312208
1846.000000	0.312034
1847.000000	0.311994
1848.000000	0.311795
1849.000000	0.311747
1850.000000	0.311437
1851.000000	0.311231
1852.000000	0.311115
1853.000000	0.310928
1854.000000	0.310532
1855.000000	0.309892
1856.000000	0.309157
1857.000000	0.308138
1858.000000	0.306553
1859.000000	0.305806
1860.000000	0.305321
1861.000000	0.305028
1862.000000	0.304657
1863.000000	0.305126
1864.000000	0.304242
1865.000000	0.302755
1866.000000	0.301237
1867.000000	0.298859
1868.000000	0.296561
1869.000000	0.295196
1870.000000	0.294021
1871.000000	0.293247
1872.000000	0.292637
1873.000000	0.291205
1874.000000	0.288882
1875.000000	0.287163
1876.000000	0.285193
1877.000000	0.282788
1878.000000	0.280732
1879.000000	0.278660
1880.000000	0.276018
1881.000000	0.273693
1882.000000	0.271141
1883.000000	0.268223
1884.000000	0.265477
1885.000000	0.262160
1886.000000	0.259105
1887.000000	0.256375
1888.000000	0.253382
1889.000000	0.249679
1890.000000	0.246529
1891.000000	0.242969
1892.000000	0.239413
1893.000000	0.236440
1894.000000	0.233436
1895.000000	0.230281
1896.000000	0.227360
1897.000000	0.224231
1898.000000	0.220217
1899.000000	0.216193
1900.000000	0.212676
1901.000000	0.208615
1902.000000	0.205197
1903.000000	0.202503
1904.000000	0.199216
1905.000000	0.196612
1906.000000	0.194004
1907.000000	0.191864
1908.000000	0.189395
1909.000000	0.187066
1910.000000	0.184437
1911.000000	0.182102
1912.000000	0.180084
1913.000000	0.178563
1914.000000	0.177537
1915.000000	0.176112
1916.000000	0.174918
1917.000000	0.173420
1918.000000	0.171703
1919.000000	0.169564
1920.000000	0.167738
1921.000000	0.166406
1922.000000	0.165079
1923.000000	0.163926
1924.000000	0.163600
1925.000000	0.163156
1926.000000	0.162696
1927.000000	0.162723
1928.000000	0.162557
1929.000000	0.162474
1930.000000	0.162030
1931.000000	0.161535
1932.000000	0.160960
1933.000000	0.160554
1934.000000	0.160594
1935.000000	0.160590
1936.000000	0.160646
1937.000000	0.160945
1938.000000	0.161147
1939.000000	0.161384
1940.000000	0.161797
1941.000000	0.162334
1942.000000	0.162410
1943.000000	0.162289
1944.000000	0.161700
1945.000000	0.161268
1946.000000	0.160998
1947.000000	0.159879
1948.000000	0.159125
1949.000000	0.158826
1950.000000	0.158642
1951.000000	0.158361
1952.000000	0.158528
1953.000000	0.158528
1954.000000	0.158188
1955.000000	0.157718
1956.000000	0.157723
1957.000000	0.157863
1958.000000	0.157694
1959.000000	0.157455
1960.000000	0.157083
1961.000000	0.156708
1962.000000	0.156208
1963.000000	0.155740
1964.000000	0.155000
1965.000000	0.154700
1966.000000	0.154313
1967.000000	0.154030
1968.000000	0.154369
1969.000000	0.154326
1970.000000	0.154361
1971.000000	0.154229
1972.000000	0.154488
1973.000000	0.154728
1974.000000	0.154971
1975.000000	0.155248
1976.000000	0.155876
1977.000000	0.156115
1978.000000	0.156307
1979.000000	0.156532
1980.000000	0.156740
1981.000000	0.157162
1982.000000	0.156939
1983.000000	0.157008
1984.000000	0.157287
1985.000000	0.157461
1986.000000	0.157801
1987.000000	0.158640
1988.000000	0.159318
1989.000000	0.159520
1990.000000	0.160101
1991.000000	0.160324
1992.000000	0.160730
1993.000000	0.161601
1994.000000	0.162283
1995.000000	0.162864
1996.000000	0.163501
1997.000000	0.164042
1998.000000	0.164295
1999.000000	0.164934
2000.000000	0.165815
2001.000000	0.166579
2002.000000	0.167293
2003.000000	0.167874
2004.000000	0.168481
2005.000000	0.168877
2006.000000	0.170315
2007.000000	0.171456
2008.000000	0.172238
2009.000000	0.173084
2010.000000	0.173859
2011.000000	0.173697
2012.000000	0.174560
2013.000000	0.175829
2014.000000	0.177329
2015.000000	0.179171
2016.000000	0.180345
2017.000000	0.181816
2018.000000	0.182446
2019.000000	0.182819
2020.000000	0.183906
2021.000000	0.184796
2022.000000	0.185694
2023.000000	0.186582
2024.000000	0.187338
2025.000000	0.188292
2026.000000	0.189322
2027.000000	0.190248
2028.000000	0.190772
2029.000000	0.191611
2030.000000	0.191713
2031.000000	0.191342
2032.000000	0.191482
2033.000000	0.191552
2034.000000	0.192388
2035.000000	0.194124
2036.000000	0.195474
2037.000000	0.197730
2038.000000	0.198988
2039.000000	0.199924
2040.000000	0.200230
2041.000000	0.200252
2042.000000	0.200420
2043.000000	0.201010
2044.000000	0.201716
2045.000000	0.202837
2046.000000	0.204046
2047.000000	0.204971
2048.000000	0.205708
2049.000000	0.206693
2050.000000	0.207497
2051.000000	0.208185
2052.000000	0.208979
2053.000000	0.209420
2054.000000	0.209543
2055.000000	0.209991
2056.000000	0.209951
2057.000000	0.210002
2058.000000	0.210993
2059.000000	0.211332
2060.000000	0.212106
2061.000000	0.213705
2062.000000	0.214758
2063.000000	0.215623
2064.000000	0.216317
2065.000000	0.217041
2066.000000	0.217542
2067.000000	0.217692
2068.000000	0.218446
2069.000000	0.219643
2070.000000	0.220791
2071.000000	0.220895
2072.000000	0.220660
2073.000000	0.220775
2074.000000	0.220515
2075.000000	0.221051
2076.000000	0.222995
2077.000000	0.223893
2078.000000	0.224356
2079.000000	0.225135
2080.000000	0.225947
2081.000000	0.226841
2082.000000	0.228139
2083.000000	0.228896
2084.000000	0.229385
2085.000000	0.229282
2086.000000	0.229081
2087.000000	0.229186
2088.000000	0.229874
2089.000000	0.230932
2090.000000	0.231854
2091.000000	0.233320
2092.000000	0.234299
2093.000000	0.234934
2094.000000	0.235689
2095.000000	0.236249
2096.000000	0.236797
2097.000000	0.236972
2098.000000	0.237974
2099.000000	0.239169
2100.000000	0.240377
2101.000000	0.241579
2102.000000	0.242578
2103.000000	0.242514
2104.000000	0.242800
2105.000000	0.243319
2106.000000	0.244021
2107.000000	0.244481
2108.000000	0.245173
2109.000000	0.245438
2110.000000	0.244635
2111.000000	0.245080
2112.000000	0.245759
2113.000000	0.246979
2114.000000	0.248467
2115.000000	0.249318
2116.000000	0.249600
2117.000000	0.248901
2118.000000	0.248836
2119.000000	0.249232
2120.000000	0.249296
2121.000000	0.249332
2122.000000	0.249822
2123.000000	0.250347
2124.000000	0.250790
2125.000000	0.251737
2126.000000	0.252015
2127.000000	0.251767
2128.000000	0.251924
2129.000000	0.251713
2130.000000	0.252187
2131.000000	0.252932
2132.000000	0.252865
2133.000000	0.253221
2134.000000	0.253968
2135.000000	0.253609
2136.000000	0.253862
2137.000000	0.254156
2138.000000	0.254292
2139.000000	0.254296
2140.000000	0.254928
2141.000000	0.254767
2142.000000	0.253420
2143.000000	0.253050
2144.000000	0.252728
2145.000000	0.252935
2146.000000	0.254080
2147.000000	0.255492
2148.000000	0.255678
2149.000000	0.257048
2150.000000	0.257151
2151.000000	0.256548
2152.000000	0.256771
2153.000000	0.256418
2154.000000	0.256349
2155.000000	0.256460
2156.000000	0.256607
2157.000000	0.257251
2158.000000	0.256915
2159.000000	0.255824
2160.000000	0.255616
2161.000000	0.254751
2162.000000	0.254802
2163.000000	0.256671
2164.000000	0.256967
2165.000000	0.256754
2166.000000	0.256412
2167.000000	0.254840
2168.000000	0.254304
2169.000000	0.253556
2170.000000	0.253191
2171.000000	0.253693
2172.000000	0.254854
2173.000000	0.255585
2174.000000	0.257495
2175.000000	0.258054
2176.000000	0.257880
2177.000000	0.257786
2178.000000	0.256994
2179.000000	0.256717
2180.000000	0.256001
2181.000000	0.256050
2182.000000	0.255529
2183.000000	0.256876
2184.000000	0.258883
2185.000000	0.260259
2186.000000	0.262739
2187.000000	0.263202
2188.000000	0.261120
2189.000000	0.260719
2190.000000	0.259813
2191.000000	0.259188
2192.000000	0.258700
2193.000000	0.258892
2194.000000	0.258937
2195.000000	0.258795
2196.000000	0.258882
2197.000000	0.260011
2198.000000	0.260183
2199.000000	0.259493
2200.000000	0.259512
2201.000000	0.259313
2202.000000	0.259325
2203.000000	0.259411
2204.000000	0.260498
2205.000000	0.260306
2206.000000	0.259861
2207.000000	0.259989
2208.000000	0.261547
2209.000000	0.263647
2210.000000	0.265672
2211.000000	0.266086
2212.000000	0.262384
2213.000000	0.261342
2214.000000	0.259365
2215.000000	0.259598
2216.000000	0.262994
2217.000000	0.263796
2218.000000	0.263816
2219.000000	0.262735
2220.000000	0.259786
2221.000000	0.258515
2222.000000	0.256697
2223.000000	0.257252
2224.000000	0.260167
2225.000000	0.261976
2226.000000	0.264018
2227.000000	0.262291
2228.000000	0.260216
2229.000000	0.259884
2230.000000	0.259346
2231.000000	0.261467
2232.000000	0.263522
2233.000000	0.262373
2234.000000	0.262630
2235.000000	0.262599
2236.000000	0.263210
2237.000000	0.264981
2238.000000	0.265039
2239.000000	0.265134
2240.000000	0.264676
2241.000000	0.262146
2242.000000	0.260856
2243.000000	0.259356
2244.000000	0.258404
2245.000000	0.257903
2246.000000	0.257787
2247.000000	0.258304
2248.000000	0.259351
2249.000000	0.262108
2250.000000	0.262614
2251.000000	0.260716
2252.000000	0.260625
2253.000000	0.260762
2254.000000	0.260520
2255.000000	0.261558
2256.000000	0.262436
2257.000000	0.260603
2258.000000	0.258632
2259.000000	0.257356
2260.000000	0.257039
2261.000000	0.256273
2262.000000	0.254896
2263.000000	0.254428
2264.000000	0.254085
2265.000000	0.254189
2266.000000	0.256015
2267.000000	0.256640
2268.000000	0.257159
2269.000000	0.257571
2270.000000	0.256966
2271.000000	0.256981
2272.000000	0.257260
2273.000000	0.257336
2274.000000	0.257304
2275.000000	0.257074
2276.000000	0.256921
2277.000000	0.256687
2278.000000	0.255388
2279.000000	0.255085
2280.000000	0.253796
2281.000000	0.252636
2282.000000	0.251576
2283.000000	0.251463
2284.000000	0.252202
2285.000000	0.251813
2286.000000	0.252585
2287.000000	0.251609
2288.000000	0.250143
2289.000000	0.248811
2290.000000	0.246539
2291.000000	0.247236
2292.000000	0.247195
2293.000000	0.245361
2294.000000	0.243162
2295.000000	0.238534
2296.000000	0.236777
2297.000000	0.235803
2298.000000	0.235974
2299.000000	0.238736
2300.000000	0.239591
2301.000000	0.239939
2302.000000	0.238976
2303.000000	0.237968
2304.000000	0.236225
2305.000000	0.232461
2306.000000	0.230317
2307.000000	0.228766
2308.000000	0.225167
2309.000000	0.225284
2310.000000	0.226682
2311.000000	0.228327
2312.000000	0.231509
2313.000000	0.232127
2314.000000	0.231528
2315.000000	0.230200
2316.000000	0.227032
2317.000000	0.223813
2318.000000	0.222577
2319.000000	0.222263
2320.000000	0.221021
2321.000000	0.221350
2322.000000	0.221737
2323.000000	0.221905
2324.000000	0.224405
2325.000000	0.225990
2326.000000	0.226605
2327.000000	0.226392
2328.000000	0.224764
2329.000000	0.222599
2330.000000	0.219034
2331.000000	0.216213
2332.000000	0.214745
2333.000000	0.213582
2334.000000	0.213253
2335.000000	0.213749
2336.000000	0.214933
2337.000000	0.214114
2338.000000	0.215056
2339.000000	0.213758
2340.000000	0.208122
2341.000000	0.206118
2342.000000	0.204087
2343.000000	0.201391
2344.000000	0.200666
2345.000000	0.199118
2346.000000	0.196882
2347.000000	0.196428
2348.000000	0.196653
2349.000000	0.196979
2350.000000	0.198343
2351.000000	0.195396
2352.000000	0.193397
2353.000000	0.193722
2354.000000	0.191755
2355.000000	0.193146
2356.000000	0.194298
2357.000000	0.191989
2358.000000	0.191023
2359.000000	0.191085
2360.000000	0.190979
2361.000000	0.191062
2362.000000	0.192567
2363.000000	0.192204
2364.000000	0.190956
2365.000000	0.190853
2366.000000	0.189492
2367.000000	0.191635
2368.000000	0.193881
2369.000000	0.191912
2370.000000	0.189838
2371.000000	0.184140
2372.000000	0.178178
2373.000000	0.177076
2374.000000	0.175580
2375.000000	0.174542
2376.000000	0.175875
2377.000000	0.175318
2378.000000	0.173948
2379.000000	0.173200
2380.000000	0.168477
2381.000000	0.167441
2382.000000	0.170302
2383.000000	0.168657
2384.000000	0.169213
2385.000000	0.169132
2386.000000	0.164257
2387.000000	0.160997
2388.000000	0.156604
2389.000000	0.152462
2390.000000	0.151080
2391.000000	0.150233
2392.000000	0.155128
2393.000000	0.159521
2394.000000	0.157110
2395.000000	0.155881
2396.000000	0.154174
2397.000000	0.149860
2398.000000	0.152618
2399.000000	0.156674
2400.000000	0.159677
2401.000000	0.164004
2402.000000	0.161476
2403.000000	0.159499
2404.000000	0.158788
2405.000000	0.154981
2406.000000	0.155994
2407.000000	0.157208
2408.000000	0.156363
2409.000000	0.157783
2410.000000	0.153663
2411.000000	0.148467
2412.000000	0.145459
2413.000000	0.138787
2414.000000	0.135351
2415.000000	0.136182
2416.000000	0.139396
2417.000000	0.148866
2418.000000	0.158552
2419.000000	0.163566
2420.000000	0.167985
2421.000000	0.161495
2422.000000	0.147720
2423.000000	0.144160
2424.000000	0.145308
2425.000000	0.149743
2426.000000	0.162285
2427.000000	0.167320
2428.000000	0.168008
2429.000000	0.169249
2430.000000	0.166678
2431.000000	0.165884
2432.000000	0.152021
2433.000000	0.135893
2434.000000	0.125188
2435.000000	0.123621
2436.000000	0.130682
2437.000000	0.136228
2438.000000	0.145562
2439.000000	0.135407
2440.000000	0.128220
2441.000000	0.133560
2442.000000	0.125245
2443.000000	0.125253
2444.000000	0.130000
2445.000000	0.126810
2446.000000	0.135960
2447.000000	0.148079
2448.000000	0.151379
2449.000000	0.162729
2450.000000	0.165375
2451.000000	0.156049
2452.000000	0.161207
2453.000000	0.165733
2454.000000	0.169564
2455.000000	0.176503
2456.000000	0.162804
2457.000000	0.148998
2458.000000	0.143946
2459.000000	0.138907
2460.000000	0.148801
2461.000000	0.155169
2462.000000	0.143438
2463.000000	0.121262
2464.000000	0.110907
2465.000000	0.108108
2466.000000	0.102892
2467.000000	0.110371
2468.000000	0.103089
2469.000000	0.102507
2470.000000	0.115730
2471.000000	0.109413
2472.000000	0.126120
2473.000000	0.141313
2474.000000	0.126016
2475.000000	0.141953
2476.000000	0.146284
2477.000000	0.115838
2478.000000	0.107815
2479.000000	0.090398
2480.000000	0.073754
2481.000000	0.081942
2482.000000	0.071593
2483.000000	0.063081
2484.000000	0.068631
2485.000000	0.066599
2486.000000	0.088966
2487.000000	0.099370
2488.000000	0.112859
2489.000000	0.133301
2490.000000	0.110343
2491.000000	0.111723
2492.000000	0.092790
2493.000000	0.054428
2494.000000	0.025619
2495.000000	-0.037820
2496.000000	-0.045450
2497.000000	0.012803
2498.000000	0.025162
2499.000000	0.038018
2500.000000	0.055728
