# Wavelength	SM1200H-20_HEX-30_FV7-50_00001.asd.rts.txt
350.000000	0.250910
351.000000	0.222156
352.000000	0.242112
353.000000	0.252089
354.000000	0.232282
355.000000	0.239199
356.000000	0.236167
357.000000	0.227055
358.000000	0.240238
359.000000	0.242822
360.000000	0.239534
361.000000	0.240938
362.000000	0.235337
363.000000	0.233096
364.000000	0.238333
365.000000	0.240414
366.000000	0.237714
367.000000	0.234662
368.000000	0.242631
369.000000	0.246093
370.000000	0.244483
371.000000	0.241717
372.000000	0.238800
373.000000	0.238215
374.000000	0.241160
375.000000	0.244665
376.000000	0.243056
377.000000	0.238844
378.000000	0.243226
379.000000	0.242096
380.000000	0.238766
381.000000	0.241705
382.000000	0.246253
383.000000	0.246411
384.000000	0.241191
385.000000	0.241315
386.000000	0.243992
387.000000	0.246020
388.000000	0.242477
389.000000	0.243013
390.000000	0.244886
391.000000	0.241668
392.000000	0.241318
393.000000	0.242282
394.000000	0.242760
395.000000	0.244879
396.000000	0.246618
397.000000	0.247278
398.000000	0.248099
399.000000	0.247208
400.000000	0.245759
401.000000	0.245984
402.000000	0.247115
403.000000	0.248308
404.000000	0.249059
405.000000	0.249503
406.000000	0.249695
407.000000	0.249870
408.000000	0.250606
409.000000	0.250415
410.000000	0.249745
411.000000	0.250114
412.000000	0.250957
413.000000	0.251582
414.000000	0.251529
415.000000	0.251640
416.000000	0.251975
417.000000	0.252467
418.000000	0.252997
419.000000	0.253174
420.000000	0.253255
421.000000	0.254090
422.000000	0.254733
423.000000	0.255096
424.000000	0.255445
425.000000	0.255744
426.000000	0.256054
427.000000	0.256331
428.000000	0.256283
429.000000	0.256022
430.000000	0.255902
431.000000	0.256701
432.000000	0.257354
433.000000	0.257581
434.000000	0.257593
435.000000	0.258241
436.000000	0.258599
437.000000	0.257965
438.000000	0.258432
439.000000	0.259054
440.000000	0.259274
441.000000	0.259060
442.000000	0.259140
443.000000	0.259457
444.000000	0.259556
445.000000	0.259439
446.000000	0.259513
447.000000	0.260019
448.000000	0.260601
449.000000	0.261048
450.000000	0.261326
451.000000	0.261829
452.000000	0.262020
453.000000	0.261853
454.000000	0.262074
455.000000	0.262495
456.000000	0.262961
457.000000	0.263133
458.000000	0.263449
459.000000	0.263649
460.000000	0.263590
461.000000	0.263805
462.000000	0.264233
463.000000	0.264566
464.000000	0.264575
465.000000	0.264871
466.000000	0.265365
467.000000	0.265658
468.000000	0.265705
469.000000	0.265594
470.000000	0.265666
471.000000	0.266203
472.000000	0.266763
473.000000	0.267042
474.000000	0.267104
475.000000	0.267097
476.000000	0.267246
477.000000	0.267528
478.000000	0.267501
479.000000	0.267485
480.000000	0.267724
481.000000	0.268112
482.000000	0.268457
483.000000	0.268456
484.000000	0.268713
485.000000	0.268931
486.000000	0.269160
487.000000	0.269514
488.000000	0.269885
489.000000	0.270223
490.000000	0.270480
491.000000	0.270611
492.000000	0.270809
493.000000	0.271127
494.000000	0.271263
495.000000	0.271431
496.000000	0.271745
497.000000	0.272102
498.000000	0.272472
499.000000	0.272872
500.000000	0.273173
501.000000	0.273279
502.000000	0.273351
503.000000	0.273582
504.000000	0.273988
505.000000	0.274361
506.000000	0.274537
507.000000	0.274709
508.000000	0.274972
509.000000	0.275301
510.000000	0.275595
511.000000	0.275875
512.000000	0.276211
513.000000	0.276660
514.000000	0.276967
515.000000	0.277250
516.000000	0.277645
517.000000	0.277875
518.000000	0.278185
519.000000	0.278628
520.000000	0.278848
521.000000	0.279040
522.000000	0.279284
523.000000	0.279460
524.000000	0.279638
525.000000	0.279847
526.000000	0.280150
527.000000	0.280516
528.000000	0.280788
529.000000	0.280912
530.000000	0.281187
531.000000	0.281428
532.000000	0.281501
533.000000	0.281893
534.000000	0.282176
535.000000	0.282304
536.000000	0.282658
537.000000	0.283071
538.000000	0.283444
539.000000	0.283692
540.000000	0.283983
541.000000	0.284281
542.000000	0.284562
543.000000	0.284815
544.000000	0.285112
545.000000	0.285404
546.000000	0.285639
547.000000	0.285962
548.000000	0.286380
549.000000	0.286703
550.000000	0.287013
551.000000	0.287300
552.000000	0.287498
553.000000	0.287767
554.000000	0.288088
555.000000	0.288438
556.000000	0.288835
557.000000	0.289127
558.000000	0.289414
559.000000	0.289740
560.000000	0.290032
561.000000	0.290344
562.000000	0.290631
563.000000	0.290901
564.000000	0.291205
565.000000	0.291489
566.000000	0.291831
567.000000	0.292172
568.000000	0.292459
569.000000	0.292749
570.000000	0.293016
571.000000	0.293256
572.000000	0.293514
573.000000	0.293819
574.000000	0.294140
575.000000	0.294485
576.000000	0.294838
577.000000	0.295156
578.000000	0.295468
579.000000	0.295747
580.000000	0.296058
581.000000	0.296405
582.000000	0.296698
583.000000	0.296910
584.000000	0.297140
585.000000	0.297573
586.000000	0.297852
587.000000	0.298011
588.000000	0.298193
589.000000	0.298539
590.000000	0.298899
591.000000	0.299172
592.000000	0.299403
593.000000	0.299698
594.000000	0.300048
595.000000	0.300324
596.000000	0.300591
597.000000	0.300869
598.000000	0.301062
599.000000	0.301186
600.000000	0.301369
601.000000	0.301615
602.000000	0.301794
603.000000	0.301960
604.000000	0.302172
605.000000	0.302475
606.000000	0.302687
607.000000	0.302803
608.000000	0.302938
609.000000	0.303062
610.000000	0.303189
611.000000	0.303340
612.000000	0.303537
613.000000	0.303681
614.000000	0.303773
615.000000	0.303923
616.000000	0.304084
617.000000	0.304223
618.000000	0.304440
619.000000	0.304561
620.000000	0.304625
621.000000	0.304812
622.000000	0.305023
623.000000	0.305197
624.000000	0.305307
625.000000	0.305436
626.000000	0.305545
627.000000	0.305656
628.000000	0.305918
629.000000	0.306133
630.000000	0.306185
631.000000	0.306297
632.000000	0.306490
633.000000	0.306677
634.000000	0.306766
635.000000	0.306901
636.000000	0.307052
637.000000	0.307180
638.000000	0.307319
639.000000	0.307464
640.000000	0.307648
641.000000	0.307766
642.000000	0.307881
643.000000	0.308006
644.000000	0.308142
645.000000	0.308299
646.000000	0.308423
647.000000	0.308476
648.000000	0.308640
649.000000	0.308797
650.000000	0.308911
651.000000	0.309125
652.000000	0.309280
653.000000	0.309394
654.000000	0.309480
655.000000	0.309704
656.000000	0.309938
657.000000	0.310026
658.000000	0.310301
659.000000	0.310527
660.000000	0.310615
661.000000	0.310835
662.000000	0.310980
663.000000	0.311085
664.000000	0.311211
665.000000	0.311336
666.000000	0.311484
667.000000	0.311649
668.000000	0.311827
669.000000	0.311993
670.000000	0.312143
671.000000	0.312294
672.000000	0.312466
673.000000	0.312652
674.000000	0.312847
675.000000	0.312986
676.000000	0.313093
677.000000	0.313238
678.000000	0.313436
679.000000	0.313581
680.000000	0.313643
681.000000	0.313768
682.000000	0.313994
683.000000	0.314216
684.000000	0.314411
685.000000	0.314531
686.000000	0.314666
687.000000	0.314880
688.000000	0.315063
689.000000	0.315234
690.000000	0.315439
691.000000	0.315588
692.000000	0.315727
693.000000	0.315922
694.000000	0.316073
695.000000	0.316220
696.000000	0.316363
697.000000	0.316499
698.000000	0.316681
699.000000	0.316852
700.000000	0.316987
701.000000	0.317199
702.000000	0.317461
703.000000	0.317694
704.000000	0.317795
705.000000	0.317926
706.000000	0.318075
707.000000	0.318249
708.000000	0.318387
709.000000	0.318507
710.000000	0.318652
711.000000	0.318795
712.000000	0.318869
713.000000	0.318926
714.000000	0.319135
715.000000	0.319291
716.000000	0.319429
717.000000	0.319646
718.000000	0.319806
719.000000	0.319934
720.000000	0.320093
721.000000	0.320292
722.000000	0.320442
723.000000	0.320570
724.000000	0.320665
725.000000	0.320719
726.000000	0.320825
727.000000	0.320938
728.000000	0.321039
729.000000	0.321179
730.000000	0.321321
731.000000	0.321369
732.000000	0.321408
733.000000	0.321509
734.000000	0.321606
735.000000	0.321641
736.000000	0.321756
737.000000	0.321895
738.000000	0.321982
739.000000	0.322094
740.000000	0.322131
741.000000	0.322220
742.000000	0.322366
743.000000	0.322511
744.000000	0.322623
745.000000	0.322710
746.000000	0.322823
747.000000	0.322917
748.000000	0.322974
749.000000	0.323062
750.000000	0.323174
751.000000	0.323255
752.000000	0.323308
753.000000	0.323351
754.000000	0.323391
755.000000	0.323427
756.000000	0.323460
757.000000	0.323451
758.000000	0.323490
759.000000	0.323618
760.000000	0.323751
761.000000	0.323844
762.000000	0.323956
763.000000	0.324082
764.000000	0.324255
765.000000	0.324378
766.000000	0.324491
767.000000	0.324633
768.000000	0.324754
769.000000	0.324850
770.000000	0.324917
771.000000	0.324940
772.000000	0.324963
773.000000	0.324939
774.000000	0.324928
775.000000	0.324941
776.000000	0.325002
777.000000	0.325091
778.000000	0.325142
779.000000	0.325184
780.000000	0.325225
781.000000	0.325236
782.000000	0.325258
783.000000	0.325337
784.000000	0.325340
785.000000	0.325405
786.000000	0.325512
787.000000	0.325620
788.000000	0.325677
789.000000	0.325783
790.000000	0.325895
791.000000	0.325946
792.000000	0.325999
793.000000	0.326025
794.000000	0.325996
795.000000	0.325913
796.000000	0.325819
797.000000	0.325743
798.000000	0.325718
799.000000	0.325708
800.000000	0.325752
801.000000	0.325881
802.000000	0.325918
803.000000	0.325921
804.000000	0.325967
805.000000	0.325990
806.000000	0.326049
807.000000	0.326160
808.000000	0.326157
809.000000	0.326148
810.000000	0.326149
811.000000	0.326121
812.000000	0.325950
813.000000	0.325847
814.000000	0.325832
815.000000	0.325780
816.000000	0.325775
817.000000	0.325782
818.000000	0.325686
819.000000	0.325715
820.000000	0.325780
821.000000	0.325778
822.000000	0.325775
823.000000	0.325799
824.000000	0.325807
825.000000	0.325853
826.000000	0.325876
827.000000	0.325865
828.000000	0.325880
829.000000	0.325953
830.000000	0.326014
831.000000	0.326048
832.000000	0.325905
833.000000	0.325781
834.000000	0.325728
835.000000	0.325762
836.000000	0.325742
837.000000	0.325649
838.000000	0.325535
839.000000	0.325466
840.000000	0.325430
841.000000	0.325472
842.000000	0.325559
843.000000	0.325547
844.000000	0.325536
845.000000	0.325503
846.000000	0.325371
847.000000	0.325315
848.000000	0.325253
849.000000	0.325114
850.000000	0.325029
851.000000	0.324981
852.000000	0.325001
853.000000	0.325067
854.000000	0.325031
855.000000	0.324971
856.000000	0.324845
857.000000	0.324744
858.000000	0.324756
859.000000	0.324796
860.000000	0.324761
861.000000	0.324697
862.000000	0.324629
863.000000	0.324495
864.000000	0.324348
865.000000	0.324265
866.000000	0.324267
867.000000	0.324177
868.000000	0.324148
869.000000	0.324056
870.000000	0.323834
871.000000	0.323724
872.000000	0.323680
873.000000	0.323568
874.000000	0.323364
875.000000	0.323158
876.000000	0.323023
877.000000	0.322929
878.000000	0.322786
879.000000	0.322658
880.000000	0.322447
881.000000	0.322234
882.000000	0.322098
883.000000	0.321999
884.000000	0.321797
885.000000	0.321702
886.000000	0.321549
887.000000	0.321291
888.000000	0.321041
889.000000	0.320973
890.000000	0.320870
891.000000	0.320634
892.000000	0.320390
893.000000	0.320125
894.000000	0.319975
895.000000	0.319941
896.000000	0.319690
897.000000	0.319376
898.000000	0.319256
899.000000	0.318994
900.000000	0.318885
901.000000	0.318892
902.000000	0.318618
903.000000	0.318450
904.000000	0.318359
905.000000	0.318117
906.000000	0.317868
907.000000	0.317684
908.000000	0.317561
909.000000	0.317234
910.000000	0.316886
911.000000	0.316662
912.000000	0.316612
913.000000	0.316403
914.000000	0.316078
915.000000	0.315798
916.000000	0.315628
917.000000	0.315417
918.000000	0.315147
919.000000	0.314844
920.000000	0.314650
921.000000	0.314543
922.000000	0.314467
923.000000	0.314301
924.000000	0.313918
925.000000	0.313607
926.000000	0.313483
927.000000	0.313155
928.000000	0.313016
929.000000	0.312958
930.000000	0.312754
931.000000	0.312532
932.000000	0.312187
933.000000	0.311819
934.000000	0.311635
935.000000	0.311295
936.000000	0.311023
937.000000	0.310906
938.000000	0.310676
939.000000	0.310525
940.000000	0.310394
941.000000	0.310231
942.000000	0.309907
943.000000	0.309645
944.000000	0.309426
945.000000	0.309163
946.000000	0.308885
947.000000	0.308643
948.000000	0.308424
949.000000	0.308290
950.000000	0.308094
951.000000	0.307806
952.000000	0.307635
953.000000	0.307477
954.000000	0.307318
955.000000	0.307108
956.000000	0.306950
957.000000	0.306852
958.000000	0.306631
959.000000	0.306227
960.000000	0.305894
961.000000	0.305759
962.000000	0.305713
963.000000	0.305458
964.000000	0.304992
965.000000	0.304777
966.000000	0.304874
967.000000	0.304394
968.000000	0.304259
969.000000	0.304311
970.000000	0.304058
971.000000	0.303738
972.000000	0.303453
973.000000	0.303163
974.000000	0.302869
975.000000	0.302708
976.000000	0.302545
977.000000	0.302306
978.000000	0.302307
979.000000	0.302227
980.000000	0.301992
981.000000	0.302040
982.000000	0.301707
983.000000	0.301422
984.000000	0.301359
985.000000	0.301182
986.000000	0.300836
987.000000	0.300581
988.000000	0.300409
989.000000	0.299983
990.000000	0.299869
991.000000	0.299765
992.000000	0.299365
993.000000	0.299589
994.000000	0.299769
995.000000	0.299649
996.000000	0.299028
997.000000	0.298838
998.000000	0.298837
999.000000	0.298856
1000.000000	0.298819
1001.000000	0.299401
1002.000000	0.298925
1003.000000	0.298186
1004.000000	0.297767
1005.000000	0.298361
1006.000000	0.298090
1007.000000	0.297240
1008.000000	0.296693
1009.000000	0.296838
1010.000000	0.296780
1011.000000	0.297475
1012.000000	0.297930
1013.000000	0.297560
1014.000000	0.297749
1015.000000	0.297871
1016.000000	0.297645
1017.000000	0.297399
1018.000000	0.297012
1019.000000	0.296798
1020.000000	0.296449
1021.000000	0.296315
1022.000000	0.296848
1023.000000	0.296954
1024.000000	0.296586
1025.000000	0.296834
1026.000000	0.296915
1027.000000	0.296964
1028.000000	0.297484
1029.000000	0.297419
1030.000000	0.296706
1031.000000	0.296482
1032.000000	0.296401
1033.000000	0.296374
1034.000000	0.296258
1035.000000	0.296104
1036.000000	0.296284
1037.000000	0.296700
1038.000000	0.296759
1039.000000	0.297177
1040.000000	0.297348
1041.000000	0.296896
1042.000000	0.296402
1043.000000	0.296367
1044.000000	0.296994
1045.000000	0.297760
1046.000000	0.297829
1047.000000	0.297995
1048.000000	0.298149
1049.000000	0.297942
1050.000000	0.297140
1051.000000	0.297180
1052.000000	0.297315
1053.000000	0.297231
1054.000000	0.297944
1055.000000	0.298325
1056.000000	0.298396
1057.000000	0.298226
1058.000000	0.298639
1059.000000	0.298493
1060.000000	0.298744
1061.000000	0.299301
1062.000000	0.299201
1063.000000	0.299437
1064.000000	0.299586
1065.000000	0.299195
1066.000000	0.299476
1067.000000	0.300468
1068.000000	0.300738
1069.000000	0.300724
1070.000000	0.300922
1071.000000	0.300964
1072.000000	0.301099
1073.000000	0.301359
1074.000000	0.301934
1075.000000	0.302563
1076.000000	0.302518
1077.000000	0.302511
1078.000000	0.302781
1079.000000	0.302785
1080.000000	0.302429
1081.000000	0.302481
1082.000000	0.302763
1083.000000	0.303003
1084.000000	0.303470
1085.000000	0.303832
1086.000000	0.304206
1087.000000	0.304475
1088.000000	0.304463
1089.000000	0.304660
1090.000000	0.305089
1091.000000	0.305058
1092.000000	0.305046
1093.000000	0.305426
1094.000000	0.305565
1095.000000	0.305370
1096.000000	0.305598
1097.000000	0.306093
1098.000000	0.306403
1099.000000	0.306839
1100.000000	0.307034
1101.000000	0.306795
1102.000000	0.306986
1103.000000	0.307306
1104.000000	0.307532
1105.000000	0.308071
1106.000000	0.308326
1107.000000	0.308014
1108.000000	0.308125
1109.000000	0.308381
1110.000000	0.308897
1111.000000	0.309095
1112.000000	0.309401
1113.000000	0.309587
1114.000000	0.309512
1115.000000	0.309574
1116.000000	0.309732
1117.000000	0.309905
1118.000000	0.309979
1119.000000	0.310117
1120.000000	0.310473
1121.000000	0.310627
1122.000000	0.310651
1123.000000	0.311000
1124.000000	0.311305
1125.000000	0.311511
1126.000000	0.311830
1127.000000	0.311922
1128.000000	0.311857
1129.000000	0.311487
1130.000000	0.311511
1131.000000	0.311599
1132.000000	0.311648
1133.000000	0.312050
1134.000000	0.312033
1135.000000	0.311508
1136.000000	0.311490
1137.000000	0.311462
1138.000000	0.311594
1139.000000	0.312217
1140.000000	0.312702
1141.000000	0.313275
1142.000000	0.313578
1143.000000	0.313729
1144.000000	0.313887
1145.000000	0.313707
1146.000000	0.313376
1147.000000	0.313213
1148.000000	0.312927
1149.000000	0.312895
1150.000000	0.313032
1151.000000	0.313103
1152.000000	0.313252
1153.000000	0.313300
1154.000000	0.313137
1155.000000	0.313206
1156.000000	0.313432
1157.000000	0.313524
1158.000000	0.313690
1159.000000	0.313719
1160.000000	0.313525
1161.000000	0.313437
1162.000000	0.313471
1163.000000	0.313494
1164.000000	0.313467
1165.000000	0.313240
1166.000000	0.313268
1167.000000	0.313314
1168.000000	0.313274
1169.000000	0.313341
1170.000000	0.313431
1171.000000	0.313524
1172.000000	0.313532
1173.000000	0.313537
1174.000000	0.313546
1175.000000	0.313356
1176.000000	0.313278
1177.000000	0.313403
1178.000000	0.313488
1179.000000	0.313625
1180.000000	0.313609
1181.000000	0.313563
1182.000000	0.313573
1183.000000	0.313723
1184.000000	0.313804
1185.000000	0.313858
1186.000000	0.314064
1187.000000	0.314034
1188.000000	0.313703
1189.000000	0.313674
1190.000000	0.313845
1191.000000	0.313822
1192.000000	0.313918
1193.000000	0.314050
1194.000000	0.313902
1195.000000	0.313926
1196.000000	0.314074
1197.000000	0.314151
1198.000000	0.314220
1199.000000	0.314319
1200.000000	0.314517
1201.000000	0.314522
1202.000000	0.314481
1203.000000	0.314347
1204.000000	0.314170
1205.000000	0.314256
1206.000000	0.314213
1207.000000	0.314407
1208.000000	0.314339
1209.000000	0.314096
1210.000000	0.313991
1211.000000	0.313855
1212.000000	0.313781
1213.000000	0.313883
1214.000000	0.313916
1215.000000	0.313869
1216.000000	0.313896
1217.000000	0.313987
1218.000000	0.313962
1219.000000	0.313929
1220.000000	0.313913
1221.000000	0.313936
1222.000000	0.313864
1223.000000	0.313700
1224.000000	0.313745
1225.000000	0.313705
1226.000000	0.313548
1227.000000	0.313513
1228.000000	0.313541
1229.000000	0.313582
1230.000000	0.313698
1231.000000	0.313619
1232.000000	0.313567
1233.000000	0.313642
1234.000000	0.313654
1235.000000	0.313588
1236.000000	0.313465
1237.000000	0.313509
1238.000000	0.313441
1239.000000	0.313427
1240.000000	0.313566
1241.000000	0.313771
1242.000000	0.313771
1243.000000	0.313697
1244.000000	0.313728
1245.000000	0.313674
1246.000000	0.313473
1247.000000	0.313539
1248.000000	0.313611
1249.000000	0.313639
1250.000000	0.313848
1251.000000	0.313954
1252.000000	0.313901
1253.000000	0.313745
1254.000000	0.313600
1255.000000	0.313235
1256.000000	0.313103
1257.000000	0.313146
1258.000000	0.313120
1259.000000	0.313084
1260.000000	0.313101
1261.000000	0.312989
1262.000000	0.312978
1263.000000	0.313080
1264.000000	0.313184
1265.000000	0.313319
1266.000000	0.313370
1267.000000	0.313225
1268.000000	0.313017
1269.000000	0.312800
1270.000000	0.312730
1271.000000	0.312827
1272.000000	0.312962
1273.000000	0.313109
1274.000000	0.313088
1275.000000	0.313062
1276.000000	0.313067
1277.000000	0.313107
1278.000000	0.312952
1279.000000	0.312912
1280.000000	0.312865
1281.000000	0.312818
1282.000000	0.312920
1283.000000	0.313007
1284.000000	0.313014
1285.000000	0.313023
1286.000000	0.312990
1287.000000	0.312897
1288.000000	0.312927
1289.000000	0.312946
1290.000000	0.312793
1291.000000	0.312639
1292.000000	0.312562
1293.000000	0.312573
1294.000000	0.312688
1295.000000	0.312828
1296.000000	0.312775
1297.000000	0.312614
1298.000000	0.312575
1299.000000	0.312439
1300.000000	0.312421
1301.000000	0.312598
1302.000000	0.312587
1303.000000	0.312606
1304.000000	0.312632
1305.000000	0.312697
1306.000000	0.312671
1307.000000	0.312690
1308.000000	0.312686
1309.000000	0.312626
1310.000000	0.312606
1311.000000	0.312618
1312.000000	0.312593
1313.000000	0.312635
1314.000000	0.312580
1315.000000	0.312526
1316.000000	0.312460
1317.000000	0.312298
1318.000000	0.312118
1319.000000	0.311877
1320.000000	0.311725
1321.000000	0.311506
1322.000000	0.311307
1323.000000	0.311130
1324.000000	0.311089
1325.000000	0.311266
1326.000000	0.311418
1327.000000	0.311581
1328.000000	0.311651
1329.000000	0.311590
1330.000000	0.311329
1331.000000	0.311231
1332.000000	0.311175
1333.000000	0.311141
1334.000000	0.311273
1335.000000	0.311293
1336.000000	0.311266
1337.000000	0.311231
1338.000000	0.311114
1339.000000	0.310915
1340.000000	0.310887
1341.000000	0.310803
1342.000000	0.310794
1343.000000	0.310868
1344.000000	0.310686
1345.000000	0.310433
1346.000000	0.310300
1347.000000	0.310061
1348.000000	0.309867
1349.000000	0.309666
1350.000000	0.309553
1351.000000	0.309396
1352.000000	0.309248
1353.000000	0.309304
1354.000000	0.309245
1355.000000	0.308993
1356.000000	0.308889
1357.000000	0.308699
1358.000000	0.308474
1359.000000	0.308478
1360.000000	0.308420
1361.000000	0.308461
1362.000000	0.308351
1363.000000	0.308083
1364.000000	0.307983
1365.000000	0.307949
1366.000000	0.307823
1367.000000	0.307738
1368.000000	0.307575
1369.000000	0.307456
1370.000000	0.307210
1371.000000	0.306950
1372.000000	0.306834
1373.000000	0.306578
1374.000000	0.306206
1375.000000	0.306024
1376.000000	0.305889
1377.000000	0.305601
1378.000000	0.305358
1379.000000	0.305017
1380.000000	0.304401
1381.000000	0.303753
1382.000000	0.303255
1383.000000	0.302598
1384.000000	0.301734
1385.000000	0.300852
1386.000000	0.299884
1387.000000	0.299082
1388.000000	0.298476
1389.000000	0.297998
1390.000000	0.297690
1391.000000	0.297367
1392.000000	0.297226
1393.000000	0.297137
1394.000000	0.297286
1395.000000	0.297225
1396.000000	0.297152
1397.000000	0.297000
1398.000000	0.296662
1399.000000	0.296396
1400.000000	0.296208
1401.000000	0.295867
1402.000000	0.295478
1403.000000	0.295052
1404.000000	0.294711
1405.000000	0.294217
1406.000000	0.293790
1407.000000	0.293566
1408.000000	0.293194
1409.000000	0.292790
1410.000000	0.292306
1411.000000	0.291715
1412.000000	0.291226
1413.000000	0.290790
1414.000000	0.290445
1415.000000	0.290104
1416.000000	0.289581
1417.000000	0.289242
1418.000000	0.288976
1419.000000	0.288692
1420.000000	0.288522
1421.000000	0.288388
1422.000000	0.288086
1423.000000	0.287825
1424.000000	0.287488
1425.000000	0.287034
1426.000000	0.286577
1427.000000	0.286255
1428.000000	0.286087
1429.000000	0.285868
1430.000000	0.285691
1431.000000	0.285574
1432.000000	0.285333
1433.000000	0.284956
1434.000000	0.284761
1435.000000	0.284711
1436.000000	0.284507
1437.000000	0.284305
1438.000000	0.284083
1439.000000	0.283772
1440.000000	0.283562
1441.000000	0.283523
1442.000000	0.283329
1443.000000	0.282981
1444.000000	0.282722
1445.000000	0.282443
1446.000000	0.282160
1447.000000	0.281992
1448.000000	0.281810
1449.000000	0.281595
1450.000000	0.281369
1451.000000	0.281184
1452.000000	0.280963
1453.000000	0.280692
1454.000000	0.280474
1455.000000	0.280330
1456.000000	0.280150
1457.000000	0.279997
1458.000000	0.280021
1459.000000	0.279976
1460.000000	0.279832
1461.000000	0.279789
1462.000000	0.279677
1463.000000	0.279470
1464.000000	0.279414
1465.000000	0.279462
1466.000000	0.279425
1467.000000	0.279318
1468.000000	0.279250
1469.000000	0.279212
1470.000000	0.279062
1471.000000	0.279159
1472.000000	0.279351
1473.000000	0.279389
1474.000000	0.279582
1475.000000	0.279817
1476.000000	0.279875
1477.000000	0.280156
1478.000000	0.280472
1479.000000	0.280558
1480.000000	0.280676
1481.000000	0.280820
1482.000000	0.280925
1483.000000	0.281134
1484.000000	0.281486
1485.000000	0.281774
1486.000000	0.282032
1487.000000	0.282278
1488.000000	0.282537
1489.000000	0.282823
1490.000000	0.283006
1491.000000	0.283232
1492.000000	0.283376
1493.000000	0.283638
1494.000000	0.284033
1495.000000	0.284264
1496.000000	0.284462
1497.000000	0.284684
1498.000000	0.284864
1499.000000	0.284856
1500.000000	0.285128
1501.000000	0.285401
1502.000000	0.285342
1503.000000	0.285488
1504.000000	0.285594
1505.000000	0.285630
1506.000000	0.285899
1507.000000	0.286064
1508.000000	0.286200
1509.000000	0.286347
1510.000000	0.286398
1511.000000	0.286515
1512.000000	0.286661
1513.000000	0.286780
1514.000000	0.286840
1515.000000	0.286906
1516.000000	0.287007
1517.000000	0.286974
1518.000000	0.287038
1519.000000	0.287031
1520.000000	0.287023
1521.000000	0.287142
1522.000000	0.287335
1523.000000	0.287572
1524.000000	0.287657
1525.000000	0.287697
1526.000000	0.287607
1527.000000	0.287553
1528.000000	0.287643
1529.000000	0.287655
1530.000000	0.287604
1531.000000	0.287518
1532.000000	0.287495
1533.000000	0.287591
1534.000000	0.287676
1535.000000	0.287778
1536.000000	0.287774
1537.000000	0.287678
1538.000000	0.287664
1539.000000	0.287701
1540.000000	0.287726
1541.000000	0.287775
1542.000000	0.287822
1543.000000	0.287919
1544.000000	0.288070
1545.000000	0.288218
1546.000000	0.288304
1547.000000	0.288367
1548.000000	0.288499
1549.000000	0.288575
1550.000000	0.288601
1551.000000	0.288650
1552.000000	0.288624
1553.000000	0.288586
1554.000000	0.288643
1555.000000	0.288693
1556.000000	0.288644
1557.000000	0.288565
1558.000000	0.288626
1559.000000	0.288699
1560.000000	0.288736
1561.000000	0.288984
1562.000000	0.288967
1563.000000	0.288735
1564.000000	0.288705
1565.000000	0.288631
1566.000000	0.288592
1567.000000	0.288796
1568.000000	0.288835
1569.000000	0.288875
1570.000000	0.288917
1571.000000	0.288904
1572.000000	0.288887
1573.000000	0.288882
1574.000000	0.288833
1575.000000	0.288771
1576.000000	0.288741
1577.000000	0.288706
1578.000000	0.288628
1579.000000	0.288505
1580.000000	0.288511
1581.000000	0.288662
1582.000000	0.288699
1583.000000	0.288803
1584.000000	0.288807
1585.000000	0.288734
1586.000000	0.288721
1587.000000	0.288699
1588.000000	0.288735
1589.000000	0.288840
1590.000000	0.288879
1591.000000	0.288999
1592.000000	0.289044
1593.000000	0.288977
1594.000000	0.288944
1595.000000	0.288953
1596.000000	0.288981
1597.000000	0.289093
1598.000000	0.289104
1599.000000	0.289129
1600.000000	0.289029
1601.000000	0.288837
1602.000000	0.288749
1603.000000	0.288657
1604.000000	0.288670
1605.000000	0.288813
1606.000000	0.288850
1607.000000	0.288973
1608.000000	0.289032
1609.000000	0.289086
1610.000000	0.289103
1611.000000	0.289119
1612.000000	0.289063
1613.000000	0.288990
1614.000000	0.288975
1615.000000	0.289010
1616.000000	0.289071
1617.000000	0.289131
1618.000000	0.289184
1619.000000	0.289229
1620.000000	0.289302
1621.000000	0.289449
1622.000000	0.289576
1623.000000	0.289678
1624.000000	0.289702
1625.000000	0.289521
1626.000000	0.289462
1627.000000	0.289424
1628.000000	0.289440
1629.000000	0.289503
1630.000000	0.289608
1631.000000	0.289723
1632.000000	0.289764
1633.000000	0.289816
1634.000000	0.289919
1635.000000	0.289960
1636.000000	0.290104
1637.000000	0.290486
1638.000000	0.290624
1639.000000	0.290678
1640.000000	0.290773
1641.000000	0.290855
1642.000000	0.290906
1643.000000	0.291045
1644.000000	0.291111
1645.000000	0.291051
1646.000000	0.291060
1647.000000	0.291105
1648.000000	0.291182
1649.000000	0.291381
1650.000000	0.291574
1651.000000	0.291898
1652.000000	0.292044
1653.000000	0.292073
1654.000000	0.292134
1655.000000	0.292039
1656.000000	0.291970
1657.000000	0.291962
1658.000000	0.291966
1659.000000	0.292090
1660.000000	0.292130
1661.000000	0.292097
1662.000000	0.292101
1663.000000	0.291987
1664.000000	0.292023
1665.000000	0.292206
1666.000000	0.292306
1667.000000	0.292272
1668.000000	0.292420
1669.000000	0.292638
1670.000000	0.292665
1671.000000	0.292850
1672.000000	0.292946
1673.000000	0.292789
1674.000000	0.292911
1675.000000	0.293082
1676.000000	0.293065
1677.000000	0.293006
1678.000000	0.293135
1679.000000	0.293270
1680.000000	0.293425
1681.000000	0.293632
1682.000000	0.293681
1683.000000	0.293639
1684.000000	0.293560
1685.000000	0.293535
1686.000000	0.293530
1687.000000	0.293459
1688.000000	0.293335
1689.000000	0.293277
1690.000000	0.293222
1691.000000	0.293218
1692.000000	0.293243
1693.000000	0.293356
1694.000000	0.293333
1695.000000	0.293308
1696.000000	0.293344
1697.000000	0.293278
1698.000000	0.293222
1699.000000	0.293200
1700.000000	0.293105
1701.000000	0.293130
1702.000000	0.293002
1703.000000	0.293013
1704.000000	0.293357
1705.000000	0.293447
1706.000000	0.293533
1707.000000	0.293583
1708.000000	0.293319
1709.000000	0.293222
1710.000000	0.293373
1711.000000	0.293457
1712.000000	0.293619
1713.000000	0.293675
1714.000000	0.293695
1715.000000	0.293729
1716.000000	0.293681
1717.000000	0.293725
1718.000000	0.293848
1719.000000	0.293859
1720.000000	0.293858
1721.000000	0.293934
1722.000000	0.293995
1723.000000	0.294085
1724.000000	0.294323
1725.000000	0.294461
1726.000000	0.294489
1727.000000	0.294451
1728.000000	0.294294
1729.000000	0.294138
1730.000000	0.293913
1731.000000	0.293947
1732.000000	0.294191
1733.000000	0.294337
1734.000000	0.294529
1735.000000	0.294523
1736.000000	0.294275
1737.000000	0.294203
1738.000000	0.294090
1739.000000	0.294158
1740.000000	0.294400
1741.000000	0.294435
1742.000000	0.294493
1743.000000	0.294524
1744.000000	0.294395
1745.000000	0.294401
1746.000000	0.294489
1747.000000	0.294455
1748.000000	0.294443
1749.000000	0.294538
1750.000000	0.294468
1751.000000	0.294400
1752.000000	0.294460
1753.000000	0.294264
1754.000000	0.294233
1755.000000	0.294403
1756.000000	0.294460
1757.000000	0.294462
1758.000000	0.294567
1759.000000	0.294749
1760.000000	0.294796
1761.000000	0.294723
1762.000000	0.294789
1763.000000	0.294855
1764.000000	0.294906
1765.000000	0.295111
1766.000000	0.295188
1767.000000	0.294934
1768.000000	0.294928
1769.000000	0.295244
1770.000000	0.295288
1771.000000	0.295262
1772.000000	0.295203
1773.000000	0.294825
1774.000000	0.294751
1775.000000	0.294932
1776.000000	0.294986
1777.000000	0.295103
1778.000000	0.294992
1779.000000	0.294668
1780.000000	0.294579
1781.000000	0.294437
1782.000000	0.294388
1783.000000	0.294539
1784.000000	0.294704
1785.000000	0.294665
1786.000000	0.294775
1787.000000	0.295170
1788.000000	0.295436
1789.000000	0.295595
1790.000000	0.295778
1791.000000	0.295808
1792.000000	0.295747
1793.000000	0.295740
1794.000000	0.295642
1795.000000	0.295663
1796.000000	0.295773
1797.000000	0.295875
1798.000000	0.296139
1799.000000	0.296164
1800.000000	0.295968
1801.000000	0.295900
1802.000000	0.296022
1803.000000	0.296349
1804.000000	0.296551
1805.000000	0.297027
1806.000000	0.297550
1807.000000	0.298142
1808.000000	0.298474
1809.000000	0.298877
1810.000000	0.299407
1811.000000	0.299392
1812.000000	0.298502
1813.000000	0.298491
1814.000000	0.299018
1815.000000	0.298910
1816.000000	0.298800
1817.000000	0.298606
1818.000000	0.298130
1819.000000	0.297701
1820.000000	0.297051
1821.000000	0.296351
1822.000000	0.295905
1823.000000	0.294841
1824.000000	0.294621
1825.000000	0.295104
1826.000000	0.295565
1827.000000	0.296187
1828.000000	0.297060
1829.000000	0.298146
1830.000000	0.298159
1831.000000	0.297733
1832.000000	0.296520
1833.000000	0.295749
1834.000000	0.294074
1835.000000	0.293598
1836.000000	0.293771
1837.000000	0.293956
1838.000000	0.294523
1839.000000	0.295306
1840.000000	0.295621
1841.000000	0.295246
1842.000000	0.295016
1843.000000	0.294050
1844.000000	0.293818
1845.000000	0.293897
1846.000000	0.293985
1847.000000	0.294290
1848.000000	0.294400
1849.000000	0.294278
1850.000000	0.294038
1851.000000	0.293603
1852.000000	0.292668
1853.000000	0.292316
1854.000000	0.291616
1855.000000	0.291485
1856.000000	0.291852
1857.000000	0.292191
1858.000000	0.292598
1859.000000	0.292172
1860.000000	0.291339
1861.000000	0.290354
1862.000000	0.289449
1863.000000	0.288364
1864.000000	0.287713
1865.000000	0.287303
1866.000000	0.286979
1867.000000	0.287242
1868.000000	0.286327
1869.000000	0.285521
1870.000000	0.284528
1871.000000	0.283095
1872.000000	0.282686
1873.000000	0.281932
1874.000000	0.281489
1875.000000	0.280448
1876.000000	0.278979
1877.000000	0.276959
1878.000000	0.274988
1879.000000	0.273745
1880.000000	0.273056
1881.000000	0.272176
1882.000000	0.270939
1883.000000	0.269353
1884.000000	0.267630
1885.000000	0.265136
1886.000000	0.262920
1887.000000	0.260674
1888.000000	0.258342
1889.000000	0.256202
1890.000000	0.253730
1891.000000	0.251438
1892.000000	0.249073
1893.000000	0.246447
1894.000000	0.244532
1895.000000	0.242480
1896.000000	0.240753
1897.000000	0.238951
1898.000000	0.237330
1899.000000	0.235134
1900.000000	0.232768
1901.000000	0.230580
1902.000000	0.227860
1903.000000	0.225439
1904.000000	0.224128
1905.000000	0.222621
1906.000000	0.220979
1907.000000	0.219552
1908.000000	0.218626
1909.000000	0.216719
1910.000000	0.215331
1911.000000	0.215376
1912.000000	0.215025
1913.000000	0.214742
1914.000000	0.214600
1915.000000	0.213385
1916.000000	0.212333
1917.000000	0.211445
1918.000000	0.210764
1919.000000	0.209751
1920.000000	0.209214
1921.000000	0.208708
1922.000000	0.208118
1923.000000	0.208211
1924.000000	0.208396
1925.000000	0.207958
1926.000000	0.207514
1927.000000	0.207455
1928.000000	0.207539
1929.000000	0.207830
1930.000000	0.208509
1931.000000	0.208736
1932.000000	0.208395
1933.000000	0.207858
1934.000000	0.207606
1935.000000	0.208013
1936.000000	0.208491
1937.000000	0.208737
1938.000000	0.208453
1939.000000	0.208204
1940.000000	0.207525
1941.000000	0.207340
1942.000000	0.207582
1943.000000	0.208000
1944.000000	0.208594
1945.000000	0.208701
1946.000000	0.208272
1947.000000	0.208108
1948.000000	0.207885
1949.000000	0.207526
1950.000000	0.207684
1951.000000	0.207597
1952.000000	0.207472
1953.000000	0.206952
1954.000000	0.207011
1955.000000	0.206720
1956.000000	0.206249
1957.000000	0.206302
1958.000000	0.206131
1959.000000	0.206280
1960.000000	0.206456
1961.000000	0.206460
1962.000000	0.206432
1963.000000	0.206399
1964.000000	0.206220
1965.000000	0.206112
1966.000000	0.205922
1967.000000	0.205993
1968.000000	0.206307
1969.000000	0.206651
1970.000000	0.207121
1971.000000	0.207468
1972.000000	0.207425
1973.000000	0.207471
1974.000000	0.207621
1975.000000	0.207701
1976.000000	0.207682
1977.000000	0.207891
1978.000000	0.208136
1979.000000	0.208053
1980.000000	0.208123
1981.000000	0.208891
1982.000000	0.209368
1983.000000	0.210230
1984.000000	0.210729
1985.000000	0.210968
1986.000000	0.211003
1987.000000	0.210902
1988.000000	0.210791
1989.000000	0.210776
1990.000000	0.211618
1991.000000	0.212243
1992.000000	0.212718
1993.000000	0.212548
1994.000000	0.212332
1995.000000	0.211926
1996.000000	0.211701
1997.000000	0.211873
1998.000000	0.212423
1999.000000	0.213106
2000.000000	0.214464
2001.000000	0.215061
2002.000000	0.215628
2003.000000	0.216461
2004.000000	0.216402
2005.000000	0.216724
2006.000000	0.217374
2007.000000	0.218239
2008.000000	0.219235
2009.000000	0.220710
2010.000000	0.221947
2011.000000	0.223169
2012.000000	0.223949
2013.000000	0.224583
2014.000000	0.225017
2015.000000	0.225054
2016.000000	0.225052
2017.000000	0.225140
2018.000000	0.225497
2019.000000	0.225826
2020.000000	0.226527
2021.000000	0.226873
2022.000000	0.226820
2023.000000	0.227227
2024.000000	0.227507
2025.000000	0.228183
2026.000000	0.229223
2027.000000	0.230687
2028.000000	0.231277
2029.000000	0.231962
2030.000000	0.232112
2031.000000	0.231780
2032.000000	0.231993
2033.000000	0.232045
2034.000000	0.232511
2035.000000	0.233453
2036.000000	0.234211
2037.000000	0.235653
2038.000000	0.236396
2039.000000	0.237071
2040.000000	0.237206
2041.000000	0.236844
2042.000000	0.236412
2043.000000	0.236116
2044.000000	0.236781
2045.000000	0.237553
2046.000000	0.237750
2047.000000	0.238030
2048.000000	0.237844
2049.000000	0.238306
2050.000000	0.238913
2051.000000	0.239418
2052.000000	0.240242
2053.000000	0.240625
2054.000000	0.240645
2055.000000	0.240989
2056.000000	0.241853
2057.000000	0.242701
2058.000000	0.243381
2059.000000	0.244021
2060.000000	0.244590
2061.000000	0.244780
2062.000000	0.245102
2063.000000	0.245788
2064.000000	0.245860
2065.000000	0.245562
2066.000000	0.245588
2067.000000	0.245652
2068.000000	0.245872
2069.000000	0.247056
2070.000000	0.248015
2071.000000	0.248131
2072.000000	0.248724
2073.000000	0.248864
2074.000000	0.248229
2075.000000	0.248274
2076.000000	0.248916
2077.000000	0.248976
2078.000000	0.248879
2079.000000	0.248972
2080.000000	0.248752
2081.000000	0.249062
2082.000000	0.250130
2083.000000	0.250227
2084.000000	0.250931
2085.000000	0.251212
2086.000000	0.250934
2087.000000	0.251599
2088.000000	0.252170
2089.000000	0.252750
2090.000000	0.253126
2091.000000	0.253605
2092.000000	0.253823
2093.000000	0.253840
2094.000000	0.253665
2095.000000	0.252956
2096.000000	0.252961
2097.000000	0.252859
2098.000000	0.253151
2099.000000	0.254387
2100.000000	0.255523
2101.000000	0.256509
2102.000000	0.257044
2103.000000	0.257470
2104.000000	0.258162
2105.000000	0.258792
2106.000000	0.259804
2107.000000	0.260209
2108.000000	0.260224
2109.000000	0.260242
2110.000000	0.259562
2111.000000	0.259339
2112.000000	0.259244
2113.000000	0.259030
2114.000000	0.258893
2115.000000	0.259025
2116.000000	0.258650
2117.000000	0.258485
2118.000000	0.259831
2119.000000	0.260410
2120.000000	0.260882
2121.000000	0.262019
2122.000000	0.262379
2123.000000	0.261587
2124.000000	0.261602
2125.000000	0.261781
2126.000000	0.261988
2127.000000	0.262424
2128.000000	0.262882
2129.000000	0.263782
2130.000000	0.263826
2131.000000	0.263527
2132.000000	0.263098
2133.000000	0.262184
2134.000000	0.261962
2135.000000	0.262339
2136.000000	0.262698
2137.000000	0.263033
2138.000000	0.263676
2139.000000	0.263987
2140.000000	0.264038
2141.000000	0.264142
2142.000000	0.263853
2143.000000	0.264004
2144.000000	0.264985
2145.000000	0.265460
2146.000000	0.266016
2147.000000	0.266722
2148.000000	0.267133
2149.000000	0.266394
2150.000000	0.265165
2151.000000	0.264771
2152.000000	0.263784
2153.000000	0.262893
2154.000000	0.262662
2155.000000	0.263178
2156.000000	0.263369
2157.000000	0.263959
2158.000000	0.264220
2159.000000	0.264722
2160.000000	0.264616
2161.000000	0.263871
2162.000000	0.263551
2163.000000	0.262807
2164.000000	0.262334
2165.000000	0.262108
2166.000000	0.262020
2167.000000	0.262066
2168.000000	0.262305
2169.000000	0.262592
2170.000000	0.263535
2171.000000	0.263992
2172.000000	0.264315
2173.000000	0.264470
2174.000000	0.264349
2175.000000	0.264294
2176.000000	0.264261
2177.000000	0.264263
2178.000000	0.264084
2179.000000	0.264427
2180.000000	0.265089
2181.000000	0.265669
2182.000000	0.266030
2183.000000	0.266527
2184.000000	0.266994
2185.000000	0.266496
2186.000000	0.265634
2187.000000	0.265435
2188.000000	0.264574
2189.000000	0.264936
2190.000000	0.265404
2191.000000	0.265709
2192.000000	0.266330
2193.000000	0.267205
2194.000000	0.267173
2195.000000	0.267146
2196.000000	0.267100
2197.000000	0.266453
2198.000000	0.265535
2199.000000	0.264641
2200.000000	0.263595
2201.000000	0.261264
2202.000000	0.259898
2203.000000	0.258760
2204.000000	0.258200
2205.000000	0.258662
2206.000000	0.259415
2207.000000	0.262022
2208.000000	0.264564
2209.000000	0.264118
2210.000000	0.265272
2211.000000	0.265201
2212.000000	0.261719
2213.000000	0.260837
2214.000000	0.261371
2215.000000	0.260442
2216.000000	0.259509
2217.000000	0.259711
2218.000000	0.259841
2219.000000	0.259767
2220.000000	0.259766
2221.000000	0.260083
2222.000000	0.259749
2223.000000	0.260462
2224.000000	0.262090
2225.000000	0.265100
2226.000000	0.266160
2227.000000	0.266028
2228.000000	0.264133
2229.000000	0.261007
2230.000000	0.259416
2231.000000	0.258878
2232.000000	0.259613
2233.000000	0.261853
2234.000000	0.263468
2235.000000	0.266073
2236.000000	0.266461
2237.000000	0.265281
2238.000000	0.264813
2239.000000	0.262877
2240.000000	0.261831
2241.000000	0.261631
2242.000000	0.261896
2243.000000	0.262483
2244.000000	0.262641
2245.000000	0.264352
2246.000000	0.263741
2247.000000	0.259757
2248.000000	0.258714
2249.000000	0.259057
2250.000000	0.257610
2251.000000	0.256721
2252.000000	0.259189
2253.000000	0.258083
2254.000000	0.256780
2255.000000	0.258272
2256.000000	0.257042
2257.000000	0.255240
2258.000000	0.254762
2259.000000	0.254531
2260.000000	0.254333
2261.000000	0.254549
2262.000000	0.255530
2263.000000	0.256739
2264.000000	0.259175
2265.000000	0.260198
2266.000000	0.261332
2267.000000	0.262033
2268.000000	0.260684
2269.000000	0.259912
2270.000000	0.260543
2271.000000	0.259705
2272.000000	0.257961
2273.000000	0.256439
2274.000000	0.253070
2275.000000	0.251760
2276.000000	0.251810
2277.000000	0.251360
2278.000000	0.250929
2279.000000	0.250416
2280.000000	0.248747
2281.000000	0.248335
2282.000000	0.248853
2283.000000	0.249862
2284.000000	0.253121
2285.000000	0.253032
2286.000000	0.252843
2287.000000	0.254024
2288.000000	0.252113
2289.000000	0.251103
2290.000000	0.249144
2291.000000	0.246876
2292.000000	0.246116
2293.000000	0.244893
2294.000000	0.244617
2295.000000	0.246226
2296.000000	0.246039
2297.000000	0.244764
2298.000000	0.244919
2299.000000	0.246188
2300.000000	0.245550
2301.000000	0.244015
2302.000000	0.243277
2303.000000	0.240721
2304.000000	0.240587
2305.000000	0.243884
2306.000000	0.244465
2307.000000	0.244957
2308.000000	0.243756
2309.000000	0.241267
2310.000000	0.241287
2311.000000	0.241731
2312.000000	0.242045
2313.000000	0.243016
2314.000000	0.241355
2315.000000	0.240138
2316.000000	0.238818
2317.000000	0.236036
2318.000000	0.236214
2319.000000	0.235712
2320.000000	0.234183
2321.000000	0.235069
2322.000000	0.233493
2323.000000	0.233141
2324.000000	0.235998
2325.000000	0.235827
2326.000000	0.237848
2327.000000	0.239434
2328.000000	0.237869
2329.000000	0.239254
2330.000000	0.239005
2331.000000	0.236802
2332.000000	0.236049
2333.000000	0.234263
2334.000000	0.232557
2335.000000	0.231698
2336.000000	0.232235
2337.000000	0.230773
2338.000000	0.227565
2339.000000	0.226176
2340.000000	0.225200
2341.000000	0.223988
2342.000000	0.223989
2343.000000	0.223983
2344.000000	0.222524
2345.000000	0.222434
2346.000000	0.224970
2347.000000	0.225104
2348.000000	0.224604
2349.000000	0.222930
2350.000000	0.222100
2351.000000	0.221210
2352.000000	0.219556
2353.000000	0.222017
2354.000000	0.222687
2355.000000	0.221399
2356.000000	0.220342
2357.000000	0.217514
2358.000000	0.215328
2359.000000	0.215056
2360.000000	0.217126
2361.000000	0.222356
2362.000000	0.225549
2363.000000	0.223968
2364.000000	0.225071
2365.000000	0.223976
2366.000000	0.221223
2367.000000	0.223411
2368.000000	0.221246
2369.000000	0.217125
2370.000000	0.212771
2371.000000	0.208196
2372.000000	0.208734
2373.000000	0.209880
2374.000000	0.215415
2375.000000	0.222576
2376.000000	0.225537
2377.000000	0.226249
2378.000000	0.223805
2379.000000	0.218088
2380.000000	0.210969
2381.000000	0.208854
2382.000000	0.206156
2383.000000	0.204472
2384.000000	0.206505
2385.000000	0.204652
2386.000000	0.204562
2387.000000	0.205978
2388.000000	0.208215
2389.000000	0.212160
2390.000000	0.210237
2391.000000	0.205247
2392.000000	0.202939
2393.000000	0.198577
2394.000000	0.196396
2395.000000	0.205195
2396.000000	0.209286
2397.000000	0.207334
2398.000000	0.212605
2399.000000	0.210439
2400.000000	0.201679
2401.000000	0.201137
2402.000000	0.199908
2403.000000	0.197590
2404.000000	0.200197
2405.000000	0.201829
2406.000000	0.202339
2407.000000	0.200032
2408.000000	0.194849
2409.000000	0.188396
2410.000000	0.177881
2411.000000	0.171340
2412.000000	0.172111
2413.000000	0.176026
2414.000000	0.184019
2415.000000	0.193052
2416.000000	0.200285
2417.000000	0.203740
2418.000000	0.202683
2419.000000	0.199995
2420.000000	0.198616
2421.000000	0.202529
2422.000000	0.207656
2423.000000	0.209786
2424.000000	0.207875
2425.000000	0.206309
2426.000000	0.210849
2427.000000	0.217736
2428.000000	0.219433
2429.000000	0.210050
2430.000000	0.201180
2431.000000	0.197324
2432.000000	0.192446
2433.000000	0.191574
2434.000000	0.188671
2435.000000	0.173332
2436.000000	0.159321
2437.000000	0.154404
2438.000000	0.151333
2439.000000	0.153236
2440.000000	0.155625
2441.000000	0.156662
2442.000000	0.156271
2443.000000	0.153996
2444.000000	0.155248
2445.000000	0.153124
2446.000000	0.144607
2447.000000	0.144444
2448.000000	0.140917
2449.000000	0.142798
2450.000000	0.161184
2451.000000	0.164727
2452.000000	0.175080
2453.000000	0.190900
2454.000000	0.190066
2455.000000	0.188929
2456.000000	0.181743
2457.000000	0.165935
2458.000000	0.165229
2459.000000	0.164014
2460.000000	0.155146
2461.000000	0.160363
2462.000000	0.155819
2463.000000	0.159894
2464.000000	0.177813
2465.000000	0.159258
2466.000000	0.123885
2467.000000	0.096855
2468.000000	0.073831
2469.000000	0.080115
2470.000000	0.102617
2471.000000	0.110555
2472.000000	0.109417
2473.000000	0.104109
2474.000000	0.111611
2475.000000	0.133839
2476.000000	0.143457
2477.000000	0.154568
2478.000000	0.168204
2479.000000	0.138808
2480.000000	0.124199
2481.000000	0.122119
2482.000000	0.081094
2483.000000	0.086666
2484.000000	0.101822
2485.000000	0.090329
2486.000000	0.110447
2487.000000	0.115026
2488.000000	0.099022
2489.000000	0.103682
2490.000000	0.103691
2491.000000	0.063633
2492.000000	0.059353
2493.000000	0.054639
2494.000000	0.056424
2495.000000	0.107289
2496.000000	0.119470
2497.000000	0.099266
2498.000000	0.103528
2499.000000	0.101507
2500.000000	0.112944
