# Wavelength	SM1200H-40_HEX-10_FV7-50_00002.asd.rts.txt
350.000000	0.241384
351.000000	0.274224
352.000000	0.262157
353.000000	0.246791
354.000000	0.251494
355.000000	0.251225
356.000000	0.238966
357.000000	0.228477
358.000000	0.244897
359.000000	0.255241
360.000000	0.253664
361.000000	0.244015
362.000000	0.244746
363.000000	0.249789
364.000000	0.251954
365.000000	0.248562
366.000000	0.245738
367.000000	0.245913
368.000000	0.249849
369.000000	0.248571
370.000000	0.247191
371.000000	0.253285
372.000000	0.257758
373.000000	0.256749
374.000000	0.251175
375.000000	0.249883
376.000000	0.250453
377.000000	0.251745
378.000000	0.254178
379.000000	0.256414
380.000000	0.256940
381.000000	0.255666
382.000000	0.255163
383.000000	0.254738
384.000000	0.254159
385.000000	0.254640
386.000000	0.255878
387.000000	0.257145
388.000000	0.256690
389.000000	0.256973
390.000000	0.257650
391.000000	0.257312
392.000000	0.258207
393.000000	0.258434
394.000000	0.257287
395.000000	0.260152
396.000000	0.261129
397.000000	0.259049
398.000000	0.258816
399.000000	0.260546
400.000000	0.262088
401.000000	0.260207
402.000000	0.259698
403.000000	0.260295
404.000000	0.260919
405.000000	0.260183
406.000000	0.260419
407.000000	0.262158
408.000000	0.262796
409.000000	0.262707
410.000000	0.262519
411.000000	0.263086
412.000000	0.263435
413.000000	0.263934
414.000000	0.265017
415.000000	0.265666
416.000000	0.265932
417.000000	0.265929
418.000000	0.265555
419.000000	0.265654
420.000000	0.266341
421.000000	0.267148
422.000000	0.267360
423.000000	0.267286
424.000000	0.267603
425.000000	0.267825
426.000000	0.267769
427.000000	0.267551
428.000000	0.268179
429.000000	0.268983
430.000000	0.269545
431.000000	0.269655
432.000000	0.269864
433.000000	0.269991
434.000000	0.269697
435.000000	0.269957
436.000000	0.270578
437.000000	0.271109
438.000000	0.271262
439.000000	0.271370
440.000000	0.271539
441.000000	0.270847
442.000000	0.270958
443.000000	0.271723
444.000000	0.271891
445.000000	0.271985
446.000000	0.272177
447.000000	0.272420
448.000000	0.273339
449.000000	0.273990
450.000000	0.273893
451.000000	0.274196
452.000000	0.274137
453.000000	0.273833
454.000000	0.274759
455.000000	0.275078
456.000000	0.275048
457.000000	0.275506
458.000000	0.275762
459.000000	0.275999
460.000000	0.276407
461.000000	0.276216
462.000000	0.276289
463.000000	0.276742
464.000000	0.276840
465.000000	0.277217
466.000000	0.277683
467.000000	0.277687
468.000000	0.277586
469.000000	0.277588
470.000000	0.277952
471.000000	0.278070
472.000000	0.278115
473.000000	0.278324
474.000000	0.278858
475.000000	0.279076
476.000000	0.279038
477.000000	0.279167
478.000000	0.279210
479.000000	0.279475
480.000000	0.280035
481.000000	0.280284
482.000000	0.280445
483.000000	0.280582
484.000000	0.280812
485.000000	0.280942
486.000000	0.281126
487.000000	0.281542
488.000000	0.281928
489.000000	0.282178
490.000000	0.282251
491.000000	0.282489
492.000000	0.282836
493.000000	0.282998
494.000000	0.283191
495.000000	0.283478
496.000000	0.283805
497.000000	0.284066
498.000000	0.284196
499.000000	0.284365
500.000000	0.284876
501.000000	0.284968
502.000000	0.284979
503.000000	0.285596
504.000000	0.285936
505.000000	0.286036
506.000000	0.286120
507.000000	0.286305
508.000000	0.286645
509.000000	0.287040
510.000000	0.287233
511.000000	0.287475
512.000000	0.287818
513.000000	0.288097
514.000000	0.288442
515.000000	0.288807
516.000000	0.289050
517.000000	0.289408
518.000000	0.289761
519.000000	0.289948
520.000000	0.290285
521.000000	0.290607
522.000000	0.290842
523.000000	0.291032
524.000000	0.291239
525.000000	0.291469
526.000000	0.291738
527.000000	0.291924
528.000000	0.292109
529.000000	0.292443
530.000000	0.292735
531.000000	0.293042
532.000000	0.293321
533.000000	0.293627
534.000000	0.293946
535.000000	0.294258
536.000000	0.294574
537.000000	0.294780
538.000000	0.294925
539.000000	0.295115
540.000000	0.295381
541.000000	0.295656
542.000000	0.295911
543.000000	0.296121
544.000000	0.296367
545.000000	0.296631
546.000000	0.296996
547.000000	0.297287
548.000000	0.297546
549.000000	0.297866
550.000000	0.298126
551.000000	0.298367
552.000000	0.298620
553.000000	0.298954
554.000000	0.299259
555.000000	0.299489
556.000000	0.299841
557.000000	0.300118
558.000000	0.300411
559.000000	0.300799
560.000000	0.301062
561.000000	0.301328
562.000000	0.301724
563.000000	0.301974
564.000000	0.302223
565.000000	0.302537
566.000000	0.302843
567.000000	0.303156
568.000000	0.303471
569.000000	0.303843
570.000000	0.304171
571.000000	0.304425
572.000000	0.304659
573.000000	0.304955
574.000000	0.305280
575.000000	0.305615
576.000000	0.305885
577.000000	0.306117
578.000000	0.306400
579.000000	0.306642
580.000000	0.306884
581.000000	0.307156
582.000000	0.307481
583.000000	0.307776
584.000000	0.308052
585.000000	0.308374
586.000000	0.308657
587.000000	0.308897
588.000000	0.309111
589.000000	0.309328
590.000000	0.309585
591.000000	0.309878
592.000000	0.310100
593.000000	0.310396
594.000000	0.310753
595.000000	0.311008
596.000000	0.311236
597.000000	0.311486
598.000000	0.311692
599.000000	0.311809
600.000000	0.311992
601.000000	0.312263
602.000000	0.312454
603.000000	0.312558
604.000000	0.312647
605.000000	0.312914
606.000000	0.313104
607.000000	0.313189
608.000000	0.313283
609.000000	0.313459
610.000000	0.313625
611.000000	0.313686
612.000000	0.313871
613.000000	0.314016
614.000000	0.314076
615.000000	0.314208
616.000000	0.314412
617.000000	0.314615
618.000000	0.314762
619.000000	0.314886
620.000000	0.315014
621.000000	0.315226
622.000000	0.315362
623.000000	0.315470
624.000000	0.315603
625.000000	0.315688
626.000000	0.315825
627.000000	0.316025
628.000000	0.316140
629.000000	0.316355
630.000000	0.316562
631.000000	0.316802
632.000000	0.316981
633.000000	0.317122
634.000000	0.317245
635.000000	0.317287
636.000000	0.317345
637.000000	0.317459
638.000000	0.317626
639.000000	0.317701
640.000000	0.317757
641.000000	0.317879
642.000000	0.318064
643.000000	0.318222
644.000000	0.318266
645.000000	0.318390
646.000000	0.318557
647.000000	0.318690
648.000000	0.318797
649.000000	0.318939
650.000000	0.319122
651.000000	0.319357
652.000000	0.319454
653.000000	0.319520
654.000000	0.319703
655.000000	0.319935
656.000000	0.320144
657.000000	0.320238
658.000000	0.320364
659.000000	0.320523
660.000000	0.320690
661.000000	0.320874
662.000000	0.321024
663.000000	0.321161
664.000000	0.321239
665.000000	0.321379
666.000000	0.321541
667.000000	0.321633
668.000000	0.321752
669.000000	0.321909
670.000000	0.322093
671.000000	0.322230
672.000000	0.322390
673.000000	0.322577
674.000000	0.322766
675.000000	0.322895
676.000000	0.323034
677.000000	0.323275
678.000000	0.323424
679.000000	0.323544
680.000000	0.323692
681.000000	0.323774
682.000000	0.323914
683.000000	0.324082
684.000000	0.324347
685.000000	0.324458
686.000000	0.324491
687.000000	0.324579
688.000000	0.324780
689.000000	0.324972
690.000000	0.325105
691.000000	0.325256
692.000000	0.325377
693.000000	0.325511
694.000000	0.325626
695.000000	0.325718
696.000000	0.325830
697.000000	0.326015
698.000000	0.326138
699.000000	0.326264
700.000000	0.326462
701.000000	0.326661
702.000000	0.326836
703.000000	0.326965
704.000000	0.327075
705.000000	0.327227
706.000000	0.327369
707.000000	0.327503
708.000000	0.327629
709.000000	0.327765
710.000000	0.327943
711.000000	0.328139
712.000000	0.328336
713.000000	0.328523
714.000000	0.328619
715.000000	0.328756
716.000000	0.328909
717.000000	0.328966
718.000000	0.329085
719.000000	0.329204
720.000000	0.329288
721.000000	0.329481
722.000000	0.329585
723.000000	0.329617
724.000000	0.329684
725.000000	0.329785
726.000000	0.329964
727.000000	0.330097
728.000000	0.330249
729.000000	0.330427
730.000000	0.330570
731.000000	0.330700
732.000000	0.330847
733.000000	0.331008
734.000000	0.330997
735.000000	0.331020
736.000000	0.331176
737.000000	0.331248
738.000000	0.331308
739.000000	0.331390
740.000000	0.331360
741.000000	0.331442
742.000000	0.331559
743.000000	0.331660
744.000000	0.331810
745.000000	0.331843
746.000000	0.331869
747.000000	0.331962
748.000000	0.332065
749.000000	0.332187
750.000000	0.332307
751.000000	0.332444
752.000000	0.332508
753.000000	0.332538
754.000000	0.332664
755.000000	0.332779
756.000000	0.332892
757.000000	0.332977
758.000000	0.333012
759.000000	0.333077
760.000000	0.333123
761.000000	0.333118
762.000000	0.333172
763.000000	0.333262
764.000000	0.333363
765.000000	0.333421
766.000000	0.333432
767.000000	0.333418
768.000000	0.333486
769.000000	0.333554
770.000000	0.333603
771.000000	0.333707
772.000000	0.333786
773.000000	0.333757
774.000000	0.333697
775.000000	0.333723
776.000000	0.333779
777.000000	0.333800
778.000000	0.333854
779.000000	0.333951
780.000000	0.334062
781.000000	0.334096
782.000000	0.334066
783.000000	0.334084
784.000000	0.334087
785.000000	0.334164
786.000000	0.334276
787.000000	0.334364
788.000000	0.334351
789.000000	0.334359
790.000000	0.334382
791.000000	0.334402
792.000000	0.334444
793.000000	0.334518
794.000000	0.334608
795.000000	0.334587
796.000000	0.334513
797.000000	0.334447
798.000000	0.334466
799.000000	0.334507
800.000000	0.334564
801.000000	0.334642
802.000000	0.334701
803.000000	0.334674
804.000000	0.334608
805.000000	0.334624
806.000000	0.334653
807.000000	0.334727
808.000000	0.334753
809.000000	0.334814
810.000000	0.334875
811.000000	0.334875
812.000000	0.334797
813.000000	0.334701
814.000000	0.334600
815.000000	0.334492
816.000000	0.334560
817.000000	0.334669
818.000000	0.334575
819.000000	0.334559
820.000000	0.334553
821.000000	0.334464
822.000000	0.334358
823.000000	0.334321
824.000000	0.334319
825.000000	0.334389
826.000000	0.334398
827.000000	0.334371
828.000000	0.334382
829.000000	0.334389
830.000000	0.334381
831.000000	0.334386
832.000000	0.334275
833.000000	0.334225
834.000000	0.334267
835.000000	0.334379
836.000000	0.334292
837.000000	0.334236
838.000000	0.334252
839.000000	0.334185
840.000000	0.334122
841.000000	0.334042
842.000000	0.333905
843.000000	0.333922
844.000000	0.333872
845.000000	0.333735
846.000000	0.333807
847.000000	0.333783
848.000000	0.333650
849.000000	0.333518
850.000000	0.333431
851.000000	0.333361
852.000000	0.333344
853.000000	0.333381
854.000000	0.333207
855.000000	0.333089
856.000000	0.333178
857.000000	0.333178
858.000000	0.333144
859.000000	0.333041
860.000000	0.332921
861.000000	0.332889
862.000000	0.332914
863.000000	0.332841
864.000000	0.332798
865.000000	0.332709
866.000000	0.332567
867.000000	0.332426
868.000000	0.332359
869.000000	0.332298
870.000000	0.332233
871.000000	0.332047
872.000000	0.331853
873.000000	0.331668
874.000000	0.331519
875.000000	0.331347
876.000000	0.331198
877.000000	0.331073
878.000000	0.330890
879.000000	0.330714
880.000000	0.330461
881.000000	0.330266
882.000000	0.330182
883.000000	0.330065
884.000000	0.329683
885.000000	0.329556
886.000000	0.329499
887.000000	0.329394
888.000000	0.329273
889.000000	0.329141
890.000000	0.328942
891.000000	0.328835
892.000000	0.328723
893.000000	0.328548
894.000000	0.328441
895.000000	0.328396
896.000000	0.328206
897.000000	0.327924
898.000000	0.327684
899.000000	0.327437
900.000000	0.327277
901.000000	0.327146
902.000000	0.326901
903.000000	0.326826
904.000000	0.326762
905.000000	0.326413
906.000000	0.326223
907.000000	0.326131
908.000000	0.326068
909.000000	0.325785
910.000000	0.325551
911.000000	0.325298
912.000000	0.324983
913.000000	0.324873
914.000000	0.324605
915.000000	0.324313
916.000000	0.324291
917.000000	0.323982
918.000000	0.323697
919.000000	0.323636
920.000000	0.323412
921.000000	0.323234
922.000000	0.323139
923.000000	0.323039
924.000000	0.322849
925.000000	0.322515
926.000000	0.322124
927.000000	0.321859
928.000000	0.321570
929.000000	0.321290
930.000000	0.321098
931.000000	0.320990
932.000000	0.320812
933.000000	0.320568
934.000000	0.320320
935.000000	0.319786
936.000000	0.319342
937.000000	0.319168
938.000000	0.318878
939.000000	0.318613
940.000000	0.318399
941.000000	0.318338
942.000000	0.318104
943.000000	0.317870
944.000000	0.317596
945.000000	0.317181
946.000000	0.316881
947.000000	0.316707
948.000000	0.316509
949.000000	0.316284
950.000000	0.316063
951.000000	0.315864
952.000000	0.315800
953.000000	0.315562
954.000000	0.315290
955.000000	0.315021
956.000000	0.314576
957.000000	0.314320
958.000000	0.314268
959.000000	0.314348
960.000000	0.314089
961.000000	0.313843
962.000000	0.313715
963.000000	0.313509
964.000000	0.313195
965.000000	0.312914
966.000000	0.312672
967.000000	0.312529
968.000000	0.312298
969.000000	0.311955
970.000000	0.311684
971.000000	0.311321
972.000000	0.311101
973.000000	0.310961
974.000000	0.310667
975.000000	0.310514
976.000000	0.310330
977.000000	0.309975
978.000000	0.309707
979.000000	0.309668
980.000000	0.309538
981.000000	0.309326
982.000000	0.308924
983.000000	0.308675
984.000000	0.308624
985.000000	0.308347
986.000000	0.308358
987.000000	0.308378
988.000000	0.308046
989.000000	0.307560
990.000000	0.307392
991.000000	0.307302
992.000000	0.307007
993.000000	0.307158
994.000000	0.307080
995.000000	0.306774
996.000000	0.306424
997.000000	0.306798
998.000000	0.307161
999.000000	0.307089
1000.000000	0.306653
1001.000000	0.307295
1002.000000	0.307125
1003.000000	0.306484
1004.000000	0.306222
1005.000000	0.305716
1006.000000	0.305505
1007.000000	0.305498
1008.000000	0.306159
1009.000000	0.306154
1010.000000	0.305167
1011.000000	0.304662
1012.000000	0.304568
1013.000000	0.304599
1014.000000	0.305191
1015.000000	0.305349
1016.000000	0.305004
1017.000000	0.304688
1018.000000	0.304675
1019.000000	0.304983
1020.000000	0.306346
1021.000000	0.306238
1022.000000	0.305410
1023.000000	0.305533
1024.000000	0.305454
1025.000000	0.305220
1026.000000	0.305768
1027.000000	0.306371
1028.000000	0.305543
1029.000000	0.305084
1030.000000	0.305162
1031.000000	0.305028
1032.000000	0.304428
1033.000000	0.303781
1034.000000	0.303901
1035.000000	0.304133
1036.000000	0.304355
1037.000000	0.305927
1038.000000	0.306130
1039.000000	0.305447
1040.000000	0.304856
1041.000000	0.304536
1042.000000	0.304095
1043.000000	0.304295
1044.000000	0.305296
1045.000000	0.306307
1046.000000	0.306725
1047.000000	0.306794
1048.000000	0.306180
1049.000000	0.306100
1050.000000	0.305839
1051.000000	0.305954
1052.000000	0.306730
1053.000000	0.306809
1054.000000	0.306487
1055.000000	0.306694
1056.000000	0.307143
1057.000000	0.307297
1058.000000	0.307660
1059.000000	0.307865
1060.000000	0.307403
1061.000000	0.307420
1062.000000	0.308001
1063.000000	0.308272
1064.000000	0.308453
1065.000000	0.308587
1066.000000	0.308830
1067.000000	0.308860
1068.000000	0.309012
1069.000000	0.309462
1070.000000	0.309605
1071.000000	0.309725
1072.000000	0.309662
1073.000000	0.309280
1074.000000	0.309154
1075.000000	0.309438
1076.000000	0.309228
1077.000000	0.309518
1078.000000	0.310274
1079.000000	0.310642
1080.000000	0.310960
1081.000000	0.311223
1082.000000	0.311512
1083.000000	0.311643
1084.000000	0.311565
1085.000000	0.311773
1086.000000	0.312012
1087.000000	0.312277
1088.000000	0.312585
1089.000000	0.312932
1090.000000	0.313321
1091.000000	0.313595
1092.000000	0.313733
1093.000000	0.314157
1094.000000	0.314244
1095.000000	0.313856
1096.000000	0.314022
1097.000000	0.314405
1098.000000	0.314648
1099.000000	0.315060
1100.000000	0.315266
1101.000000	0.314944
1102.000000	0.315280
1103.000000	0.316234
1104.000000	0.316526
1105.000000	0.316824
1106.000000	0.317021
1107.000000	0.316262
1108.000000	0.316193
1109.000000	0.316698
1110.000000	0.317345
1111.000000	0.317515
1112.000000	0.317709
1113.000000	0.317827
1114.000000	0.317546
1115.000000	0.317554
1116.000000	0.317788
1117.000000	0.317914
1118.000000	0.317821
1119.000000	0.318004
1120.000000	0.318596
1121.000000	0.318745
1122.000000	0.318914
1123.000000	0.319155
1124.000000	0.318748
1125.000000	0.318722
1126.000000	0.318760
1127.000000	0.318929
1128.000000	0.319216
1129.000000	0.319794
1130.000000	0.320051
1131.000000	0.320381
1132.000000	0.320475
1133.000000	0.320289
1134.000000	0.320365
1135.000000	0.320482
1136.000000	0.320501
1137.000000	0.320516
1138.000000	0.320523
1139.000000	0.320551
1140.000000	0.320625
1141.000000	0.320645
1142.000000	0.320772
1143.000000	0.320923
1144.000000	0.321101
1145.000000	0.321188
1146.000000	0.321222
1147.000000	0.321261
1148.000000	0.321051
1149.000000	0.321128
1150.000000	0.321437
1151.000000	0.321537
1152.000000	0.321556
1153.000000	0.321652
1154.000000	0.321616
1155.000000	0.321645
1156.000000	0.321821
1157.000000	0.321900
1158.000000	0.321836
1159.000000	0.321869
1160.000000	0.321949
1161.000000	0.321962
1162.000000	0.322020
1163.000000	0.322174
1164.000000	0.322185
1165.000000	0.322263
1166.000000	0.322327
1167.000000	0.322374
1168.000000	0.322377
1169.000000	0.322360
1170.000000	0.322414
1171.000000	0.322593
1172.000000	0.322628
1173.000000	0.322562
1174.000000	0.322549
1175.000000	0.322452
1176.000000	0.322344
1177.000000	0.322344
1178.000000	0.322331
1179.000000	0.322170
1180.000000	0.322128
1181.000000	0.322272
1182.000000	0.322467
1183.000000	0.322626
1184.000000	0.322746
1185.000000	0.322784
1186.000000	0.322698
1187.000000	0.322652
1188.000000	0.322587
1189.000000	0.322496
1190.000000	0.322429
1191.000000	0.322337
1192.000000	0.322274
1193.000000	0.322387
1194.000000	0.322474
1195.000000	0.322512
1196.000000	0.322611
1197.000000	0.322586
1198.000000	0.322358
1199.000000	0.322332
1200.000000	0.322385
1201.000000	0.322386
1202.000000	0.322500
1203.000000	0.322689
1204.000000	0.322738
1205.000000	0.322803
1206.000000	0.322785
1207.000000	0.322785
1208.000000	0.322765
1209.000000	0.322771
1210.000000	0.322764
1211.000000	0.322761
1212.000000	0.322752
1213.000000	0.322778
1214.000000	0.322777
1215.000000	0.322789
1216.000000	0.322736
1217.000000	0.322476
1218.000000	0.322384
1219.000000	0.322381
1220.000000	0.322427
1221.000000	0.322505
1222.000000	0.322629
1223.000000	0.322583
1224.000000	0.322636
1225.000000	0.322624
1226.000000	0.322588
1227.000000	0.322713
1228.000000	0.322727
1229.000000	0.322724
1230.000000	0.322727
1231.000000	0.322706
1232.000000	0.322741
1233.000000	0.322830
1234.000000	0.323021
1235.000000	0.322995
1236.000000	0.322619
1237.000000	0.322593
1238.000000	0.322638
1239.000000	0.322562
1240.000000	0.322516
1241.000000	0.322733
1242.000000	0.322565
1243.000000	0.322364
1244.000000	0.322489
1245.000000	0.322542
1246.000000	0.322539
1247.000000	0.322689
1248.000000	0.322761
1249.000000	0.322796
1250.000000	0.322809
1251.000000	0.322827
1252.000000	0.322819
1253.000000	0.322761
1254.000000	0.322738
1255.000000	0.322738
1256.000000	0.322750
1257.000000	0.322870
1258.000000	0.322873
1259.000000	0.322727
1260.000000	0.322689
1261.000000	0.322499
1262.000000	0.322425
1263.000000	0.322518
1264.000000	0.322498
1265.000000	0.322536
1266.000000	0.322589
1267.000000	0.322551
1268.000000	0.322605
1269.000000	0.322483
1270.000000	0.322336
1271.000000	0.322289
1272.000000	0.322277
1273.000000	0.322277
1274.000000	0.322243
1275.000000	0.322170
1276.000000	0.322012
1277.000000	0.322016
1278.000000	0.321960
1279.000000	0.321985
1280.000000	0.322106
1281.000000	0.322071
1282.000000	0.322042
1283.000000	0.322122
1284.000000	0.322097
1285.000000	0.322059
1286.000000	0.322019
1287.000000	0.322020
1288.000000	0.322100
1289.000000	0.322156
1290.000000	0.322030
1291.000000	0.321917
1292.000000	0.321743
1293.000000	0.321570
1294.000000	0.321647
1295.000000	0.321705
1296.000000	0.321583
1297.000000	0.321484
1298.000000	0.321436
1299.000000	0.321483
1300.000000	0.321544
1301.000000	0.321521
1302.000000	0.321485
1303.000000	0.321523
1304.000000	0.321474
1305.000000	0.321523
1306.000000	0.321496
1307.000000	0.321432
1308.000000	0.321390
1309.000000	0.321291
1310.000000	0.321234
1311.000000	0.321162
1312.000000	0.321281
1313.000000	0.321326
1314.000000	0.321255
1315.000000	0.321211
1316.000000	0.321090
1317.000000	0.320976
1318.000000	0.321015
1319.000000	0.321133
1320.000000	0.321196
1321.000000	0.321091
1322.000000	0.321022
1323.000000	0.320943
1324.000000	0.320747
1325.000000	0.320677
1326.000000	0.320641
1327.000000	0.320580
1328.000000	0.320635
1329.000000	0.320483
1330.000000	0.320178
1331.000000	0.320008
1332.000000	0.319860
1333.000000	0.319743
1334.000000	0.319803
1335.000000	0.319818
1336.000000	0.319763
1337.000000	0.319665
1338.000000	0.319516
1339.000000	0.319378
1340.000000	0.319200
1341.000000	0.319033
1342.000000	0.318934
1343.000000	0.318959
1344.000000	0.319062
1345.000000	0.319146
1346.000000	0.319219
1347.000000	0.319157
1348.000000	0.319041
1349.000000	0.318833
1350.000000	0.318679
1351.000000	0.318628
1352.000000	0.318495
1353.000000	0.318331
1354.000000	0.318249
1355.000000	0.317972
1356.000000	0.317799
1357.000000	0.317756
1358.000000	0.317720
1359.000000	0.317698
1360.000000	0.317587
1361.000000	0.317425
1362.000000	0.317330
1363.000000	0.317189
1364.000000	0.317087
1365.000000	0.317071
1366.000000	0.316958
1367.000000	0.316780
1368.000000	0.316528
1369.000000	0.316476
1370.000000	0.316453
1371.000000	0.316321
1372.000000	0.316121
1373.000000	0.315762
1374.000000	0.315367
1375.000000	0.314952
1376.000000	0.314641
1377.000000	0.314312
1378.000000	0.313650
1379.000000	0.312721
1380.000000	0.311731
1381.000000	0.310622
1382.000000	0.309381
1383.000000	0.308299
1384.000000	0.307147
1385.000000	0.305827
1386.000000	0.304734
1387.000000	0.303802
1388.000000	0.302921
1389.000000	0.302348
1390.000000	0.302030
1391.000000	0.301771
1392.000000	0.301728
1393.000000	0.301779
1394.000000	0.302124
1395.000000	0.302330
1396.000000	0.302677
1397.000000	0.302758
1398.000000	0.302626
1399.000000	0.302470
1400.000000	0.302201
1401.000000	0.301833
1402.000000	0.301405
1403.000000	0.301026
1404.000000	0.300574
1405.000000	0.300149
1406.000000	0.299874
1407.000000	0.299610
1408.000000	0.299281
1409.000000	0.299006
1410.000000	0.298770
1411.000000	0.298460
1412.000000	0.298208
1413.000000	0.298117
1414.000000	0.297965
1415.000000	0.297951
1416.000000	0.297994
1417.000000	0.297890
1418.000000	0.297871
1419.000000	0.297927
1420.000000	0.297915
1421.000000	0.298084
1422.000000	0.298088
1423.000000	0.298037
1424.000000	0.298078
1425.000000	0.298036
1426.000000	0.297979
1427.000000	0.298061
1428.000000	0.298062
1429.000000	0.298073
1430.000000	0.298221
1431.000000	0.298310
1432.000000	0.298428
1433.000000	0.298681
1434.000000	0.298766
1435.000000	0.298864
1436.000000	0.298950
1437.000000	0.298911
1438.000000	0.298895
1439.000000	0.298944
1440.000000	0.299012
1441.000000	0.299078
1442.000000	0.299160
1443.000000	0.299267
1444.000000	0.299290
1445.000000	0.299132
1446.000000	0.299000
1447.000000	0.298950
1448.000000	0.298917
1449.000000	0.298859
1450.000000	0.298849
1451.000000	0.298768
1452.000000	0.298535
1453.000000	0.298463
1454.000000	0.298409
1455.000000	0.298321
1456.000000	0.298386
1457.000000	0.298414
1458.000000	0.298391
1459.000000	0.298387
1460.000000	0.298325
1461.000000	0.298254
1462.000000	0.298219
1463.000000	0.298097
1464.000000	0.298002
1465.000000	0.298070
1466.000000	0.298194
1467.000000	0.298425
1468.000000	0.298700
1469.000000	0.298930
1470.000000	0.298968
1471.000000	0.299049
1472.000000	0.299252
1473.000000	0.299434
1474.000000	0.299626
1475.000000	0.299857
1476.000000	0.300022
1477.000000	0.300137
1478.000000	0.300224
1479.000000	0.300315
1480.000000	0.300388
1481.000000	0.300470
1482.000000	0.300589
1483.000000	0.300831
1484.000000	0.301147
1485.000000	0.301407
1486.000000	0.301738
1487.000000	0.301970
1488.000000	0.302110
1489.000000	0.302292
1490.000000	0.302395
1491.000000	0.302573
1492.000000	0.302718
1493.000000	0.302896
1494.000000	0.303066
1495.000000	0.303176
1496.000000	0.303219
1497.000000	0.303318
1498.000000	0.303476
1499.000000	0.303570
1500.000000	0.303679
1501.000000	0.303911
1502.000000	0.303925
1503.000000	0.303962
1504.000000	0.304163
1505.000000	0.304261
1506.000000	0.304492
1507.000000	0.304728
1508.000000	0.304850
1509.000000	0.305061
1510.000000	0.305242
1511.000000	0.305381
1512.000000	0.305435
1513.000000	0.305416
1514.000000	0.305534
1515.000000	0.305661
1516.000000	0.305826
1517.000000	0.305970
1518.000000	0.305960
1519.000000	0.305935
1520.000000	0.305992
1521.000000	0.306030
1522.000000	0.306127
1523.000000	0.306303
1524.000000	0.306406
1525.000000	0.306392
1526.000000	0.306374
1527.000000	0.306400
1528.000000	0.306398
1529.000000	0.306426
1530.000000	0.306450
1531.000000	0.306535
1532.000000	0.306558
1533.000000	0.306504
1534.000000	0.306555
1535.000000	0.306528
1536.000000	0.306543
1537.000000	0.306755
1538.000000	0.306828
1539.000000	0.306873
1540.000000	0.306904
1541.000000	0.306914
1542.000000	0.306961
1543.000000	0.306916
1544.000000	0.306901
1545.000000	0.306926
1546.000000	0.306854
1547.000000	0.306797
1548.000000	0.306894
1549.000000	0.307043
1550.000000	0.307155
1551.000000	0.307324
1552.000000	0.307464
1553.000000	0.307448
1554.000000	0.307377
1555.000000	0.307396
1556.000000	0.307509
1557.000000	0.307568
1558.000000	0.307624
1559.000000	0.307724
1560.000000	0.307769
1561.000000	0.307716
1562.000000	0.307715
1563.000000	0.307866
1564.000000	0.307894
1565.000000	0.307801
1566.000000	0.307770
1567.000000	0.307815
1568.000000	0.307850
1569.000000	0.308046
1570.000000	0.308026
1571.000000	0.307850
1572.000000	0.307815
1573.000000	0.307748
1574.000000	0.307718
1575.000000	0.307859
1576.000000	0.307847
1577.000000	0.307679
1578.000000	0.307571
1579.000000	0.307527
1580.000000	0.307455
1581.000000	0.307385
1582.000000	0.307419
1583.000000	0.307533
1584.000000	0.307530
1585.000000	0.307638
1586.000000	0.307686
1587.000000	0.307571
1588.000000	0.307602
1589.000000	0.307746
1590.000000	0.307847
1591.000000	0.308065
1592.000000	0.308140
1593.000000	0.308136
1594.000000	0.308129
1595.000000	0.308040
1596.000000	0.308055
1597.000000	0.308199
1598.000000	0.308252
1599.000000	0.308385
1600.000000	0.308383
1601.000000	0.308304
1602.000000	0.308264
1603.000000	0.308189
1604.000000	0.308171
1605.000000	0.308277
1606.000000	0.308290
1607.000000	0.308321
1608.000000	0.308285
1609.000000	0.308229
1610.000000	0.308169
1611.000000	0.308087
1612.000000	0.308070
1613.000000	0.308206
1614.000000	0.308182
1615.000000	0.308136
1616.000000	0.308206
1617.000000	0.308219
1618.000000	0.308231
1619.000000	0.308341
1620.000000	0.308370
1621.000000	0.308315
1622.000000	0.308366
1623.000000	0.308427
1624.000000	0.308481
1625.000000	0.308386
1626.000000	0.308408
1627.000000	0.308529
1628.000000	0.308625
1629.000000	0.308836
1630.000000	0.308852
1631.000000	0.308590
1632.000000	0.308575
1633.000000	0.308595
1634.000000	0.308630
1635.000000	0.308885
1636.000000	0.308972
1637.000000	0.308952
1638.000000	0.308974
1639.000000	0.309111
1640.000000	0.309092
1641.000000	0.309026
1642.000000	0.308956
1643.000000	0.308815
1644.000000	0.308770
1645.000000	0.308768
1646.000000	0.308739
1647.000000	0.308767
1648.000000	0.308767
1649.000000	0.308862
1650.000000	0.308897
1651.000000	0.308924
1652.000000	0.309035
1653.000000	0.309100
1654.000000	0.309210
1655.000000	0.309415
1656.000000	0.309341
1657.000000	0.309157
1658.000000	0.309064
1659.000000	0.308967
1660.000000	0.308983
1661.000000	0.309041
1662.000000	0.309060
1663.000000	0.309047
1664.000000	0.309035
1665.000000	0.309020
1666.000000	0.309067
1667.000000	0.309070
1668.000000	0.309081
1669.000000	0.309059
1670.000000	0.309074
1671.000000	0.309184
1672.000000	0.309348
1673.000000	0.309582
1674.000000	0.309694
1675.000000	0.309867
1676.000000	0.309954
1677.000000	0.309892
1678.000000	0.309884
1679.000000	0.309820
1680.000000	0.309748
1681.000000	0.309774
1682.000000	0.309749
1683.000000	0.309869
1684.000000	0.309866
1685.000000	0.309721
1686.000000	0.309775
1687.000000	0.309794
1688.000000	0.309753
1689.000000	0.309953
1690.000000	0.309987
1691.000000	0.309867
1692.000000	0.309816
1693.000000	0.309811
1694.000000	0.309854
1695.000000	0.309945
1696.000000	0.309918
1697.000000	0.309854
1698.000000	0.309739
1699.000000	0.309693
1700.000000	0.309741
1701.000000	0.309758
1702.000000	0.309533
1703.000000	0.309386
1704.000000	0.309257
1705.000000	0.309248
1706.000000	0.309508
1707.000000	0.309579
1708.000000	0.309566
1709.000000	0.309547
1710.000000	0.309573
1711.000000	0.309509
1712.000000	0.309364
1713.000000	0.309353
1714.000000	0.309352
1715.000000	0.309390
1716.000000	0.309680
1717.000000	0.309737
1718.000000	0.309606
1719.000000	0.309510
1720.000000	0.309419
1721.000000	0.309288
1722.000000	0.309107
1723.000000	0.308992
1724.000000	0.308815
1725.000000	0.308856
1726.000000	0.309026
1727.000000	0.309080
1728.000000	0.309201
1729.000000	0.309087
1730.000000	0.308832
1731.000000	0.308802
1732.000000	0.308828
1733.000000	0.308886
1734.000000	0.308931
1735.000000	0.309010
1736.000000	0.309064
1737.000000	0.309043
1738.000000	0.309056
1739.000000	0.309097
1740.000000	0.309066
1741.000000	0.308957
1742.000000	0.308916
1743.000000	0.308850
1744.000000	0.308596
1745.000000	0.308466
1746.000000	0.308415
1747.000000	0.308473
1748.000000	0.308425
1749.000000	0.308518
1750.000000	0.308474
1751.000000	0.308243
1752.000000	0.308302
1753.000000	0.308437
1754.000000	0.308472
1755.000000	0.308578
1756.000000	0.308594
1757.000000	0.308333
1758.000000	0.308331
1759.000000	0.308620
1760.000000	0.308603
1761.000000	0.308403
1762.000000	0.308360
1763.000000	0.308169
1764.000000	0.308120
1765.000000	0.308340
1766.000000	0.308411
1767.000000	0.308339
1768.000000	0.308228
1769.000000	0.308131
1770.000000	0.308143
1771.000000	0.308202
1772.000000	0.308050
1773.000000	0.307735
1774.000000	0.307640
1775.000000	0.307522
1776.000000	0.307445
1777.000000	0.307616
1778.000000	0.307528
1779.000000	0.307143
1780.000000	0.307116
1781.000000	0.307164
1782.000000	0.307250
1783.000000	0.307572
1784.000000	0.307604
1785.000000	0.307685
1786.000000	0.307748
1787.000000	0.307804
1788.000000	0.307860
1789.000000	0.307805
1790.000000	0.307654
1791.000000	0.307639
1792.000000	0.307937
1793.000000	0.308059
1794.000000	0.308216
1795.000000	0.308310
1796.000000	0.308216
1797.000000	0.308145
1798.000000	0.308015
1799.000000	0.308003
1800.000000	0.308063
1801.000000	0.307699
1802.000000	0.307956
1803.000000	0.308426
1804.000000	0.308349
1805.000000	0.307850
1806.000000	0.307921
1807.000000	0.307681
1808.000000	0.307737
1809.000000	0.308674
1810.000000	0.309252
1811.000000	0.309043
1812.000000	0.308321
1813.000000	0.307990
1814.000000	0.306955
1815.000000	0.306651
1816.000000	0.306868
1817.000000	0.306861
1818.000000	0.306649
1819.000000	0.307307
1820.000000	0.308312
1821.000000	0.308866
1822.000000	0.308886
1823.000000	0.308387
1824.000000	0.308250
1825.000000	0.307590
1826.000000	0.307276
1827.000000	0.307160
1828.000000	0.307381
1829.000000	0.307039
1830.000000	0.306304
1831.000000	0.306090
1832.000000	0.305812
1833.000000	0.305868
1834.000000	0.306720
1835.000000	0.306839
1836.000000	0.306501
1837.000000	0.306762
1838.000000	0.307345
1839.000000	0.306798
1840.000000	0.306658
1841.000000	0.306686
1842.000000	0.306736
1843.000000	0.306291
1844.000000	0.306269
1845.000000	0.307150
1846.000000	0.307094
1847.000000	0.306222
1848.000000	0.305554
1849.000000	0.305274
1850.000000	0.304460
1851.000000	0.304017
1852.000000	0.303906
1853.000000	0.303886
1854.000000	0.303569
1855.000000	0.303515
1856.000000	0.303905
1857.000000	0.303745
1858.000000	0.303718
1859.000000	0.303720
1860.000000	0.302975
1861.000000	0.302628
1862.000000	0.302186
1863.000000	0.301494
1864.000000	0.300987
1865.000000	0.300754
1866.000000	0.300327
1867.000000	0.299818
1868.000000	0.299499
1869.000000	0.298348
1870.000000	0.296828
1871.000000	0.295689
1872.000000	0.294234
1873.000000	0.293110
1874.000000	0.292678
1875.000000	0.292030
1876.000000	0.291035
1877.000000	0.289869
1878.000000	0.289298
1879.000000	0.287433
1880.000000	0.285292
1881.000000	0.283217
1882.000000	0.280938
1883.000000	0.278939
1884.000000	0.277120
1885.000000	0.275756
1886.000000	0.273732
1887.000000	0.271518
1888.000000	0.268991
1889.000000	0.266141
1890.000000	0.263452
1891.000000	0.261318
1892.000000	0.259439
1893.000000	0.256934
1894.000000	0.254383
1895.000000	0.251885
1896.000000	0.249198
1897.000000	0.246348
1898.000000	0.244474
1899.000000	0.243146
1900.000000	0.241576
1901.000000	0.240284
1902.000000	0.238846
1903.000000	0.237427
1904.000000	0.236536
1905.000000	0.235636
1906.000000	0.235028
1907.000000	0.234850
1908.000000	0.234697
1909.000000	0.234811
1910.000000	0.235189
1911.000000	0.234884
1912.000000	0.234786
1913.000000	0.234457
1914.000000	0.233952
1915.000000	0.233914
1916.000000	0.234065
1917.000000	0.234135
1918.000000	0.234356
1919.000000	0.234508
1920.000000	0.234782
1921.000000	0.235049
1922.000000	0.235481
1923.000000	0.236217
1924.000000	0.236656
1925.000000	0.236909
1926.000000	0.237376
1927.000000	0.238216
1928.000000	0.238666
1929.000000	0.239167
1930.000000	0.239616
1931.000000	0.239904
1932.000000	0.239482
1933.000000	0.239452
1934.000000	0.240195
1935.000000	0.240991
1936.000000	0.241791
1937.000000	0.242598
1938.000000	0.242685
1939.000000	0.242764
1940.000000	0.242356
1941.000000	0.242652
1942.000000	0.242887
1943.000000	0.243402
1944.000000	0.244025
1945.000000	0.243673
1946.000000	0.243125
1947.000000	0.242744
1948.000000	0.242393
1949.000000	0.242092
1950.000000	0.242231
1951.000000	0.242198
1952.000000	0.242126
1953.000000	0.241819
1954.000000	0.242337
1955.000000	0.242927
1956.000000	0.243106
1957.000000	0.243518
1958.000000	0.243733
1959.000000	0.243655
1960.000000	0.243628
1961.000000	0.243644
1962.000000	0.243927
1963.000000	0.244462
1964.000000	0.244741
1965.000000	0.245133
1966.000000	0.245503
1967.000000	0.245286
1968.000000	0.245318
1969.000000	0.245150
1970.000000	0.245314
1971.000000	0.245271
1972.000000	0.245252
1973.000000	0.245591
1974.000000	0.246592
1975.000000	0.246810
1976.000000	0.247024
1977.000000	0.247281
1978.000000	0.246696
1979.000000	0.246810
1980.000000	0.247436
1981.000000	0.247762
1982.000000	0.248305
1983.000000	0.249103
1984.000000	0.249565
1985.000000	0.250013
1986.000000	0.250182
1987.000000	0.250160
1988.000000	0.250096
1989.000000	0.249919
1990.000000	0.250399
1991.000000	0.250704
1992.000000	0.250928
1993.000000	0.251541
1994.000000	0.251691
1995.000000	0.252370
1996.000000	0.253175
1997.000000	0.253783
1998.000000	0.254342
1999.000000	0.255176
2000.000000	0.256084
2001.000000	0.256882
2002.000000	0.258058
2003.000000	0.258797
2004.000000	0.258633
2005.000000	0.258507
2006.000000	0.258650
2007.000000	0.258975
2008.000000	0.259285
2009.000000	0.260177
2010.000000	0.260493
2011.000000	0.259965
2012.000000	0.260074
2013.000000	0.260356
2014.000000	0.260518
2015.000000	0.261157
2016.000000	0.262017
2017.000000	0.262503
2018.000000	0.263443
2019.000000	0.264324
2020.000000	0.264995
2021.000000	0.265456
2022.000000	0.265709
2023.000000	0.265932
2024.000000	0.265905
2025.000000	0.265974
2026.000000	0.265993
2027.000000	0.265848
2028.000000	0.265744
2029.000000	0.265739
2030.000000	0.265966
2031.000000	0.266801
2032.000000	0.267053
2033.000000	0.267172
2034.000000	0.267604
2035.000000	0.267937
2036.000000	0.268258
2037.000000	0.269338
2038.000000	0.269842
2039.000000	0.269981
2040.000000	0.270255
2041.000000	0.270482
2042.000000	0.270735
2043.000000	0.270416
2044.000000	0.270111
2045.000000	0.270411
2046.000000	0.270522
2047.000000	0.270892
2048.000000	0.272148
2049.000000	0.272616
2050.000000	0.272310
2051.000000	0.272035
2052.000000	0.270930
2053.000000	0.270750
2054.000000	0.271077
2055.000000	0.271725
2056.000000	0.272373
2057.000000	0.273035
2058.000000	0.273559
2059.000000	0.273977
2060.000000	0.274443
2061.000000	0.275463
2062.000000	0.275865
2063.000000	0.275450
2064.000000	0.275791
2065.000000	0.276799
2066.000000	0.277318
2067.000000	0.278169
2068.000000	0.279188
2069.000000	0.279463
2070.000000	0.279220
2071.000000	0.278709
2072.000000	0.278148
2073.000000	0.277871
2074.000000	0.277790
2075.000000	0.278052
2076.000000	0.279127
2077.000000	0.279441
2078.000000	0.279710
2079.000000	0.279805
2080.000000	0.279256
2081.000000	0.279282
2082.000000	0.279852
2083.000000	0.279687
2084.000000	0.279773
2085.000000	0.280337
2086.000000	0.279929
2087.000000	0.279938
2088.000000	0.279897
2089.000000	0.279173
2090.000000	0.279325
2091.000000	0.280127
2092.000000	0.280543
2093.000000	0.281721
2094.000000	0.281903
2095.000000	0.281093
2096.000000	0.280854
2097.000000	0.280537
2098.000000	0.279662
2099.000000	0.279811
2100.000000	0.280707
2101.000000	0.280829
2102.000000	0.281922
2103.000000	0.282447
2104.000000	0.282066
2105.000000	0.282137
2106.000000	0.281934
2107.000000	0.282003
2108.000000	0.282495
2109.000000	0.282680
2110.000000	0.282898
2111.000000	0.282799
2112.000000	0.282247
2113.000000	0.281395
2114.000000	0.281174
2115.000000	0.280829
2116.000000	0.281592
2117.000000	0.282280
2118.000000	0.282725
2119.000000	0.283272
2120.000000	0.283635
2121.000000	0.283811
2122.000000	0.284057
2123.000000	0.284310
2124.000000	0.284465
2125.000000	0.284280
2126.000000	0.284302
2127.000000	0.284596
2128.000000	0.284667
2129.000000	0.284292
2130.000000	0.284969
2131.000000	0.284418
2132.000000	0.283832
2133.000000	0.284407
2134.000000	0.284429
2135.000000	0.285280
2136.000000	0.286137
2137.000000	0.286308
2138.000000	0.285804
2139.000000	0.285722
2140.000000	0.285238
2141.000000	0.285307
2142.000000	0.286052
2143.000000	0.286090
2144.000000	0.286434
2145.000000	0.286249
2146.000000	0.285512
2147.000000	0.284782
2148.000000	0.284725
2149.000000	0.284774
2150.000000	0.284618
2151.000000	0.285377
2152.000000	0.285326
2153.000000	0.284044
2154.000000	0.283840
2155.000000	0.283863
2156.000000	0.283929
2157.000000	0.284893
2158.000000	0.285160
2159.000000	0.285048
2160.000000	0.285277
2161.000000	0.285193
2162.000000	0.285387
2163.000000	0.286160
2164.000000	0.286285
2165.000000	0.285984
2166.000000	0.286114
2167.000000	0.285156
2168.000000	0.284313
2169.000000	0.284021
2170.000000	0.283036
2171.000000	0.283134
2172.000000	0.284029
2173.000000	0.284575
2174.000000	0.285783
2175.000000	0.286314
2176.000000	0.286356
2177.000000	0.286898
2178.000000	0.287879
2179.000000	0.288103
2180.000000	0.287751
2181.000000	0.287980
2182.000000	0.287432
2183.000000	0.286947
2184.000000	0.287164
2185.000000	0.287930
2186.000000	0.287325
2187.000000	0.286868
2188.000000	0.286307
2189.000000	0.285273
2190.000000	0.285835
2191.000000	0.286160
2192.000000	0.286056
2193.000000	0.285975
2194.000000	0.285926
2195.000000	0.285414
2196.000000	0.285168
2197.000000	0.286013
2198.000000	0.285135
2199.000000	0.282932
2200.000000	0.280879
2201.000000	0.276086
2202.000000	0.274553
2203.000000	0.274332
2204.000000	0.275889
2205.000000	0.277512
2206.000000	0.279513
2207.000000	0.279232
2208.000000	0.276801
2209.000000	0.278241
2210.000000	0.279281
2211.000000	0.280565
2212.000000	0.284100
2213.000000	0.285248
2214.000000	0.285068
2215.000000	0.284700
2216.000000	0.282511
2217.000000	0.281990
2218.000000	0.281988
2219.000000	0.281687
2220.000000	0.282912
2221.000000	0.283100
2222.000000	0.281481
2223.000000	0.281107
2224.000000	0.281573
2225.000000	0.280654
2226.000000	0.281600
2227.000000	0.281958
2228.000000	0.281972
2229.000000	0.281800
2230.000000	0.281474
2231.000000	0.281169
2232.000000	0.281136
2233.000000	0.284124
2234.000000	0.285195
2235.000000	0.285431
2236.000000	0.285106
2237.000000	0.282585
2238.000000	0.281570
2239.000000	0.281517
2240.000000	0.280330
2241.000000	0.278520
2242.000000	0.278273
2243.000000	0.278052
2244.000000	0.277817
2245.000000	0.278817
2246.000000	0.279060
2247.000000	0.277879
2248.000000	0.277858
2249.000000	0.278533
2250.000000	0.280394
2251.000000	0.280235
2252.000000	0.280429
2253.000000	0.280348
2254.000000	0.279514
2255.000000	0.279934
2256.000000	0.280573
2257.000000	0.280071
2258.000000	0.280901
2259.000000	0.282054
2260.000000	0.280307
2261.000000	0.279752
2262.000000	0.279530
2263.000000	0.278476
2264.000000	0.276806
2265.000000	0.276346
2266.000000	0.276587
2267.000000	0.276437
2268.000000	0.276420
2269.000000	0.276139
2270.000000	0.275325
2271.000000	0.273946
2272.000000	0.271987
2273.000000	0.271536
2274.000000	0.271720
2275.000000	0.271750
2276.000000	0.272697
2277.000000	0.273058
2278.000000	0.273193
2279.000000	0.270158
2280.000000	0.266670
2281.000000	0.264503
2282.000000	0.261817
2283.000000	0.260143
2284.000000	0.259339
2285.000000	0.257656
2286.000000	0.256900
2287.000000	0.257831
2288.000000	0.259806
2289.000000	0.261509
2290.000000	0.262093
2291.000000	0.262342
2292.000000	0.261953
2293.000000	0.262969
2294.000000	0.262806
2295.000000	0.262362
2296.000000	0.261877
2297.000000	0.259755
2298.000000	0.258788
2299.000000	0.259773
2300.000000	0.259199
2301.000000	0.258335
2302.000000	0.257083
2303.000000	0.253951
2304.000000	0.252480
2305.000000	0.251817
2306.000000	0.250934
2307.000000	0.250508
2308.000000	0.251107
2309.000000	0.248981
2310.000000	0.247342
2311.000000	0.248036
2312.000000	0.246346
2313.000000	0.245414
2314.000000	0.246481
2315.000000	0.246914
2316.000000	0.248641
2317.000000	0.252648
2318.000000	0.255738
2319.000000	0.259135
2320.000000	0.259573
2321.000000	0.257245
2322.000000	0.256989
2323.000000	0.254582
2324.000000	0.253522
2325.000000	0.254428
2326.000000	0.252915
2327.000000	0.254842
2328.000000	0.257975
2329.000000	0.259141
2330.000000	0.260660
2331.000000	0.256551
2332.000000	0.251707
2333.000000	0.251039
2334.000000	0.249817
2335.000000	0.251833
2336.000000	0.260422
2337.000000	0.262723
2338.000000	0.263181
2339.000000	0.264296
2340.000000	0.262775
2341.000000	0.261067
2342.000000	0.259720
2343.000000	0.258311
2344.000000	0.254442
2345.000000	0.255312
2346.000000	0.260792
2347.000000	0.262132
2348.000000	0.264302
2349.000000	0.263539
2350.000000	0.259717
2351.000000	0.258663
2352.000000	0.261133
2353.000000	0.262617
2354.000000	0.263824
2355.000000	0.265376
2356.000000	0.265375
2357.000000	0.265123
2358.000000	0.264700
2359.000000	0.260343
2360.000000	0.254828
2361.000000	0.252757
2362.000000	0.248508
2363.000000	0.249936
2364.000000	0.254956
2365.000000	0.255597
2366.000000	0.257850
2367.000000	0.260485
2368.000000	0.261952
2369.000000	0.258754
2370.000000	0.254616
2371.000000	0.249674
2372.000000	0.243579
2373.000000	0.243332
2374.000000	0.248315
2375.000000	0.251691
2376.000000	0.251213
2377.000000	0.250812
2378.000000	0.248068
2379.000000	0.247322
2380.000000	0.246139
2381.000000	0.244784
2382.000000	0.241016
2383.000000	0.232558
2384.000000	0.232761
2385.000000	0.232461
2386.000000	0.230367
2387.000000	0.231160
2388.000000	0.228411
2389.000000	0.225961
2390.000000	0.226146
2391.000000	0.228580
2392.000000	0.229655
2393.000000	0.229577
2394.000000	0.232512
2395.000000	0.236310
2396.000000	0.243176
2397.000000	0.249412
2398.000000	0.249142
2399.000000	0.248885
2400.000000	0.243937
2401.000000	0.238024
2402.000000	0.236732
2403.000000	0.233899
2404.000000	0.235904
2405.000000	0.242889
2406.000000	0.249823
2407.000000	0.254678
2408.000000	0.254848
2409.000000	0.247652
2410.000000	0.234145
2411.000000	0.225220
2412.000000	0.220117
2413.000000	0.216315
2414.000000	0.220271
2415.000000	0.217681
2416.000000	0.212781
2417.000000	0.211699
2418.000000	0.206058
2419.000000	0.217032
2420.000000	0.233424
2421.000000	0.233742
2422.000000	0.237526
2423.000000	0.237760
2424.000000	0.227130
2425.000000	0.224994
2426.000000	0.225178
2427.000000	0.225834
2428.000000	0.223345
2429.000000	0.222462
2430.000000	0.229025
2431.000000	0.226631
2432.000000	0.231814
2433.000000	0.245061
2434.000000	0.249338
2435.000000	0.247038
2436.000000	0.230126
2437.000000	0.211113
2438.000000	0.208087
2439.000000	0.207061
2440.000000	0.226471
2441.000000	0.250754
2442.000000	0.246047
2443.000000	0.245547
2444.000000	0.233678
2445.000000	0.207111
2446.000000	0.204353
2447.000000	0.207155
2448.000000	0.209802
2449.000000	0.223069
2450.000000	0.218271
2451.000000	0.201828
2452.000000	0.200465
2453.000000	0.192979
2454.000000	0.182170
2455.000000	0.172978
2456.000000	0.150708
2457.000000	0.144961
2458.000000	0.149823
2459.000000	0.151501
2460.000000	0.172184
2461.000000	0.171656
2462.000000	0.158469
2463.000000	0.160848
2464.000000	0.145928
2465.000000	0.139612
2466.000000	0.144895
2467.000000	0.138629
2468.000000	0.140603
2469.000000	0.161152
2470.000000	0.177129
2471.000000	0.194518
2472.000000	0.231201
2473.000000	0.231192
2474.000000	0.215698
2475.000000	0.209315
2476.000000	0.165008
2477.000000	0.139810
2478.000000	0.134525
2479.000000	0.146984
2480.000000	0.169270
2481.000000	0.187408
2482.000000	0.214330
2483.000000	0.186809
2484.000000	0.160911
2485.000000	0.183472
2486.000000	0.177688
2487.000000	0.203297
2488.000000	0.255144
2489.000000	0.233947
2490.000000	0.205719
2491.000000	0.193838
2492.000000	0.161299
2493.000000	0.114407
2494.000000	0.093504
2495.000000	0.045682
2496.000000	0.040841
2497.000000	0.113070
2498.000000	0.135151
2499.000000	0.151637
2500.000000	0.168039
