# Wavelength	SM1200H-40_HEX-20_FV7-40_00000.asd.rts.txt
350.000000	0.274952
351.000000	0.251823
352.000000	0.256495
353.000000	0.260976
354.000000	0.254710
355.000000	0.258900
356.000000	0.263361
357.000000	0.266627
358.000000	0.267819
359.000000	0.268331
360.000000	0.270025
361.000000	0.273106
362.000000	0.270054
363.000000	0.266733
364.000000	0.266879
365.000000	0.269271
366.000000	0.272045
367.000000	0.272771
368.000000	0.268668
369.000000	0.269110
370.000000	0.271923
371.000000	0.272140
372.000000	0.273111
373.000000	0.274568
374.000000	0.276933
375.000000	0.281976
376.000000	0.281261
377.000000	0.275884
378.000000	0.276220
379.000000	0.275771
380.000000	0.275410
381.000000	0.278307
382.000000	0.278874
383.000000	0.279361
384.000000	0.281495
385.000000	0.281928
386.000000	0.282563
387.000000	0.283774
388.000000	0.283791
389.000000	0.285185
390.000000	0.286661
391.000000	0.285703
392.000000	0.286631
393.000000	0.287651
394.000000	0.287356
395.000000	0.288537
396.000000	0.289074
397.000000	0.288448
398.000000	0.288261
399.000000	0.289269
400.000000	0.290073
401.000000	0.288393
402.000000	0.289578
403.000000	0.290988
404.000000	0.290077
405.000000	0.289476
406.000000	0.289951
407.000000	0.291318
408.000000	0.291920
409.000000	0.292203
410.000000	0.292495
411.000000	0.293079
412.000000	0.293318
413.000000	0.293324
414.000000	0.293426
415.000000	0.293918
416.000000	0.294502
417.000000	0.294923
418.000000	0.295006
419.000000	0.295304
420.000000	0.295715
421.000000	0.295520
422.000000	0.296343
423.000000	0.297506
424.000000	0.297825
425.000000	0.297786
426.000000	0.297902
427.000000	0.298352
428.000000	0.298424
429.000000	0.298394
430.000000	0.298491
431.000000	0.298948
432.000000	0.299044
433.000000	0.298832
434.000000	0.298875
435.000000	0.299620
436.000000	0.300253
437.000000	0.300090
438.000000	0.300357
439.000000	0.300656
440.000000	0.300822
441.000000	0.300859
442.000000	0.300919
443.000000	0.301059
444.000000	0.301470
445.000000	0.301846
446.000000	0.302219
447.000000	0.302468
448.000000	0.302441
449.000000	0.302605
450.000000	0.303180
451.000000	0.303557
452.000000	0.303762
453.000000	0.303875
454.000000	0.304363
455.000000	0.304607
456.000000	0.304706
457.000000	0.304844
458.000000	0.305370
459.000000	0.305887
460.000000	0.306043
461.000000	0.305803
462.000000	0.306011
463.000000	0.306660
464.000000	0.306851
465.000000	0.307043
466.000000	0.307248
467.000000	0.307399
468.000000	0.307496
469.000000	0.307555
470.000000	0.307796
471.000000	0.308168
472.000000	0.308390
473.000000	0.308427
474.000000	0.308836
475.000000	0.308946
476.000000	0.308882
477.000000	0.309240
478.000000	0.309262
479.000000	0.309345
480.000000	0.309840
481.000000	0.309868
482.000000	0.309958
483.000000	0.310371
484.000000	0.310764
485.000000	0.310920
486.000000	0.311018
487.000000	0.311201
488.000000	0.311512
489.000000	0.311896
490.000000	0.312185
491.000000	0.312317
492.000000	0.312515
493.000000	0.312850
494.000000	0.313031
495.000000	0.313355
496.000000	0.313894
497.000000	0.314156
498.000000	0.314341
499.000000	0.314598
500.000000	0.314794
501.000000	0.314890
502.000000	0.315078
503.000000	0.315526
504.000000	0.315704
505.000000	0.315851
506.000000	0.316236
507.000000	0.316465
508.000000	0.316650
509.000000	0.316881
510.000000	0.317367
511.000000	0.317738
512.000000	0.317958
513.000000	0.318176
514.000000	0.318437
515.000000	0.318814
516.000000	0.319263
517.000000	0.319478
518.000000	0.319734
519.000000	0.320132
520.000000	0.320459
521.000000	0.320732
522.000000	0.320985
523.000000	0.321260
524.000000	0.321443
525.000000	0.321594
526.000000	0.321920
527.000000	0.322268
528.000000	0.322582
529.000000	0.322886
530.000000	0.323122
531.000000	0.323385
532.000000	0.323646
533.000000	0.323998
534.000000	0.324232
535.000000	0.324350
536.000000	0.324614
537.000000	0.324926
538.000000	0.325228
539.000000	0.325456
540.000000	0.325689
541.000000	0.325925
542.000000	0.326190
543.000000	0.326461
544.000000	0.326742
545.000000	0.326951
546.000000	0.327115
547.000000	0.327374
548.000000	0.327765
549.000000	0.328140
550.000000	0.328457
551.000000	0.328779
552.000000	0.329121
553.000000	0.329403
554.000000	0.329656
555.000000	0.329920
556.000000	0.330203
557.000000	0.330453
558.000000	0.330784
559.000000	0.331096
560.000000	0.331373
561.000000	0.331672
562.000000	0.331907
563.000000	0.332176
564.000000	0.332506
565.000000	0.332789
566.000000	0.333143
567.000000	0.333455
568.000000	0.333673
569.000000	0.334003
570.000000	0.334340
571.000000	0.334649
572.000000	0.334983
573.000000	0.335325
574.000000	0.335617
575.000000	0.335867
576.000000	0.336156
577.000000	0.336438
578.000000	0.336716
579.000000	0.336862
580.000000	0.337077
581.000000	0.337399
582.000000	0.337601
583.000000	0.337849
584.000000	0.338146
585.000000	0.338413
586.000000	0.338655
587.000000	0.338892
588.000000	0.339158
589.000000	0.339537
590.000000	0.339846
591.000000	0.340008
592.000000	0.340261
593.000000	0.340477
594.000000	0.340643
595.000000	0.340868
596.000000	0.341042
597.000000	0.341240
598.000000	0.341475
599.000000	0.341621
600.000000	0.341804
601.000000	0.342054
602.000000	0.342376
603.000000	0.342596
604.000000	0.342686
605.000000	0.342834
606.000000	0.342988
607.000000	0.343145
608.000000	0.343319
609.000000	0.343488
610.000000	0.343632
611.000000	0.343750
612.000000	0.343957
613.000000	0.344143
614.000000	0.344287
615.000000	0.344477
616.000000	0.344615
617.000000	0.344685
618.000000	0.344878
619.000000	0.345032
620.000000	0.345124
621.000000	0.345248
622.000000	0.345376
623.000000	0.345506
624.000000	0.345618
625.000000	0.345610
626.000000	0.345644
627.000000	0.345782
628.000000	0.345908
629.000000	0.346150
630.000000	0.346315
631.000000	0.346379
632.000000	0.346569
633.000000	0.346789
634.000000	0.346904
635.000000	0.347120
636.000000	0.347328
637.000000	0.347451
638.000000	0.347600
639.000000	0.347735
640.000000	0.347896
641.000000	0.348005
642.000000	0.348114
643.000000	0.348223
644.000000	0.348320
645.000000	0.348367
646.000000	0.348456
647.000000	0.348613
648.000000	0.348769
649.000000	0.348890
650.000000	0.348966
651.000000	0.349089
652.000000	0.349177
653.000000	0.349318
654.000000	0.349552
655.000000	0.349660
656.000000	0.349746
657.000000	0.349872
658.000000	0.350022
659.000000	0.350238
660.000000	0.350479
661.000000	0.350606
662.000000	0.350721
663.000000	0.350871
664.000000	0.350954
665.000000	0.351073
666.000000	0.351221
667.000000	0.351338
668.000000	0.351475
669.000000	0.351640
670.000000	0.351827
671.000000	0.351993
672.000000	0.352197
673.000000	0.352408
674.000000	0.352543
675.000000	0.352674
676.000000	0.352817
677.000000	0.352988
678.000000	0.353138
679.000000	0.353276
680.000000	0.353418
681.000000	0.353533
682.000000	0.353683
683.000000	0.353810
684.000000	0.354003
685.000000	0.354146
686.000000	0.354243
687.000000	0.354293
688.000000	0.354441
689.000000	0.354585
690.000000	0.354692
691.000000	0.354878
692.000000	0.355049
693.000000	0.355222
694.000000	0.355322
695.000000	0.355473
696.000000	0.355635
697.000000	0.355715
698.000000	0.355846
699.000000	0.355979
700.000000	0.356085
701.000000	0.356235
702.000000	0.356401
703.000000	0.356549
704.000000	0.356703
705.000000	0.356835
706.000000	0.356936
707.000000	0.357118
708.000000	0.357252
709.000000	0.357371
710.000000	0.357535
711.000000	0.357688
712.000000	0.357756
713.000000	0.357794
714.000000	0.357977
715.000000	0.358140
716.000000	0.358256
717.000000	0.358328
718.000000	0.358490
719.000000	0.358658
720.000000	0.358772
721.000000	0.358920
722.000000	0.359029
723.000000	0.359136
724.000000	0.359219
725.000000	0.359291
726.000000	0.359425
727.000000	0.359518
728.000000	0.359577
729.000000	0.359699
730.000000	0.359876
731.000000	0.360029
732.000000	0.360129
733.000000	0.360237
734.000000	0.360391
735.000000	0.360494
736.000000	0.360641
737.000000	0.360702
738.000000	0.360673
739.000000	0.360695
740.000000	0.360695
741.000000	0.360824
742.000000	0.360938
743.000000	0.360962
744.000000	0.360997
745.000000	0.361037
746.000000	0.361109
747.000000	0.361129
748.000000	0.361189
749.000000	0.361282
750.000000	0.361358
751.000000	0.361434
752.000000	0.361489
753.000000	0.361551
754.000000	0.361664
755.000000	0.361793
756.000000	0.361917
757.000000	0.361969
758.000000	0.362004
759.000000	0.362058
760.000000	0.362076
761.000000	0.362152
762.000000	0.362227
763.000000	0.362272
764.000000	0.362370
765.000000	0.362436
766.000000	0.362471
767.000000	0.362494
768.000000	0.362584
769.000000	0.362655
770.000000	0.362680
771.000000	0.362699
772.000000	0.362742
773.000000	0.362763
774.000000	0.362840
775.000000	0.362913
776.000000	0.362958
777.000000	0.362960
778.000000	0.363002
779.000000	0.363017
780.000000	0.363008
781.000000	0.363017
782.000000	0.363068
783.000000	0.363223
784.000000	0.363325
785.000000	0.363408
786.000000	0.363392
787.000000	0.363288
788.000000	0.363318
789.000000	0.363348
790.000000	0.363343
791.000000	0.363364
792.000000	0.363439
793.000000	0.363493
794.000000	0.363482
795.000000	0.363492
796.000000	0.363530
797.000000	0.363584
798.000000	0.363627
799.000000	0.363637
800.000000	0.363617
801.000000	0.363578
802.000000	0.363487
803.000000	0.363463
804.000000	0.363559
805.000000	0.363529
806.000000	0.363477
807.000000	0.363494
808.000000	0.363490
809.000000	0.363472
810.000000	0.363460
811.000000	0.363459
812.000000	0.363502
813.000000	0.363538
814.000000	0.363553
815.000000	0.363589
816.000000	0.363558
817.000000	0.363519
818.000000	0.363462
819.000000	0.363484
820.000000	0.363513
821.000000	0.363442
822.000000	0.363301
823.000000	0.363256
824.000000	0.363206
825.000000	0.363115
826.000000	0.363076
827.000000	0.363034
828.000000	0.363004
829.000000	0.363002
830.000000	0.362986
831.000000	0.362973
832.000000	0.362830
833.000000	0.362780
834.000000	0.362761
835.000000	0.362727
836.000000	0.362632
837.000000	0.362571
838.000000	0.362571
839.000000	0.362546
840.000000	0.362491
841.000000	0.362456
842.000000	0.362428
843.000000	0.362359
844.000000	0.362300
845.000000	0.362244
846.000000	0.362216
847.000000	0.362152
848.000000	0.362086
849.000000	0.362098
850.000000	0.362081
851.000000	0.361983
852.000000	0.361870
853.000000	0.361846
854.000000	0.361753
855.000000	0.361743
856.000000	0.361792
857.000000	0.361719
858.000000	0.361653
859.000000	0.361563
860.000000	0.361415
861.000000	0.361240
862.000000	0.361129
863.000000	0.361074
864.000000	0.360967
865.000000	0.360875
866.000000	0.360838
867.000000	0.360716
868.000000	0.360601
869.000000	0.360467
870.000000	0.360387
871.000000	0.360391
872.000000	0.360298
873.000000	0.360017
874.000000	0.359918
875.000000	0.359843
876.000000	0.359770
877.000000	0.359626
878.000000	0.359277
879.000000	0.359022
880.000000	0.358885
881.000000	0.358894
882.000000	0.358837
883.000000	0.358652
884.000000	0.358299
885.000000	0.358050
886.000000	0.357858
887.000000	0.357704
888.000000	0.357587
889.000000	0.357436
890.000000	0.357154
891.000000	0.356912
892.000000	0.356676
893.000000	0.356507
894.000000	0.356491
895.000000	0.356276
896.000000	0.356108
897.000000	0.355968
898.000000	0.355768
899.000000	0.355527
900.000000	0.355365
901.000000	0.355262
902.000000	0.355155
903.000000	0.355016
904.000000	0.354839
905.000000	0.354538
906.000000	0.354376
907.000000	0.354256
908.000000	0.354132
909.000000	0.353830
910.000000	0.353617
911.000000	0.353382
912.000000	0.353061
913.000000	0.353023
914.000000	0.352813
915.000000	0.352510
916.000000	0.352394
917.000000	0.352152
918.000000	0.351883
919.000000	0.351679
920.000000	0.351534
921.000000	0.351367
922.000000	0.351159
923.000000	0.350899
924.000000	0.350642
925.000000	0.350439
926.000000	0.350292
927.000000	0.349995
928.000000	0.349700
929.000000	0.349489
930.000000	0.349361
931.000000	0.348985
932.000000	0.348631
933.000000	0.348426
934.000000	0.348175
935.000000	0.347871
936.000000	0.347543
937.000000	0.347128
938.000000	0.346740
939.000000	0.346520
940.000000	0.346296
941.000000	0.345939
942.000000	0.345764
943.000000	0.345600
944.000000	0.345228
945.000000	0.344962
946.000000	0.344702
947.000000	0.344501
948.000000	0.344325
949.000000	0.343993
950.000000	0.343709
951.000000	0.343520
952.000000	0.343431
953.000000	0.343281
954.000000	0.343122
955.000000	0.342930
956.000000	0.342703
957.000000	0.342434
958.000000	0.342090
959.000000	0.341786
960.000000	0.341552
961.000000	0.341256
962.000000	0.340927
963.000000	0.340855
964.000000	0.340716
965.000000	0.340601
966.000000	0.340458
967.000000	0.340136
968.000000	0.339893
969.000000	0.339625
970.000000	0.339251
971.000000	0.339111
972.000000	0.338999
973.000000	0.338682
974.000000	0.338196
975.000000	0.337942
976.000000	0.337911
977.000000	0.337887
978.000000	0.337362
979.000000	0.337377
980.000000	0.337441
981.000000	0.337083
982.000000	0.336911
983.000000	0.336624
984.000000	0.336342
985.000000	0.336467
986.000000	0.336536
987.000000	0.336410
988.000000	0.336053
989.000000	0.336006
990.000000	0.335613
991.000000	0.335160
992.000000	0.335122
993.000000	0.334837
994.000000	0.334842
995.000000	0.335004
996.000000	0.334371
997.000000	0.334267
998.000000	0.334114
999.000000	0.333776
1000.000000	0.333820
1001.000000	0.334545
1002.000000	0.333935
1003.000000	0.333230
1004.000000	0.332720
1005.000000	0.331897
1006.000000	0.331729
1007.000000	0.332027
1008.000000	0.332387
1009.000000	0.332453
1010.000000	0.332612
1011.000000	0.332731
1012.000000	0.332530
1013.000000	0.332330
1014.000000	0.332203
1015.000000	0.331771
1016.000000	0.331795
1017.000000	0.331758
1018.000000	0.331573
1019.000000	0.331596
1020.000000	0.331720
1021.000000	0.331259
1022.000000	0.330997
1023.000000	0.331115
1024.000000	0.330790
1025.000000	0.330952
1026.000000	0.331723
1027.000000	0.331213
1028.000000	0.330831
1029.000000	0.330781
1030.000000	0.330291
1031.000000	0.330683
1032.000000	0.331269
1033.000000	0.331100
1034.000000	0.331023
1035.000000	0.330696
1036.000000	0.330815
1037.000000	0.331115
1038.000000	0.331168
1039.000000	0.331569
1040.000000	0.331817
1041.000000	0.331447
1042.000000	0.331596
1043.000000	0.331461
1044.000000	0.331131
1045.000000	0.331369
1046.000000	0.330725
1047.000000	0.330672
1048.000000	0.331081
1049.000000	0.331182
1050.000000	0.331158
1051.000000	0.331402
1052.000000	0.331626
1053.000000	0.331772
1054.000000	0.332435
1055.000000	0.332587
1056.000000	0.332319
1057.000000	0.332335
1058.000000	0.332444
1059.000000	0.332534
1060.000000	0.333183
1061.000000	0.333762
1062.000000	0.333876
1063.000000	0.334333
1064.000000	0.334463
1065.000000	0.334179
1066.000000	0.334248
1067.000000	0.334412
1068.000000	0.334378
1069.000000	0.334239
1070.000000	0.334345
1071.000000	0.334356
1072.000000	0.334600
1073.000000	0.335274
1074.000000	0.336004
1075.000000	0.336306
1076.000000	0.336233
1077.000000	0.335894
1078.000000	0.335746
1079.000000	0.335913
1080.000000	0.336486
1081.000000	0.336762
1082.000000	0.337448
1083.000000	0.337531
1084.000000	0.336964
1085.000000	0.337120
1086.000000	0.337404
1087.000000	0.337617
1088.000000	0.338224
1089.000000	0.338472
1090.000000	0.338215
1091.000000	0.338161
1092.000000	0.338405
1093.000000	0.338761
1094.000000	0.338942
1095.000000	0.339095
1096.000000	0.339360
1097.000000	0.339583
1098.000000	0.339789
1099.000000	0.340107
1100.000000	0.340328
1101.000000	0.340176
1102.000000	0.340388
1103.000000	0.340808
1104.000000	0.341206
1105.000000	0.341869
1106.000000	0.342256
1107.000000	0.342555
1108.000000	0.342655
1109.000000	0.342527
1110.000000	0.342338
1111.000000	0.342406
1112.000000	0.342484
1113.000000	0.342623
1114.000000	0.343039
1115.000000	0.343203
1116.000000	0.343189
1117.000000	0.343311
1118.000000	0.343361
1119.000000	0.343530
1120.000000	0.343984
1121.000000	0.344089
1122.000000	0.344168
1123.000000	0.344411
1124.000000	0.344193
1125.000000	0.344182
1126.000000	0.344117
1127.000000	0.344240
1128.000000	0.344462
1129.000000	0.344863
1130.000000	0.345105
1131.000000	0.345647
1132.000000	0.345582
1133.000000	0.345032
1134.000000	0.344969
1135.000000	0.344686
1136.000000	0.344737
1137.000000	0.345426
1138.000000	0.345483
1139.000000	0.345208
1140.000000	0.345358
1141.000000	0.345517
1142.000000	0.345557
1143.000000	0.345681
1144.000000	0.345952
1145.000000	0.346092
1146.000000	0.345846
1147.000000	0.345816
1148.000000	0.345847
1149.000000	0.345872
1150.000000	0.345768
1151.000000	0.345872
1152.000000	0.346186
1153.000000	0.346255
1154.000000	0.346182
1155.000000	0.346186
1156.000000	0.345991
1157.000000	0.346076
1158.000000	0.346456
1159.000000	0.346557
1160.000000	0.346595
1161.000000	0.346670
1162.000000	0.346769
1163.000000	0.346782
1164.000000	0.346812
1165.000000	0.346701
1166.000000	0.346753
1167.000000	0.346680
1168.000000	0.346673
1169.000000	0.346906
1170.000000	0.346941
1171.000000	0.346841
1172.000000	0.346884
1173.000000	0.346961
1174.000000	0.346940
1175.000000	0.346827
1176.000000	0.346778
1177.000000	0.346837
1178.000000	0.346808
1179.000000	0.346799
1180.000000	0.346714
1181.000000	0.346563
1182.000000	0.346479
1183.000000	0.346466
1184.000000	0.346458
1185.000000	0.346510
1186.000000	0.346640
1187.000000	0.346610
1188.000000	0.346539
1189.000000	0.346515
1190.000000	0.346440
1191.000000	0.346446
1192.000000	0.346711
1193.000000	0.346905
1194.000000	0.346958
1195.000000	0.346971
1196.000000	0.346833
1197.000000	0.346788
1198.000000	0.346788
1199.000000	0.346760
1200.000000	0.346669
1201.000000	0.346761
1202.000000	0.346833
1203.000000	0.346738
1204.000000	0.346786
1205.000000	0.346893
1206.000000	0.346870
1207.000000	0.346885
1208.000000	0.346835
1209.000000	0.346747
1210.000000	0.346728
1211.000000	0.346719
1212.000000	0.346708
1213.000000	0.346811
1214.000000	0.346861
1215.000000	0.346857
1216.000000	0.346860
1217.000000	0.346792
1218.000000	0.346732
1219.000000	0.346673
1220.000000	0.346716
1221.000000	0.346743
1222.000000	0.346725
1223.000000	0.346566
1224.000000	0.346424
1225.000000	0.346245
1226.000000	0.346085
1227.000000	0.346038
1228.000000	0.346082
1229.000000	0.346048
1230.000000	0.345953
1231.000000	0.345940
1232.000000	0.346099
1233.000000	0.346224
1234.000000	0.346455
1235.000000	0.346480
1236.000000	0.346256
1237.000000	0.346191
1238.000000	0.345994
1239.000000	0.345882
1240.000000	0.345857
1241.000000	0.345821
1242.000000	0.345895
1243.000000	0.345839
1244.000000	0.345763
1245.000000	0.345790
1246.000000	0.345622
1247.000000	0.345760
1248.000000	0.345955
1249.000000	0.346005
1250.000000	0.346183
1251.000000	0.346127
1252.000000	0.346043
1253.000000	0.345876
1254.000000	0.345846
1255.000000	0.345834
1256.000000	0.345787
1257.000000	0.345858
1258.000000	0.345840
1259.000000	0.345532
1260.000000	0.345499
1261.000000	0.345501
1262.000000	0.345522
1263.000000	0.345668
1264.000000	0.345865
1265.000000	0.345956
1266.000000	0.346061
1267.000000	0.346155
1268.000000	0.346160
1269.000000	0.346045
1270.000000	0.346201
1271.000000	0.346300
1272.000000	0.346211
1273.000000	0.346272
1274.000000	0.346152
1275.000000	0.346010
1276.000000	0.345858
1277.000000	0.345802
1278.000000	0.345572
1279.000000	0.345499
1280.000000	0.345452
1281.000000	0.345367
1282.000000	0.345395
1283.000000	0.345491
1284.000000	0.345584
1285.000000	0.345622
1286.000000	0.345711
1287.000000	0.345584
1288.000000	0.345407
1289.000000	0.345388
1290.000000	0.345295
1291.000000	0.345276
1292.000000	0.345452
1293.000000	0.345332
1294.000000	0.345092
1295.000000	0.345035
1296.000000	0.344945
1297.000000	0.344875
1298.000000	0.344926
1299.000000	0.345007
1300.000000	0.344949
1301.000000	0.344841
1302.000000	0.344763
1303.000000	0.344846
1304.000000	0.344768
1305.000000	0.344751
1306.000000	0.344711
1307.000000	0.344605
1308.000000	0.344625
1309.000000	0.344793
1310.000000	0.344806
1311.000000	0.344825
1312.000000	0.344774
1313.000000	0.344616
1314.000000	0.344438
1315.000000	0.344298
1316.000000	0.344216
1317.000000	0.344262
1318.000000	0.344237
1319.000000	0.344186
1320.000000	0.344253
1321.000000	0.344130
1322.000000	0.343979
1323.000000	0.343920
1324.000000	0.343883
1325.000000	0.343986
1326.000000	0.344105
1327.000000	0.344064
1328.000000	0.344058
1329.000000	0.343937
1330.000000	0.343590
1331.000000	0.343479
1332.000000	0.343566
1333.000000	0.343516
1334.000000	0.343621
1335.000000	0.343575
1336.000000	0.343235
1337.000000	0.343129
1338.000000	0.343036
1339.000000	0.342989
1340.000000	0.342958
1341.000000	0.342989
1342.000000	0.342698
1343.000000	0.342337
1344.000000	0.342107
1345.000000	0.341859
1346.000000	0.341916
1347.000000	0.341825
1348.000000	0.341652
1349.000000	0.341629
1350.000000	0.341523
1351.000000	0.341327
1352.000000	0.341176
1353.000000	0.340985
1354.000000	0.340794
1355.000000	0.340638
1356.000000	0.340660
1357.000000	0.340557
1358.000000	0.340369
1359.000000	0.340252
1360.000000	0.340072
1361.000000	0.339799
1362.000000	0.339668
1363.000000	0.339542
1364.000000	0.339462
1365.000000	0.339545
1366.000000	0.339439
1367.000000	0.339199
1368.000000	0.339077
1369.000000	0.339109
1370.000000	0.338790
1371.000000	0.338474
1372.000000	0.338145
1373.000000	0.337582
1374.000000	0.337201
1375.000000	0.336965
1376.000000	0.336615
1377.000000	0.336106
1378.000000	0.335349
1379.000000	0.334311
1380.000000	0.333245
1381.000000	0.332129
1382.000000	0.330853
1383.000000	0.329422
1384.000000	0.327806
1385.000000	0.326162
1386.000000	0.324632
1387.000000	0.323252
1388.000000	0.322105
1389.000000	0.321289
1390.000000	0.320749
1391.000000	0.320326
1392.000000	0.320130
1393.000000	0.320012
1394.000000	0.320044
1395.000000	0.320075
1396.000000	0.320292
1397.000000	0.320349
1398.000000	0.320339
1399.000000	0.320299
1400.000000	0.320287
1401.000000	0.319999
1402.000000	0.319652
1403.000000	0.319071
1404.000000	0.318426
1405.000000	0.317876
1406.000000	0.317273
1407.000000	0.316752
1408.000000	0.316228
1409.000000	0.315740
1410.000000	0.315350
1411.000000	0.314941
1412.000000	0.314678
1413.000000	0.314456
1414.000000	0.314169
1415.000000	0.313999
1416.000000	0.313707
1417.000000	0.313454
1418.000000	0.313274
1419.000000	0.313109
1420.000000	0.312944
1421.000000	0.312748
1422.000000	0.312713
1423.000000	0.312859
1424.000000	0.312748
1425.000000	0.312680
1426.000000	0.312706
1427.000000	0.312631
1428.000000	0.312610
1429.000000	0.312723
1430.000000	0.312706
1431.000000	0.312661
1432.000000	0.312595
1433.000000	0.312569
1434.000000	0.312503
1435.000000	0.312468
1436.000000	0.312383
1437.000000	0.312312
1438.000000	0.312220
1439.000000	0.312082
1440.000000	0.312015
1441.000000	0.312032
1442.000000	0.312027
1443.000000	0.311982
1444.000000	0.311885
1445.000000	0.311832
1446.000000	0.311700
1447.000000	0.311457
1448.000000	0.311286
1449.000000	0.311146
1450.000000	0.311011
1451.000000	0.311003
1452.000000	0.311032
1453.000000	0.310981
1454.000000	0.310874
1455.000000	0.310843
1456.000000	0.310805
1457.000000	0.310744
1458.000000	0.310727
1459.000000	0.310640
1460.000000	0.310563
1461.000000	0.310514
1462.000000	0.310490
1463.000000	0.310439
1464.000000	0.310510
1465.000000	0.310630
1466.000000	0.310603
1467.000000	0.310685
1468.000000	0.310724
1469.000000	0.310784
1470.000000	0.310878
1471.000000	0.311029
1472.000000	0.311173
1473.000000	0.311381
1474.000000	0.311592
1475.000000	0.311732
1476.000000	0.311965
1477.000000	0.312148
1478.000000	0.312315
1479.000000	0.312602
1480.000000	0.312821
1481.000000	0.312998
1482.000000	0.313198
1483.000000	0.313433
1484.000000	0.313652
1485.000000	0.313913
1486.000000	0.314217
1487.000000	0.314478
1488.000000	0.314700
1489.000000	0.314967
1490.000000	0.315161
1491.000000	0.315448
1492.000000	0.315740
1493.000000	0.316028
1494.000000	0.316280
1495.000000	0.316521
1496.000000	0.316789
1497.000000	0.317017
1498.000000	0.317241
1499.000000	0.317400
1500.000000	0.317640
1501.000000	0.317890
1502.000000	0.318059
1503.000000	0.318376
1504.000000	0.318682
1505.000000	0.318784
1506.000000	0.318949
1507.000000	0.319092
1508.000000	0.319153
1509.000000	0.319310
1510.000000	0.319527
1511.000000	0.319680
1512.000000	0.319722
1513.000000	0.319772
1514.000000	0.319934
1515.000000	0.320075
1516.000000	0.320139
1517.000000	0.320167
1518.000000	0.320213
1519.000000	0.320194
1520.000000	0.320352
1521.000000	0.320520
1522.000000	0.320549
1523.000000	0.320713
1524.000000	0.320809
1525.000000	0.320862
1526.000000	0.320966
1527.000000	0.320952
1528.000000	0.320956
1529.000000	0.321076
1530.000000	0.321127
1531.000000	0.321161
1532.000000	0.321237
1533.000000	0.321288
1534.000000	0.321425
1535.000000	0.321699
1536.000000	0.321894
1537.000000	0.322089
1538.000000	0.322140
1539.000000	0.322079
1540.000000	0.322112
1541.000000	0.322118
1542.000000	0.322280
1543.000000	0.322458
1544.000000	0.322471
1545.000000	0.322645
1546.000000	0.322772
1547.000000	0.322806
1548.000000	0.322977
1549.000000	0.323117
1550.000000	0.323182
1551.000000	0.323304
1552.000000	0.323314
1553.000000	0.323180
1554.000000	0.323152
1555.000000	0.323244
1556.000000	0.323456
1557.000000	0.323614
1558.000000	0.323696
1559.000000	0.323670
1560.000000	0.323575
1561.000000	0.323377
1562.000000	0.323334
1563.000000	0.323340
1564.000000	0.323348
1565.000000	0.323442
1566.000000	0.323389
1567.000000	0.323318
1568.000000	0.323335
1569.000000	0.323473
1570.000000	0.323523
1571.000000	0.323591
1572.000000	0.323588
1573.000000	0.323490
1574.000000	0.323442
1575.000000	0.323368
1576.000000	0.323413
1577.000000	0.323543
1578.000000	0.323566
1579.000000	0.323693
1580.000000	0.323716
1581.000000	0.323640
1582.000000	0.323656
1583.000000	0.323707
1584.000000	0.323725
1585.000000	0.323901
1586.000000	0.323947
1587.000000	0.323870
1588.000000	0.323866
1589.000000	0.323849
1590.000000	0.323853
1591.000000	0.323927
1592.000000	0.323992
1593.000000	0.324138
1594.000000	0.324131
1595.000000	0.324084
1596.000000	0.324113
1597.000000	0.324092
1598.000000	0.324086
1599.000000	0.324262
1600.000000	0.324194
1601.000000	0.324027
1602.000000	0.323900
1603.000000	0.323694
1604.000000	0.323594
1605.000000	0.323602
1606.000000	0.323553
1607.000000	0.323557
1608.000000	0.323562
1609.000000	0.323622
1610.000000	0.323612
1611.000000	0.323634
1612.000000	0.323629
1613.000000	0.323619
1614.000000	0.323668
1615.000000	0.323830
1616.000000	0.323961
1617.000000	0.324136
1618.000000	0.324163
1619.000000	0.324052
1620.000000	0.324026
1621.000000	0.323938
1622.000000	0.323990
1623.000000	0.324110
1624.000000	0.324230
1625.000000	0.324317
1626.000000	0.324293
1627.000000	0.324241
1628.000000	0.324281
1629.000000	0.324215
1630.000000	0.324302
1631.000000	0.324481
1632.000000	0.324539
1633.000000	0.324614
1634.000000	0.324705
1635.000000	0.324842
1636.000000	0.324930
1637.000000	0.324966
1638.000000	0.325044
1639.000000	0.325176
1640.000000	0.325262
1641.000000	0.325539
1642.000000	0.325608
1643.000000	0.325521
1644.000000	0.325495
1645.000000	0.325397
1646.000000	0.325292
1647.000000	0.325250
1648.000000	0.325194
1649.000000	0.325143
1650.000000	0.325258
1651.000000	0.325577
1652.000000	0.325723
1653.000000	0.325818
1654.000000	0.325946
1655.000000	0.325940
1656.000000	0.325871
1657.000000	0.325877
1658.000000	0.325869
1659.000000	0.325909
1660.000000	0.325940
1661.000000	0.325954
1662.000000	0.325936
1663.000000	0.325740
1664.000000	0.325734
1665.000000	0.325788
1666.000000	0.326023
1667.000000	0.326427
1668.000000	0.326483
1669.000000	0.326484
1670.000000	0.326415
1671.000000	0.326157
1672.000000	0.326164
1673.000000	0.326304
1674.000000	0.326265
1675.000000	0.326311
1676.000000	0.326244
1677.000000	0.326239
1678.000000	0.326223
1679.000000	0.326121
1680.000000	0.326101
1681.000000	0.326070
1682.000000	0.325993
1683.000000	0.326097
1684.000000	0.326092
1685.000000	0.325964
1686.000000	0.326020
1687.000000	0.326102
1688.000000	0.326120
1689.000000	0.326246
1690.000000	0.326191
1691.000000	0.326166
1692.000000	0.326207
1693.000000	0.326118
1694.000000	0.326090
1695.000000	0.326106
1696.000000	0.326049
1697.000000	0.326022
1698.000000	0.326051
1699.000000	0.326144
1700.000000	0.326368
1701.000000	0.326559
1702.000000	0.326591
1703.000000	0.326571
1704.000000	0.326497
1705.000000	0.326514
1706.000000	0.326621
1707.000000	0.326708
1708.000000	0.326859
1709.000000	0.326845
1710.000000	0.326838
1711.000000	0.326829
1712.000000	0.326752
1713.000000	0.326674
1714.000000	0.326621
1715.000000	0.326577
1716.000000	0.326531
1717.000000	0.326523
1718.000000	0.326569
1719.000000	0.326501
1720.000000	0.326385
1721.000000	0.326365
1722.000000	0.326309
1723.000000	0.326338
1724.000000	0.326552
1725.000000	0.326679
1726.000000	0.326713
1727.000000	0.326735
1728.000000	0.326682
1729.000000	0.326574
1730.000000	0.326479
1731.000000	0.326524
1732.000000	0.326633
1733.000000	0.326792
1734.000000	0.326981
1735.000000	0.327034
1736.000000	0.326963
1737.000000	0.326982
1738.000000	0.327007
1739.000000	0.326999
1740.000000	0.326992
1741.000000	0.327000
1742.000000	0.326981
1743.000000	0.327021
1744.000000	0.327141
1745.000000	0.327080
1746.000000	0.326904
1747.000000	0.326786
1748.000000	0.326672
1749.000000	0.326717
1750.000000	0.326609
1751.000000	0.326489
1752.000000	0.326511
1753.000000	0.326336
1754.000000	0.326280
1755.000000	0.326416
1756.000000	0.326376
1757.000000	0.326154
1758.000000	0.326159
1759.000000	0.326254
1760.000000	0.326239
1761.000000	0.326323
1762.000000	0.326299
1763.000000	0.326064
1764.000000	0.325954
1765.000000	0.325846
1766.000000	0.325835
1767.000000	0.325810
1768.000000	0.325767
1769.000000	0.325876
1770.000000	0.326028
1771.000000	0.326199
1772.000000	0.326233
1773.000000	0.326180
1774.000000	0.326200
1775.000000	0.326238
1776.000000	0.326186
1777.000000	0.326146
1778.000000	0.326055
1779.000000	0.325703
1780.000000	0.325711
1781.000000	0.325920
1782.000000	0.325991
1783.000000	0.326214
1784.000000	0.326240
1785.000000	0.326099
1786.000000	0.325953
1787.000000	0.326073
1788.000000	0.326210
1789.000000	0.326193
1790.000000	0.326177
1791.000000	0.326207
1792.000000	0.326475
1793.000000	0.326536
1794.000000	0.326495
1795.000000	0.326570
1796.000000	0.326516
1797.000000	0.326515
1798.000000	0.326737
1799.000000	0.326761
1800.000000	0.326633
1801.000000	0.326994
1802.000000	0.326864
1803.000000	0.326273
1804.000000	0.326195
1805.000000	0.326451
1806.000000	0.326696
1807.000000	0.327185
1808.000000	0.327274
1809.000000	0.327160
1810.000000	0.327325
1811.000000	0.327258
1812.000000	0.326815
1813.000000	0.326862
1814.000000	0.327203
1815.000000	0.327377
1816.000000	0.327998
1817.000000	0.327875
1818.000000	0.327383
1819.000000	0.326867
1820.000000	0.326572
1821.000000	0.326101
1822.000000	0.325945
1823.000000	0.326249
1824.000000	0.326244
1825.000000	0.326053
1826.000000	0.325945
1827.000000	0.325711
1828.000000	0.325529
1829.000000	0.325532
1830.000000	0.325965
1831.000000	0.325896
1832.000000	0.325885
1833.000000	0.325735
1834.000000	0.324916
1835.000000	0.324706
1836.000000	0.324953
1837.000000	0.324881
1838.000000	0.324896
1839.000000	0.324720
1840.000000	0.323681
1841.000000	0.322753
1842.000000	0.322459
1843.000000	0.322470
1844.000000	0.322312
1845.000000	0.322331
1846.000000	0.322510
1847.000000	0.322472
1848.000000	0.322290
1849.000000	0.322742
1850.000000	0.323485
1851.000000	0.323815
1852.000000	0.324137
1853.000000	0.324059
1854.000000	0.323317
1855.000000	0.322859
1856.000000	0.322308
1857.000000	0.321459
1858.000000	0.320393
1859.000000	0.319742
1860.000000	0.319507
1861.000000	0.318948
1862.000000	0.318373
1863.000000	0.318229
1864.000000	0.317867
1865.000000	0.317103
1866.000000	0.316557
1867.000000	0.316278
1868.000000	0.316094
1869.000000	0.314855
1870.000000	0.313076
1871.000000	0.311334
1872.000000	0.309161
1873.000000	0.307730
1874.000000	0.307081
1875.000000	0.305867
1876.000000	0.304436
1877.000000	0.302965
1878.000000	0.301043
1879.000000	0.299309
1880.000000	0.298009
1881.000000	0.296526
1882.000000	0.294454
1883.000000	0.291730
1884.000000	0.289012
1885.000000	0.285216
1886.000000	0.282154
1887.000000	0.279203
1888.000000	0.276526
1889.000000	0.273809
1890.000000	0.271032
1891.000000	0.268092
1892.000000	0.264650
1893.000000	0.261355
1894.000000	0.258166
1895.000000	0.255077
1896.000000	0.252271
1897.000000	0.249532
1898.000000	0.246630
1899.000000	0.244250
1900.000000	0.241456
1901.000000	0.239368
1902.000000	0.237994
1903.000000	0.236217
1904.000000	0.235549
1905.000000	0.234782
1906.000000	0.233362
1907.000000	0.231407
1908.000000	0.230127
1909.000000	0.228833
1910.000000	0.227499
1911.000000	0.227133
1912.000000	0.227625
1913.000000	0.227893
1914.000000	0.228345
1915.000000	0.229381
1916.000000	0.229411
1917.000000	0.229220
1918.000000	0.228640
1919.000000	0.228417
1920.000000	0.227738
1921.000000	0.227914
1922.000000	0.228640
1923.000000	0.228673
1924.000000	0.228564
1925.000000	0.228841
1926.000000	0.228653
1927.000000	0.228902
1928.000000	0.229266
1929.000000	0.230138
1930.000000	0.230161
1931.000000	0.230646
1932.000000	0.231111
1933.000000	0.231318
1934.000000	0.231767
1935.000000	0.231984
1936.000000	0.232393
1937.000000	0.232900
1938.000000	0.233067
1939.000000	0.233111
1940.000000	0.233067
1941.000000	0.232702
1942.000000	0.232447
1943.000000	0.232541
1944.000000	0.233097
1945.000000	0.233775
1946.000000	0.233753
1947.000000	0.234291
1948.000000	0.234655
1949.000000	0.234727
1950.000000	0.235347
1951.000000	0.235469
1952.000000	0.235263
1953.000000	0.234994
1954.000000	0.234441
1955.000000	0.233830
1956.000000	0.233506
1957.000000	0.233175
1958.000000	0.233582
1959.000000	0.234130
1960.000000	0.234587
1961.000000	0.234862
1962.000000	0.235230
1963.000000	0.235535
1964.000000	0.236085
1965.000000	0.236293
1966.000000	0.236357
1967.000000	0.236128
1968.000000	0.235847
1969.000000	0.236084
1970.000000	0.236910
1971.000000	0.237751
1972.000000	0.238332
1973.000000	0.238474
1974.000000	0.238103
1975.000000	0.237947
1976.000000	0.237515
1977.000000	0.237321
1978.000000	0.237587
1979.000000	0.238107
1980.000000	0.238972
1981.000000	0.240322
1982.000000	0.241289
1983.000000	0.242090
1984.000000	0.242536
1985.000000	0.242336
1986.000000	0.242331
1987.000000	0.242116
1988.000000	0.242385
1989.000000	0.242825
1990.000000	0.243657
1991.000000	0.244312
1992.000000	0.244975
1993.000000	0.245546
1994.000000	0.246061
1995.000000	0.246811
1996.000000	0.247630
1997.000000	0.248390
1998.000000	0.249370
1999.000000	0.250180
2000.000000	0.251100
2001.000000	0.251359
2002.000000	0.251699
2003.000000	0.251908
2004.000000	0.252050
2005.000000	0.252189
2006.000000	0.252413
2007.000000	0.252955
2008.000000	0.253492
2009.000000	0.254025
2010.000000	0.254668
2011.000000	0.255371
2012.000000	0.256189
2013.000000	0.257015
2014.000000	0.257991
2015.000000	0.258673
2016.000000	0.258610
2017.000000	0.258900
2018.000000	0.259331
2019.000000	0.260242
2020.000000	0.260926
2021.000000	0.261489
2022.000000	0.261637
2023.000000	0.262184
2024.000000	0.262979
2025.000000	0.263698
2026.000000	0.264297
2027.000000	0.265074
2028.000000	0.265731
2029.000000	0.265946
2030.000000	0.266835
2031.000000	0.266977
2032.000000	0.266304
2033.000000	0.266691
2034.000000	0.266928
2035.000000	0.266648
2036.000000	0.267163
2037.000000	0.268941
2038.000000	0.269803
2039.000000	0.270495
2040.000000	0.271868
2041.000000	0.271914
2042.000000	0.271212
2043.000000	0.271349
2044.000000	0.271447
2045.000000	0.271640
2046.000000	0.272277
2047.000000	0.272565
2048.000000	0.272160
2049.000000	0.272665
2050.000000	0.273545
2051.000000	0.273859
2052.000000	0.274131
2053.000000	0.274284
2054.000000	0.274001
2055.000000	0.274449
2056.000000	0.274835
2057.000000	0.275404
2058.000000	0.275769
2059.000000	0.275880
2060.000000	0.276414
2061.000000	0.277387
2062.000000	0.277883
2063.000000	0.278533
2064.000000	0.278542
2065.000000	0.277924
2066.000000	0.277780
2067.000000	0.277452
2068.000000	0.278326
2069.000000	0.279242
2070.000000	0.280129
2071.000000	0.280968
2072.000000	0.281158
2073.000000	0.281148
2074.000000	0.281411
2075.000000	0.281669
2076.000000	0.282033
2077.000000	0.282179
2078.000000	0.282158
2079.000000	0.282260
2080.000000	0.282340
2081.000000	0.282561
2082.000000	0.283066
2083.000000	0.283351
2084.000000	0.283435
2085.000000	0.283791
2086.000000	0.283958
2087.000000	0.284011
2088.000000	0.284627
2089.000000	0.285012
2090.000000	0.285436
2091.000000	0.286176
2092.000000	0.286681
2093.000000	0.287085
2094.000000	0.287296
2095.000000	0.287438
2096.000000	0.287427
2097.000000	0.286944
2098.000000	0.286685
2099.000000	0.286750
2100.000000	0.287249
2101.000000	0.287812
2102.000000	0.287754
2103.000000	0.287308
2104.000000	0.287187
2105.000000	0.287006
2106.000000	0.286616
2107.000000	0.286855
2108.000000	0.287321
2109.000000	0.287786
2110.000000	0.288658
2111.000000	0.289472
2112.000000	0.290658
2113.000000	0.290657
2114.000000	0.290474
2115.000000	0.290496
2116.000000	0.290008
2117.000000	0.289906
2118.000000	0.290572
2119.000000	0.290833
2120.000000	0.290749
2121.000000	0.290149
2122.000000	0.290069
2123.000000	0.289716
2124.000000	0.290062
2125.000000	0.291109
2126.000000	0.291621
2127.000000	0.292681
2128.000000	0.292875
2129.000000	0.291933
2130.000000	0.292012
2131.000000	0.291026
2132.000000	0.290670
2133.000000	0.291478
2134.000000	0.292090
2135.000000	0.293959
2136.000000	0.295583
2137.000000	0.296260
2138.000000	0.296260
2139.000000	0.296785
2140.000000	0.297025
2141.000000	0.296795
2142.000000	0.296639
2143.000000	0.295913
2144.000000	0.293512
2145.000000	0.293029
2146.000000	0.293674
2147.000000	0.294725
2148.000000	0.295543
2149.000000	0.296684
2150.000000	0.295774
2151.000000	0.295244
2152.000000	0.294563
2153.000000	0.293357
2154.000000	0.292887
2155.000000	0.292477
2156.000000	0.292385
2157.000000	0.293279
2158.000000	0.293310
2159.000000	0.293512
2160.000000	0.293319
2161.000000	0.291634
2162.000000	0.291726
2163.000000	0.292698
2164.000000	0.293058
2165.000000	0.294361
2166.000000	0.295356
2167.000000	0.294163
2168.000000	0.293420
2169.000000	0.293643
2170.000000	0.293871
2171.000000	0.293799
2172.000000	0.294350
2173.000000	0.294302
2174.000000	0.293302
2175.000000	0.293012
2176.000000	0.292918
2177.000000	0.293147
2178.000000	0.293945
2179.000000	0.294235
2180.000000	0.294926
2181.000000	0.295451
2182.000000	0.295403
2183.000000	0.294092
2184.000000	0.293453
2185.000000	0.292535
2186.000000	0.292260
2187.000000	0.292423
2188.000000	0.292576
2189.000000	0.292071
2190.000000	0.290778
2191.000000	0.290135
2192.000000	0.290345
2193.000000	0.291663
2194.000000	0.292493
2195.000000	0.295060
2196.000000	0.295778
2197.000000	0.295008
2198.000000	0.294036
2199.000000	0.290735
2200.000000	0.289536
2201.000000	0.289117
2202.000000	0.289786
2203.000000	0.293269
2204.000000	0.294772
2205.000000	0.295829
2206.000000	0.295325
2207.000000	0.293778
2208.000000	0.294546
2209.000000	0.293841
2210.000000	0.293621
2211.000000	0.293014
2212.000000	0.291978
2213.000000	0.291135
2214.000000	0.290593
2215.000000	0.289890
2216.000000	0.287915
2217.000000	0.288002
2218.000000	0.289781
2219.000000	0.290994
2220.000000	0.293977
2221.000000	0.295405
2222.000000	0.295079
2223.000000	0.295154
2224.000000	0.295349
2225.000000	0.294934
2226.000000	0.292807
2227.000000	0.292521
2228.000000	0.293079
2229.000000	0.293150
2230.000000	0.293540
2231.000000	0.293600
2232.000000	0.293155
2233.000000	0.293365
2234.000000	0.294923
2235.000000	0.298233
2236.000000	0.298934
2237.000000	0.298347
2238.000000	0.297405
2239.000000	0.294663
2240.000000	0.293005
2241.000000	0.291660
2242.000000	0.290796
2243.000000	0.289996
2244.000000	0.289598
2245.000000	0.289335
2246.000000	0.289405
2247.000000	0.290123
2248.000000	0.290762
2249.000000	0.292010
2250.000000	0.293122
2251.000000	0.292612
2252.000000	0.291797
2253.000000	0.290341
2254.000000	0.289490
2255.000000	0.290996
2256.000000	0.291765
2257.000000	0.290807
2258.000000	0.291010
2259.000000	0.290652
2260.000000	0.288875
2261.000000	0.288280
2262.000000	0.289004
2263.000000	0.288627
2264.000000	0.287414
2265.000000	0.286777
2266.000000	0.286043
2267.000000	0.285983
2268.000000	0.286479
2269.000000	0.287596
2270.000000	0.290368
2271.000000	0.290436
2272.000000	0.289423
2273.000000	0.289185
2274.000000	0.287104
2275.000000	0.285568
2276.000000	0.285436
2277.000000	0.284090
2278.000000	0.281192
2279.000000	0.281436
2280.000000	0.282328
2281.000000	0.281270
2282.000000	0.278901
2283.000000	0.277505
2284.000000	0.276823
2285.000000	0.275359
2286.000000	0.274993
2287.000000	0.274752
2288.000000	0.271491
2289.000000	0.269728
2290.000000	0.269842
2291.000000	0.269294
2292.000000	0.270509
2293.000000	0.271730
2294.000000	0.271741
2295.000000	0.270889
2296.000000	0.270204
2297.000000	0.268298
2298.000000	0.267813
2299.000000	0.268145
2300.000000	0.267839
2301.000000	0.268830
2302.000000	0.267684
2303.000000	0.264354
2304.000000	0.262338
2305.000000	0.258990
2306.000000	0.257214
2307.000000	0.256394
2308.000000	0.257263
2309.000000	0.256897
2310.000000	0.257442
2311.000000	0.258078
2312.000000	0.256251
2313.000000	0.254549
2314.000000	0.252536
2315.000000	0.248885
2316.000000	0.247796
2317.000000	0.249606
2318.000000	0.251467
2319.000000	0.253571
2320.000000	0.255890
2321.000000	0.256961
2322.000000	0.257346
2323.000000	0.258410
2324.000000	0.260303
2325.000000	0.259283
2326.000000	0.256654
2327.000000	0.255928
2328.000000	0.254670
2329.000000	0.255643
2330.000000	0.258772
2331.000000	0.261551
2332.000000	0.263616
2333.000000	0.264026
2334.000000	0.265717
2335.000000	0.266964
2336.000000	0.267922
2337.000000	0.266959
2338.000000	0.263297
2339.000000	0.262093
2340.000000	0.260500
2341.000000	0.260057
2342.000000	0.264270
2343.000000	0.264566
2344.000000	0.261776
2345.000000	0.260618
2346.000000	0.256718
2347.000000	0.256542
2348.000000	0.259682
2349.000000	0.261581
2350.000000	0.261639
2351.000000	0.262699
2352.000000	0.259973
2353.000000	0.257128
2354.000000	0.255655
2355.000000	0.254702
2356.000000	0.255505
2357.000000	0.254371
2358.000000	0.254117
2359.000000	0.254516
2360.000000	0.253104
2361.000000	0.252753
2362.000000	0.254748
2363.000000	0.258412
2364.000000	0.260821
2365.000000	0.261815
2366.000000	0.260612
2367.000000	0.258044
2368.000000	0.254687
2369.000000	0.255460
2370.000000	0.257723
2371.000000	0.253940
2372.000000	0.251551
2373.000000	0.247443
2374.000000	0.241784
2375.000000	0.240822
2376.000000	0.239898
2377.000000	0.239757
2378.000000	0.239568
2379.000000	0.237271
2380.000000	0.238034
2381.000000	0.241962
2382.000000	0.243283
2383.000000	0.244999
2384.000000	0.240669
2385.000000	0.233153
2386.000000	0.226572
2387.000000	0.218676
2388.000000	0.222450
2389.000000	0.223795
2390.000000	0.227278
2391.000000	0.236165
2392.000000	0.237023
2393.000000	0.239325
2394.000000	0.236301
2395.000000	0.231031
2396.000000	0.225219
2397.000000	0.218409
2398.000000	0.222013
2399.000000	0.224857
2400.000000	0.225069
2401.000000	0.228041
2402.000000	0.227685
2403.000000	0.231813
2404.000000	0.239089
2405.000000	0.244619
2406.000000	0.248088
2407.000000	0.240906
2408.000000	0.234861
2409.000000	0.230640
2410.000000	0.220978
2411.000000	0.214285
2412.000000	0.209473
2413.000000	0.208544
2414.000000	0.210823
2415.000000	0.219077
2416.000000	0.229518
2417.000000	0.226138
2418.000000	0.221603
2419.000000	0.214507
2420.000000	0.205779
2421.000000	0.218834
2422.000000	0.231991
2423.000000	0.241312
2424.000000	0.246671
2425.000000	0.233020
2426.000000	0.230126
2427.000000	0.228051
2428.000000	0.229046
2429.000000	0.245073
2430.000000	0.250065
2431.000000	0.252779
2432.000000	0.255186
2433.000000	0.244143
2434.000000	0.225024
2435.000000	0.214111
2436.000000	0.210858
2437.000000	0.216819
2438.000000	0.231319
2439.000000	0.232516
2440.000000	0.228931
2441.000000	0.224834
2442.000000	0.214050
2443.000000	0.216470
2444.000000	0.220957
2445.000000	0.218431
2446.000000	0.225965
2447.000000	0.231574
2448.000000	0.230948
2449.000000	0.229749
2450.000000	0.221357
2451.000000	0.210583
2452.000000	0.199482
2453.000000	0.198661
2454.000000	0.209821
2455.000000	0.219514
2456.000000	0.237452
2457.000000	0.245109
2458.000000	0.232703
2459.000000	0.231097
2460.000000	0.216351
2461.000000	0.188679
2462.000000	0.184986
2463.000000	0.177905
2464.000000	0.186705
2465.000000	0.221276
2466.000000	0.245450
2467.000000	0.265223
2468.000000	0.261042
2469.000000	0.236434
2470.000000	0.214408
2471.000000	0.184659
2472.000000	0.169579
2473.000000	0.167656
2474.000000	0.164606
2475.000000	0.179393
2476.000000	0.203915
2477.000000	0.227616
2478.000000	0.259169
2479.000000	0.283272
2480.000000	0.275712
2481.000000	0.271191
2482.000000	0.263349
2483.000000	0.227420
2484.000000	0.231950
2485.000000	0.221821
2486.000000	0.204771
2487.000000	0.231936
2488.000000	0.217187
2489.000000	0.211179
2490.000000	0.235811
2491.000000	0.268798
2492.000000	0.270107
2493.000000	0.277656
2494.000000	0.259127
2495.000000	0.164161
2496.000000	0.131966
2497.000000	0.141110
2498.000000	0.136289
2499.000000	0.159886
2500.000000	0.175801
