# Wavelength	SM1200H-10_HEX-80_FV7-10_00002.asd.rts.txt
350.000000	0.406293
351.000000	0.393087
352.000000	0.390586
353.000000	0.402606
354.000000	0.422832
355.000000	0.411190
356.000000	0.406233
357.000000	0.414714
358.000000	0.415378
359.000000	0.413347
360.000000	0.409196
361.000000	0.403517
362.000000	0.408328
363.000000	0.413387
364.000000	0.412020
365.000000	0.413553
366.000000	0.412303
367.000000	0.408655
368.000000	0.409082
369.000000	0.411718
370.000000	0.412822
371.000000	0.409962
372.000000	0.417538
373.000000	0.421955
374.000000	0.416874
375.000000	0.418094
376.000000	0.421191
377.000000	0.421963
378.000000	0.415874
379.000000	0.415484
380.000000	0.418443
381.000000	0.419427
382.000000	0.419667
383.000000	0.420211
384.000000	0.421803
385.000000	0.422909
386.000000	0.423345
387.000000	0.423530
388.000000	0.423922
389.000000	0.424392
390.000000	0.425236
391.000000	0.426255
392.000000	0.426732
393.000000	0.425887
394.000000	0.424322
395.000000	0.427491
396.000000	0.429010
397.000000	0.427474
398.000000	0.428051
399.000000	0.429256
400.000000	0.430154
401.000000	0.429714
402.000000	0.430537
403.000000	0.431644
404.000000	0.431946
405.000000	0.430965
406.000000	0.431367
407.000000	0.433381
408.000000	0.432728
409.000000	0.432562
410.000000	0.433251
411.000000	0.433666
412.000000	0.434332
413.000000	0.435122
414.000000	0.435810
415.000000	0.436055
416.000000	0.436191
417.000000	0.436585
418.000000	0.437745
419.000000	0.438245
420.000000	0.438071
421.000000	0.438384
422.000000	0.438608
423.000000	0.438712
424.000000	0.438940
425.000000	0.439099
426.000000	0.439636
427.000000	0.440584
428.000000	0.440580
429.000000	0.440708
430.000000	0.441273
431.000000	0.441555
432.000000	0.441769
433.000000	0.442081
434.000000	0.442807
435.000000	0.442889
436.000000	0.442743
437.000000	0.442904
438.000000	0.443273
439.000000	0.443311
440.000000	0.443175
441.000000	0.443857
442.000000	0.444518
443.000000	0.444853
444.000000	0.445171
445.000000	0.445437
446.000000	0.445808
447.000000	0.446111
448.000000	0.446150
449.000000	0.446258
450.000000	0.446668
451.000000	0.447176
452.000000	0.447525
453.000000	0.447655
454.000000	0.448152
455.000000	0.448562
456.000000	0.449036
457.000000	0.449596
458.000000	0.449765
459.000000	0.449858
460.000000	0.450252
461.000000	0.450495
462.000000	0.450750
463.000000	0.450954
464.000000	0.451632
465.000000	0.451930
466.000000	0.451815
467.000000	0.452016
468.000000	0.452419
469.000000	0.452686
470.000000	0.452799
471.000000	0.453039
472.000000	0.453440
473.000000	0.453952
474.000000	0.454166
475.000000	0.454205
476.000000	0.454358
477.000000	0.454485
478.000000	0.454566
479.000000	0.454949
480.000000	0.455461
481.000000	0.455583
482.000000	0.455724
483.000000	0.455957
484.000000	0.456481
485.000000	0.456928
486.000000	0.457376
487.000000	0.457665
488.000000	0.457781
489.000000	0.457912
490.000000	0.458362
491.000000	0.458789
492.000000	0.459170
493.000000	0.459349
494.000000	0.459674
495.000000	0.460022
496.000000	0.460243
497.000000	0.460588
498.000000	0.460823
499.000000	0.461084
500.000000	0.461640
501.000000	0.462046
502.000000	0.462324
503.000000	0.462547
504.000000	0.462884
505.000000	0.463175
506.000000	0.463298
507.000000	0.463541
508.000000	0.463927
509.000000	0.464343
510.000000	0.464689
511.000000	0.464983
512.000000	0.465277
513.000000	0.465553
514.000000	0.465911
515.000000	0.466295
516.000000	0.466513
517.000000	0.466899
518.000000	0.467353
519.000000	0.467621
520.000000	0.467830
521.000000	0.468137
522.000000	0.468553
523.000000	0.468847
524.000000	0.469145
525.000000	0.469432
526.000000	0.469712
527.000000	0.470064
528.000000	0.470440
529.000000	0.470845
530.000000	0.471154
531.000000	0.471442
532.000000	0.471654
533.000000	0.472007
534.000000	0.472292
535.000000	0.472499
536.000000	0.472906
537.000000	0.473218
538.000000	0.473442
539.000000	0.473680
540.000000	0.474012
541.000000	0.474363
542.000000	0.474704
543.000000	0.474969
544.000000	0.475258
545.000000	0.475525
546.000000	0.475874
547.000000	0.476227
548.000000	0.476605
549.000000	0.476935
550.000000	0.477158
551.000000	0.477452
552.000000	0.477922
553.000000	0.478267
554.000000	0.478575
555.000000	0.478935
556.000000	0.479271
557.000000	0.479588
558.000000	0.480046
559.000000	0.480361
560.000000	0.480589
561.000000	0.480906
562.000000	0.481297
563.000000	0.481694
564.000000	0.482087
565.000000	0.482320
566.000000	0.482607
567.000000	0.482932
568.000000	0.483246
569.000000	0.483611
570.000000	0.483935
571.000000	0.484186
572.000000	0.484429
573.000000	0.484707
574.000000	0.484980
575.000000	0.485282
576.000000	0.485670
577.000000	0.486044
578.000000	0.486421
579.000000	0.486786
580.000000	0.487109
581.000000	0.487386
582.000000	0.487665
583.000000	0.487928
584.000000	0.488194
585.000000	0.488510
586.000000	0.488840
587.000000	0.489147
588.000000	0.489419
589.000000	0.489768
590.000000	0.490136
591.000000	0.490465
592.000000	0.490693
593.000000	0.491021
594.000000	0.491440
595.000000	0.491736
596.000000	0.491957
597.000000	0.492234
598.000000	0.492549
599.000000	0.492724
600.000000	0.492877
601.000000	0.493013
602.000000	0.493218
603.000000	0.493423
604.000000	0.493602
605.000000	0.493752
606.000000	0.493907
607.000000	0.494070
608.000000	0.494220
609.000000	0.494420
610.000000	0.494673
611.000000	0.494946
612.000000	0.495151
613.000000	0.495363
614.000000	0.495658
615.000000	0.495805
616.000000	0.495890
617.000000	0.495942
618.000000	0.496113
619.000000	0.496384
620.000000	0.496599
621.000000	0.496669
622.000000	0.496736
623.000000	0.496818
624.000000	0.496911
625.000000	0.497018
626.000000	0.497189
627.000000	0.497434
628.000000	0.497710
629.000000	0.498014
630.000000	0.498149
631.000000	0.498298
632.000000	0.498482
633.000000	0.498687
634.000000	0.498858
635.000000	0.498981
636.000000	0.499145
637.000000	0.499342
638.000000	0.499468
639.000000	0.499581
640.000000	0.499768
641.000000	0.499868
642.000000	0.499928
643.000000	0.500045
644.000000	0.500309
645.000000	0.500449
646.000000	0.500567
647.000000	0.500711
648.000000	0.500833
649.000000	0.501011
650.000000	0.501214
651.000000	0.501367
652.000000	0.501506
653.000000	0.501677
654.000000	0.501796
655.000000	0.501928
656.000000	0.502111
657.000000	0.502272
658.000000	0.502463
659.000000	0.502631
660.000000	0.502770
661.000000	0.503074
662.000000	0.503312
663.000000	0.503535
664.000000	0.503773
665.000000	0.503980
666.000000	0.504162
667.000000	0.504291
668.000000	0.504453
669.000000	0.504604
670.000000	0.504730
671.000000	0.504870
672.000000	0.505022
673.000000	0.505157
674.000000	0.505255
675.000000	0.505445
676.000000	0.505694
677.000000	0.505948
678.000000	0.506187
679.000000	0.506364
680.000000	0.506480
681.000000	0.506588
682.000000	0.506777
683.000000	0.506924
684.000000	0.507062
685.000000	0.507189
686.000000	0.507356
687.000000	0.507539
688.000000	0.507735
689.000000	0.507915
690.000000	0.508116
691.000000	0.508313
692.000000	0.508476
693.000000	0.508696
694.000000	0.508921
695.000000	0.509122
696.000000	0.509314
697.000000	0.509528
698.000000	0.509699
699.000000	0.509849
700.000000	0.510016
701.000000	0.510165
702.000000	0.510289
703.000000	0.510368
704.000000	0.510446
705.000000	0.510623
706.000000	0.510794
707.000000	0.510932
708.000000	0.511097
709.000000	0.511264
710.000000	0.511430
711.000000	0.511542
712.000000	0.511696
713.000000	0.511918
714.000000	0.512028
715.000000	0.512153
716.000000	0.512305
717.000000	0.512410
718.000000	0.512557
719.000000	0.512709
720.000000	0.512851
721.000000	0.513018
722.000000	0.513121
723.000000	0.513228
724.000000	0.513308
725.000000	0.513411
726.000000	0.513605
727.000000	0.513684
728.000000	0.513746
729.000000	0.513858
730.000000	0.513963
731.000000	0.514050
732.000000	0.514157
733.000000	0.514332
734.000000	0.514442
735.000000	0.514452
736.000000	0.514577
737.000000	0.514693
738.000000	0.514704
739.000000	0.514812
740.000000	0.514883
741.000000	0.514971
742.000000	0.515067
743.000000	0.515153
744.000000	0.515354
745.000000	0.515406
746.000000	0.515459
747.000000	0.515608
748.000000	0.515738
749.000000	0.515895
750.000000	0.516049
751.000000	0.516158
752.000000	0.516234
753.000000	0.516307
754.000000	0.516387
755.000000	0.516454
756.000000	0.516519
757.000000	0.516533
758.000000	0.516624
759.000000	0.516777
760.000000	0.516868
761.000000	0.517040
762.000000	0.517131
763.000000	0.517129
764.000000	0.517241
765.000000	0.517326
766.000000	0.517368
767.000000	0.517382
768.000000	0.517478
769.000000	0.517548
770.000000	0.517559
771.000000	0.517565
772.000000	0.517716
773.000000	0.517866
774.000000	0.517973
775.000000	0.518043
776.000000	0.518119
777.000000	0.518213
778.000000	0.518361
779.000000	0.518509
780.000000	0.518625
781.000000	0.518669
782.000000	0.518671
783.000000	0.518799
784.000000	0.518903
785.000000	0.518878
786.000000	0.518804
787.000000	0.518732
788.000000	0.518664
789.000000	0.518699
790.000000	0.518794
791.000000	0.518905
792.000000	0.518971
793.000000	0.519023
794.000000	0.519095
795.000000	0.519131
796.000000	0.519091
797.000000	0.519041
798.000000	0.519187
799.000000	0.519351
800.000000	0.519491
801.000000	0.519594
802.000000	0.519565
803.000000	0.519561
804.000000	0.519677
805.000000	0.519637
806.000000	0.519521
807.000000	0.519502
808.000000	0.519536
809.000000	0.519509
810.000000	0.519495
811.000000	0.519518
812.000000	0.519470
813.000000	0.519438
814.000000	0.519440
815.000000	0.519469
816.000000	0.519527
817.000000	0.519603
818.000000	0.519554
819.000000	0.519560
820.000000	0.519576
821.000000	0.519510
822.000000	0.519467
823.000000	0.519533
824.000000	0.519599
825.000000	0.519695
826.000000	0.519786
827.000000	0.519788
828.000000	0.519755
829.000000	0.519775
830.000000	0.519706
831.000000	0.519637
832.000000	0.519501
833.000000	0.519474
834.000000	0.519471
835.000000	0.519466
836.000000	0.519503
837.000000	0.519480
838.000000	0.519399
839.000000	0.519273
840.000000	0.519245
841.000000	0.519245
842.000000	0.519141
843.000000	0.519151
844.000000	0.519200
845.000000	0.519200
846.000000	0.519189
847.000000	0.519153
848.000000	0.519108
849.000000	0.519101
850.000000	0.518936
851.000000	0.518817
852.000000	0.518869
853.000000	0.518910
854.000000	0.518851
855.000000	0.518863
856.000000	0.518856
857.000000	0.518741
858.000000	0.518684
859.000000	0.518613
860.000000	0.518443
861.000000	0.518276
862.000000	0.518230
863.000000	0.518264
864.000000	0.518230
865.000000	0.518111
866.000000	0.517997
867.000000	0.518013
868.000000	0.518046
869.000000	0.517912
870.000000	0.517643
871.000000	0.517481
872.000000	0.517407
873.000000	0.517318
874.000000	0.517387
875.000000	0.517340
876.000000	0.517201
877.000000	0.517005
878.000000	0.516759
879.000000	0.516522
880.000000	0.516168
881.000000	0.516072
882.000000	0.515976
883.000000	0.515859
884.000000	0.515690
885.000000	0.515634
886.000000	0.515493
887.000000	0.515226
888.000000	0.514965
889.000000	0.514921
890.000000	0.514862
891.000000	0.514770
892.000000	0.514507
893.000000	0.514282
894.000000	0.514320
895.000000	0.514156
896.000000	0.513927
897.000000	0.513759
898.000000	0.513735
899.000000	0.513642
900.000000	0.513508
901.000000	0.513350
902.000000	0.513361
903.000000	0.513244
904.000000	0.512967
905.000000	0.512505
906.000000	0.512509
907.000000	0.512516
908.000000	0.512380
909.000000	0.512052
910.000000	0.511716
911.000000	0.511414
912.000000	0.511182
913.000000	0.511053
914.000000	0.510834
915.000000	0.510651
916.000000	0.510578
917.000000	0.510392
918.000000	0.510246
919.000000	0.510206
920.000000	0.510101
921.000000	0.509960
922.000000	0.509753
923.000000	0.509404
924.000000	0.509136
925.000000	0.508840
926.000000	0.508557
927.000000	0.508459
928.000000	0.508197
929.000000	0.507811
930.000000	0.507483
931.000000	0.507314
932.000000	0.507108
933.000000	0.506874
934.000000	0.506684
935.000000	0.506374
936.000000	0.506067
937.000000	0.505730
938.000000	0.505416
939.000000	0.505168
940.000000	0.504951
941.000000	0.504916
942.000000	0.504528
943.000000	0.504333
944.000000	0.504380
945.000000	0.504313
946.000000	0.504037
947.000000	0.503731
948.000000	0.503481
949.000000	0.503022
950.000000	0.502743
951.000000	0.502581
952.000000	0.502244
953.000000	0.502057
954.000000	0.501793
955.000000	0.501255
956.000000	0.501059
957.000000	0.500924
958.000000	0.500600
959.000000	0.500156
960.000000	0.500135
961.000000	0.499923
962.000000	0.499392
963.000000	0.499166
964.000000	0.498975
965.000000	0.498691
966.000000	0.498188
967.000000	0.498169
968.000000	0.497940
969.000000	0.497333
970.000000	0.496726
971.000000	0.496450
972.000000	0.496358
973.000000	0.496215
974.000000	0.496069
975.000000	0.495970
976.000000	0.495765
977.000000	0.495396
978.000000	0.495220
979.000000	0.495271
980.000000	0.494996
981.000000	0.494524
982.000000	0.494308
983.000000	0.494044
984.000000	0.493861
985.000000	0.494094
986.000000	0.493897
987.000000	0.493760
988.000000	0.493809
989.000000	0.493483
990.000000	0.493079
991.000000	0.492846
992.000000	0.492961
993.000000	0.492902
994.000000	0.492750
995.000000	0.492639
996.000000	0.492171
997.000000	0.492483
998.000000	0.492530
999.000000	0.492104
1000.000000	0.492175
1001.000000	0.492435
1002.000000	0.492268
1003.000000	0.492106
1004.000000	0.491961
1005.000000	0.491810
1006.000000	0.491450
1007.000000	0.491153
1008.000000	0.490776
1009.000000	0.489955
1010.000000	0.489058
1011.000000	0.489393
1012.000000	0.489927
1013.000000	0.489793
1014.000000	0.489818
1015.000000	0.489901
1016.000000	0.489307
1017.000000	0.489020
1018.000000	0.489976
1019.000000	0.490471
1020.000000	0.491052
1021.000000	0.490793
1022.000000	0.490771
1023.000000	0.490844
1024.000000	0.489998
1025.000000	0.489994
1026.000000	0.490527
1027.000000	0.490262
1028.000000	0.489736
1029.000000	0.489500
1030.000000	0.489701
1031.000000	0.489600
1032.000000	0.489627
1033.000000	0.490636
1034.000000	0.491023
1035.000000	0.491160
1036.000000	0.491241
1037.000000	0.491188
1038.000000	0.490918
1039.000000	0.490545
1040.000000	0.490521
1041.000000	0.490389
1042.000000	0.490461
1043.000000	0.490853
1044.000000	0.491407
1045.000000	0.491432
1046.000000	0.490992
1047.000000	0.491212
1048.000000	0.491461
1049.000000	0.491557
1050.000000	0.492099
1051.000000	0.492419
1052.000000	0.492177
1053.000000	0.492056
1054.000000	0.492406
1055.000000	0.492677
1056.000000	0.492794
1057.000000	0.493174
1058.000000	0.493374
1059.000000	0.493515
1060.000000	0.493771
1061.000000	0.494032
1062.000000	0.494193
1063.000000	0.494659
1064.000000	0.494916
1065.000000	0.494898
1066.000000	0.494897
1067.000000	0.494663
1068.000000	0.494764
1069.000000	0.494982
1070.000000	0.495189
1071.000000	0.495921
1072.000000	0.496165
1073.000000	0.496146
1074.000000	0.496013
1075.000000	0.496197
1076.000000	0.496320
1077.000000	0.496163
1078.000000	0.496639
1079.000000	0.497033
1080.000000	0.497418
1081.000000	0.497761
1082.000000	0.498673
1083.000000	0.498970
1084.000000	0.498918
1085.000000	0.499025
1086.000000	0.498880
1087.000000	0.498871
1088.000000	0.498685
1089.000000	0.498683
1090.000000	0.498735
1091.000000	0.498910
1092.000000	0.499105
1093.000000	0.499171
1094.000000	0.499441
1095.000000	0.499689
1096.000000	0.499916
1097.000000	0.500312
1098.000000	0.500591
1099.000000	0.500576
1100.000000	0.500771
1101.000000	0.501106
1102.000000	0.501226
1103.000000	0.500982
1104.000000	0.501241
1105.000000	0.501907
1106.000000	0.502134
1107.000000	0.502188
1108.000000	0.502425
1109.000000	0.502670
1110.000000	0.502767
1111.000000	0.502692
1112.000000	0.502772
1113.000000	0.502798
1114.000000	0.502304
1115.000000	0.502384
1116.000000	0.502978
1117.000000	0.503294
1118.000000	0.503754
1119.000000	0.503789
1120.000000	0.503485
1121.000000	0.503445
1122.000000	0.503352
1123.000000	0.503648
1124.000000	0.504023
1125.000000	0.504308
1126.000000	0.504479
1127.000000	0.504562
1128.000000	0.504583
1129.000000	0.504614
1130.000000	0.504631
1131.000000	0.504603
1132.000000	0.504534
1133.000000	0.504524
1134.000000	0.504536
1135.000000	0.504450
1136.000000	0.504360
1137.000000	0.504291
1138.000000	0.504146
1139.000000	0.504086
1140.000000	0.504067
1141.000000	0.503830
1142.000000	0.503850
1143.000000	0.504022
1144.000000	0.504184
1145.000000	0.504345
1146.000000	0.504169
1147.000000	0.503924
1148.000000	0.503218
1149.000000	0.502891
1150.000000	0.502565
1151.000000	0.502460
1152.000000	0.502582
1153.000000	0.502433
1154.000000	0.502161
1155.000000	0.501937
1156.000000	0.501572
1157.000000	0.501334
1158.000000	0.501215
1159.000000	0.500996
1160.000000	0.500616
1161.000000	0.500353
1162.000000	0.500218
1163.000000	0.500281
1164.000000	0.499953
1165.000000	0.499746
1166.000000	0.499686
1167.000000	0.499481
1168.000000	0.499356
1169.000000	0.499565
1170.000000	0.499544
1171.000000	0.499425
1172.000000	0.499413
1173.000000	0.499399
1174.000000	0.499338
1175.000000	0.499243
1176.000000	0.499029
1177.000000	0.498775
1178.000000	0.498650
1179.000000	0.498513
1180.000000	0.498324
1181.000000	0.498361
1182.000000	0.498400
1183.000000	0.498157
1184.000000	0.497944
1185.000000	0.497796
1186.000000	0.497570
1187.000000	0.497384
1188.000000	0.497298
1189.000000	0.497153
1190.000000	0.497088
1191.000000	0.496886
1192.000000	0.496714
1193.000000	0.496799
1194.000000	0.496707
1195.000000	0.496684
1196.000000	0.496802
1197.000000	0.496835
1198.000000	0.496808
1199.000000	0.496775
1200.000000	0.496692
1201.000000	0.496750
1202.000000	0.496647
1203.000000	0.496540
1204.000000	0.496540
1205.000000	0.496522
1206.000000	0.496374
1207.000000	0.496327
1208.000000	0.496177
1209.000000	0.495963
1210.000000	0.495832
1211.000000	0.495709
1212.000000	0.495640
1213.000000	0.495720
1214.000000	0.495732
1215.000000	0.495756
1216.000000	0.495702
1217.000000	0.495470
1218.000000	0.495322
1219.000000	0.495187
1220.000000	0.495211
1221.000000	0.495176
1222.000000	0.495151
1223.000000	0.495156
1224.000000	0.495172
1225.000000	0.495146
1226.000000	0.495081
1227.000000	0.494922
1228.000000	0.494791
1229.000000	0.494685
1230.000000	0.494616
1231.000000	0.494427
1232.000000	0.494306
1233.000000	0.494463
1234.000000	0.494740
1235.000000	0.494812
1236.000000	0.494895
1237.000000	0.494962
1238.000000	0.494678
1239.000000	0.494586
1240.000000	0.494696
1241.000000	0.494624
1242.000000	0.494600
1243.000000	0.494552
1244.000000	0.494476
1245.000000	0.494689
1246.000000	0.494721
1247.000000	0.494894
1248.000000	0.495207
1249.000000	0.495241
1250.000000	0.495194
1251.000000	0.495161
1252.000000	0.495127
1253.000000	0.495047
1254.000000	0.495009
1255.000000	0.495022
1256.000000	0.495030
1257.000000	0.495072
1258.000000	0.495086
1259.000000	0.495026
1260.000000	0.495027
1261.000000	0.494874
1262.000000	0.494802
1263.000000	0.494828
1264.000000	0.494787
1265.000000	0.494899
1266.000000	0.494904
1267.000000	0.494861
1268.000000	0.494915
1269.000000	0.494848
1270.000000	0.494850
1271.000000	0.494778
1272.000000	0.494743
1273.000000	0.494817
1274.000000	0.494744
1275.000000	0.494710
1276.000000	0.494816
1277.000000	0.494931
1278.000000	0.494909
1279.000000	0.494856
1280.000000	0.494610
1281.000000	0.494525
1282.000000	0.494465
1283.000000	0.494653
1284.000000	0.495148
1285.000000	0.495325
1286.000000	0.495425
1287.000000	0.495393
1288.000000	0.495243
1289.000000	0.495168
1290.000000	0.495111
1291.000000	0.495029
1292.000000	0.494942
1293.000000	0.494801
1294.000000	0.494741
1295.000000	0.494718
1296.000000	0.494590
1297.000000	0.494579
1298.000000	0.494533
1299.000000	0.494416
1300.000000	0.494417
1301.000000	0.494250
1302.000000	0.494030
1303.000000	0.493909
1304.000000	0.493744
1305.000000	0.493654
1306.000000	0.493513
1307.000000	0.493458
1308.000000	0.493315
1309.000000	0.493209
1310.000000	0.492986
1311.000000	0.492711
1312.000000	0.492258
1313.000000	0.491858
1314.000000	0.491428
1315.000000	0.491167
1316.000000	0.491133
1317.000000	0.491095
1318.000000	0.490962
1319.000000	0.490647
1320.000000	0.490325
1321.000000	0.489966
1322.000000	0.489561
1323.000000	0.489200
1324.000000	0.488857
1325.000000	0.488516
1326.000000	0.488166
1327.000000	0.487695
1328.000000	0.487293
1329.000000	0.486837
1330.000000	0.486299
1331.000000	0.485885
1332.000000	0.485713
1333.000000	0.485326
1334.000000	0.484964
1335.000000	0.484617
1336.000000	0.484137
1337.000000	0.483736
1338.000000	0.483359
1339.000000	0.482848
1340.000000	0.482415
1341.000000	0.481875
1342.000000	0.481119
1343.000000	0.480581
1344.000000	0.480084
1345.000000	0.479530
1346.000000	0.479376
1347.000000	0.479107
1348.000000	0.478570
1349.000000	0.477891
1350.000000	0.477196
1351.000000	0.476433
1352.000000	0.475779
1353.000000	0.475269
1354.000000	0.474938
1355.000000	0.474464
1356.000000	0.473773
1357.000000	0.473104
1358.000000	0.472515
1359.000000	0.472064
1360.000000	0.471498
1361.000000	0.471090
1362.000000	0.470578
1363.000000	0.469809
1364.000000	0.469219
1365.000000	0.468816
1366.000000	0.468364
1367.000000	0.467901
1368.000000	0.467313
1369.000000	0.466987
1370.000000	0.466410
1371.000000	0.465709
1372.000000	0.465007
1373.000000	0.464099
1374.000000	0.463241
1375.000000	0.462460
1376.000000	0.461724
1377.000000	0.460777
1378.000000	0.459620
1379.000000	0.458313
1380.000000	0.456853
1381.000000	0.455320
1382.000000	0.453657
1383.000000	0.451871
1384.000000	0.449895
1385.000000	0.447941
1386.000000	0.446299
1387.000000	0.444642
1388.000000	0.442908
1389.000000	0.441227
1390.000000	0.439524
1391.000000	0.438130
1392.000000	0.437092
1393.000000	0.435989
1394.000000	0.435324
1395.000000	0.434243
1396.000000	0.432959
1397.000000	0.431572
1398.000000	0.429970
1399.000000	0.428364
1400.000000	0.426752
1401.000000	0.424885
1402.000000	0.422911
1403.000000	0.420900
1404.000000	0.418727
1405.000000	0.416402
1406.000000	0.414157
1407.000000	0.411811
1408.000000	0.409376
1409.000000	0.407121
1410.000000	0.404901
1411.000000	0.402520
1412.000000	0.400102
1413.000000	0.397790
1414.000000	0.395335
1415.000000	0.392964
1416.000000	0.390773
1417.000000	0.388466
1418.000000	0.386163
1419.000000	0.383934
1420.000000	0.381552
1421.000000	0.379287
1422.000000	0.377006
1423.000000	0.374833
1424.000000	0.372654
1425.000000	0.370493
1426.000000	0.368378
1427.000000	0.366350
1428.000000	0.364487
1429.000000	0.362678
1430.000000	0.360937
1431.000000	0.359325
1432.000000	0.357750
1433.000000	0.356280
1434.000000	0.354753
1435.000000	0.353386
1436.000000	0.351950
1437.000000	0.350371
1438.000000	0.348909
1439.000000	0.347602
1440.000000	0.346238
1441.000000	0.344852
1442.000000	0.343650
1443.000000	0.342486
1444.000000	0.341222
1445.000000	0.340121
1446.000000	0.339084
1447.000000	0.337896
1448.000000	0.336884
1449.000000	0.336003
1450.000000	0.335019
1451.000000	0.334121
1452.000000	0.333258
1453.000000	0.332350
1454.000000	0.331643
1455.000000	0.331092
1456.000000	0.330559
1457.000000	0.330189
1458.000000	0.329742
1459.000000	0.329235
1460.000000	0.328834
1461.000000	0.328319
1462.000000	0.327852
1463.000000	0.327403
1464.000000	0.326947
1465.000000	0.326703
1466.000000	0.326478
1467.000000	0.326310
1468.000000	0.326202
1469.000000	0.326069
1470.000000	0.325960
1471.000000	0.325935
1472.000000	0.325992
1473.000000	0.326290
1474.000000	0.326619
1475.000000	0.326941
1476.000000	0.327322
1477.000000	0.327738
1478.000000	0.328197
1479.000000	0.328721
1480.000000	0.329279
1481.000000	0.329818
1482.000000	0.330413
1483.000000	0.330979
1484.000000	0.331454
1485.000000	0.332157
1486.000000	0.332982
1487.000000	0.333747
1488.000000	0.334661
1489.000000	0.335502
1490.000000	0.336116
1491.000000	0.336852
1492.000000	0.337632
1493.000000	0.338372
1494.000000	0.339065
1495.000000	0.339716
1496.000000	0.340314
1497.000000	0.340972
1498.000000	0.341650
1499.000000	0.342295
1500.000000	0.343008
1501.000000	0.343723
1502.000000	0.344391
1503.000000	0.344984
1504.000000	0.345565
1505.000000	0.346153
1506.000000	0.346738
1507.000000	0.347368
1508.000000	0.348025
1509.000000	0.348568
1510.000000	0.349063
1511.000000	0.349540
1512.000000	0.349884
1513.000000	0.350290
1514.000000	0.350738
1515.000000	0.351171
1516.000000	0.351732
1517.000000	0.352103
1518.000000	0.352348
1519.000000	0.352483
1520.000000	0.352555
1521.000000	0.352695
1522.000000	0.352989
1523.000000	0.353430
1524.000000	0.353808
1525.000000	0.354172
1526.000000	0.354481
1527.000000	0.354621
1528.000000	0.354748
1529.000000	0.354963
1530.000000	0.355097
1531.000000	0.355373
1532.000000	0.355744
1533.000000	0.355858
1534.000000	0.356031
1535.000000	0.356243
1536.000000	0.356207
1537.000000	0.356408
1538.000000	0.356632
1539.000000	0.356575
1540.000000	0.356599
1541.000000	0.356719
1542.000000	0.356841
1543.000000	0.357070
1544.000000	0.357268
1545.000000	0.357416
1546.000000	0.357561
1547.000000	0.357598
1548.000000	0.357677
1549.000000	0.357778
1550.000000	0.357764
1551.000000	0.357802
1552.000000	0.357875
1553.000000	0.357943
1554.000000	0.357986
1555.000000	0.357972
1556.000000	0.357986
1557.000000	0.357914
1558.000000	0.357941
1559.000000	0.358027
1560.000000	0.357978
1561.000000	0.357931
1562.000000	0.357855
1563.000000	0.357676
1564.000000	0.357617
1565.000000	0.357708
1566.000000	0.357556
1567.000000	0.357405
1568.000000	0.357298
1569.000000	0.357095
1570.000000	0.357026
1571.000000	0.357103
1572.000000	0.357116
1573.000000	0.357199
1574.000000	0.357205
1575.000000	0.357174
1576.000000	0.357150
1577.000000	0.357093
1578.000000	0.357008
1579.000000	0.356930
1580.000000	0.356955
1581.000000	0.357047
1582.000000	0.357090
1583.000000	0.357268
1584.000000	0.357232
1585.000000	0.357122
1586.000000	0.357145
1587.000000	0.357116
1588.000000	0.357138
1589.000000	0.357319
1590.000000	0.357373
1591.000000	0.357387
1592.000000	0.357413
1593.000000	0.357411
1594.000000	0.357440
1595.000000	0.357535
1596.000000	0.357631
1597.000000	0.357823
1598.000000	0.357882
1599.000000	0.357916
1600.000000	0.357909
1601.000000	0.357874
1602.000000	0.357913
1603.000000	0.358005
1604.000000	0.358084
1605.000000	0.358269
1606.000000	0.358347
1607.000000	0.358396
1608.000000	0.358511
1609.000000	0.358655
1610.000000	0.358801
1611.000000	0.359059
1612.000000	0.359205
1613.000000	0.359429
1614.000000	0.359566
1615.000000	0.359633
1616.000000	0.359837
1617.000000	0.359968
1618.000000	0.360210
1619.000000	0.360644
1620.000000	0.360932
1621.000000	0.361171
1622.000000	0.361533
1623.000000	0.361842
1624.000000	0.362180
1625.000000	0.362510
1626.000000	0.362774
1627.000000	0.362995
1628.000000	0.363253
1629.000000	0.363457
1630.000000	0.363781
1631.000000	0.364116
1632.000000	0.364385
1633.000000	0.364662
1634.000000	0.365043
1635.000000	0.365430
1636.000000	0.365894
1637.000000	0.366609
1638.000000	0.367037
1639.000000	0.367402
1640.000000	0.367791
1641.000000	0.368145
1642.000000	0.368548
1643.000000	0.369049
1644.000000	0.369453
1645.000000	0.369778
1646.000000	0.370138
1647.000000	0.370585
1648.000000	0.370897
1649.000000	0.371184
1650.000000	0.371646
1651.000000	0.372183
1652.000000	0.372717
1653.000000	0.373390
1654.000000	0.373927
1655.000000	0.374255
1656.000000	0.374512
1657.000000	0.374792
1658.000000	0.375151
1659.000000	0.375589
1660.000000	0.376030
1661.000000	0.376469
1662.000000	0.376885
1663.000000	0.377174
1664.000000	0.377595
1665.000000	0.378160
1666.000000	0.378658
1667.000000	0.379038
1668.000000	0.379447
1669.000000	0.379776
1670.000000	0.380126
1671.000000	0.380697
1672.000000	0.381033
1673.000000	0.381176
1674.000000	0.381623
1675.000000	0.381976
1676.000000	0.382408
1677.000000	0.382920
1678.000000	0.383195
1679.000000	0.383496
1680.000000	0.383925
1681.000000	0.384307
1682.000000	0.384631
1683.000000	0.384869
1684.000000	0.384875
1685.000000	0.384980
1686.000000	0.385300
1687.000000	0.385635
1688.000000	0.385996
1689.000000	0.386302
1690.000000	0.386345
1691.000000	0.386493
1692.000000	0.386721
1693.000000	0.387075
1694.000000	0.387389
1695.000000	0.387588
1696.000000	0.387757
1697.000000	0.387863
1698.000000	0.387928
1699.000000	0.388143
1700.000000	0.388441
1701.000000	0.388759
1702.000000	0.389027
1703.000000	0.389179
1704.000000	0.389271
1705.000000	0.389421
1706.000000	0.389588
1707.000000	0.389797
1708.000000	0.390077
1709.000000	0.390192
1710.000000	0.390300
1711.000000	0.390535
1712.000000	0.390796
1713.000000	0.391023
1714.000000	0.391468
1715.000000	0.391732
1716.000000	0.391853
1717.000000	0.392012
1718.000000	0.392021
1719.000000	0.392185
1720.000000	0.392488
1721.000000	0.392746
1722.000000	0.393105
1723.000000	0.393417
1724.000000	0.393699
1725.000000	0.394041
1726.000000	0.394312
1727.000000	0.394613
1728.000000	0.394881
1729.000000	0.395059
1730.000000	0.395352
1731.000000	0.395641
1732.000000	0.395905
1733.000000	0.396270
1734.000000	0.396568
1735.000000	0.396839
1736.000000	0.397063
1737.000000	0.397273
1738.000000	0.397443
1739.000000	0.397726
1740.000000	0.398036
1741.000000	0.398296
1742.000000	0.398614
1743.000000	0.398961
1744.000000	0.399252
1745.000000	0.399521
1746.000000	0.399832
1747.000000	0.400082
1748.000000	0.400218
1749.000000	0.400273
1750.000000	0.400362
1751.000000	0.400549
1752.000000	0.400839
1753.000000	0.400983
1754.000000	0.401286
1755.000000	0.401717
1756.000000	0.401991
1757.000000	0.402350
1758.000000	0.402609
1759.000000	0.402543
1760.000000	0.402710
1761.000000	0.402908
1762.000000	0.403174
1763.000000	0.403718
1764.000000	0.404002
1765.000000	0.404112
1766.000000	0.404314
1767.000000	0.404291
1768.000000	0.404354
1769.000000	0.404644
1770.000000	0.404923
1771.000000	0.405206
1772.000000	0.405322
1773.000000	0.405271
1774.000000	0.405379
1775.000000	0.405527
1776.000000	0.405603
1777.000000	0.405773
1778.000000	0.405775
1779.000000	0.405419
1780.000000	0.405588
1781.000000	0.405894
1782.000000	0.406315
1783.000000	0.407218
1784.000000	0.407485
1785.000000	0.407568
1786.000000	0.407708
1787.000000	0.407860
1788.000000	0.408082
1789.000000	0.408462
1790.000000	0.408750
1791.000000	0.409002
1792.000000	0.409567
1793.000000	0.409943
1794.000000	0.410203
1795.000000	0.410460
1796.000000	0.410460
1797.000000	0.410711
1798.000000	0.411147
1799.000000	0.411449
1800.000000	0.411979
1801.000000	0.411520
1802.000000	0.411742
1803.000000	0.411313
1804.000000	0.411610
1805.000000	0.412072
1806.000000	0.412766
1807.000000	0.413806
1808.000000	0.414707
1809.000000	0.416018
1810.000000	0.417028
1811.000000	0.417460
1812.000000	0.417938
1813.000000	0.417418
1814.000000	0.415232
1815.000000	0.414822
1816.000000	0.414370
1817.000000	0.414350
1818.000000	0.415376
1819.000000	0.416976
1820.000000	0.417766
1821.000000	0.418101
1822.000000	0.418382
1823.000000	0.418249
1824.000000	0.418106
1825.000000	0.417680
1826.000000	0.417486
1827.000000	0.416721
1828.000000	0.416945
1829.000000	0.417182
1830.000000	0.416875
1831.000000	0.416660
1832.000000	0.416417
1833.000000	0.415983
1834.000000	0.415111
1835.000000	0.414781
1836.000000	0.414610
1837.000000	0.414389
1838.000000	0.414361
1839.000000	0.414356
1840.000000	0.413299
1841.000000	0.412406
1842.000000	0.411564
1843.000000	0.410095
1844.000000	0.409405
1845.000000	0.409444
1846.000000	0.408913
1847.000000	0.408091
1848.000000	0.407379
1849.000000	0.406729
1850.000000	0.405252
1851.000000	0.404500
1852.000000	0.404295
1853.000000	0.403577
1854.000000	0.402610
1855.000000	0.401636
1856.000000	0.400669
1857.000000	0.398957
1858.000000	0.396924
1859.000000	0.394953
1860.000000	0.392554
1861.000000	0.389442
1862.000000	0.387195
1863.000000	0.385787
1864.000000	0.383746
1865.000000	0.381946
1866.000000	0.379815
1867.000000	0.377540
1868.000000	0.374408
1869.000000	0.370897
1870.000000	0.367324
1871.000000	0.364550
1872.000000	0.361134
1873.000000	0.357934
1874.000000	0.355688
1875.000000	0.352408
1876.000000	0.348103
1877.000000	0.343991
1878.000000	0.339494
1879.000000	0.334405
1880.000000	0.329630
1881.000000	0.324586
1882.000000	0.319572
1883.000000	0.314649
1884.000000	0.309713
1885.000000	0.304782
1886.000000	0.299182
1887.000000	0.293315
1888.000000	0.287066
1889.000000	0.280377
1890.000000	0.274317
1891.000000	0.268832
1892.000000	0.263592
1893.000000	0.257794
1894.000000	0.251899
1895.000000	0.246211
1896.000000	0.240471
1897.000000	0.234723
1898.000000	0.229943
1899.000000	0.225359
1900.000000	0.220388
1901.000000	0.215744
1902.000000	0.210625
1903.000000	0.205421
1904.000000	0.200995
1905.000000	0.196477
1906.000000	0.192015
1907.000000	0.187754
1908.000000	0.183855
1909.000000	0.179944
1910.000000	0.176600
1911.000000	0.174002
1912.000000	0.170786
1913.000000	0.166984
1914.000000	0.163905
1915.000000	0.160641
1916.000000	0.158022
1917.000000	0.155661
1918.000000	0.154428
1919.000000	0.151996
1920.000000	0.149197
1921.000000	0.147337
1922.000000	0.145559
1923.000000	0.143686
1924.000000	0.142872
1925.000000	0.142170
1926.000000	0.141466
1927.000000	0.141545
1928.000000	0.141534
1929.000000	0.141872
1930.000000	0.141918
1931.000000	0.141773
1932.000000	0.141982
1933.000000	0.141961
1934.000000	0.141386
1935.000000	0.141301
1936.000000	0.141614
1937.000000	0.141373
1938.000000	0.141129
1939.000000	0.141021
1940.000000	0.140997
1941.000000	0.140117
1942.000000	0.139712
1943.000000	0.139629
1944.000000	0.138899
1945.000000	0.138300
1946.000000	0.137628
1947.000000	0.137218
1948.000000	0.137036
1949.000000	0.136708
1950.000000	0.136634
1951.000000	0.136313
1952.000000	0.135904
1953.000000	0.135161
1954.000000	0.134606
1955.000000	0.134419
1956.000000	0.134171
1957.000000	0.134037
1958.000000	0.133704
1959.000000	0.132781
1960.000000	0.131650
1961.000000	0.130575
1962.000000	0.129910
1963.000000	0.129402
1964.000000	0.129483
1965.000000	0.129971
1966.000000	0.130444
1967.000000	0.130586
1968.000000	0.130262
1969.000000	0.129907
1970.000000	0.129601
1971.000000	0.129513
1972.000000	0.129541
1973.000000	0.129466
1974.000000	0.129240
1975.000000	0.129209
1976.000000	0.129203
1977.000000	0.129433
1978.000000	0.129934
1979.000000	0.130336
1980.000000	0.131081
1981.000000	0.132443
1982.000000	0.132999
1983.000000	0.133448
1984.000000	0.133777
1985.000000	0.133398
1986.000000	0.133545
1987.000000	0.133875
1988.000000	0.134408
1989.000000	0.135181
1990.000000	0.136128
1991.000000	0.136902
1992.000000	0.137892
1993.000000	0.138599
1994.000000	0.139019
1995.000000	0.139696
1996.000000	0.140293
1997.000000	0.140880
1998.000000	0.141558
1999.000000	0.142375
2000.000000	0.143082
2001.000000	0.143932
2002.000000	0.145235
2003.000000	0.146948
2004.000000	0.148878
2005.000000	0.150509
2006.000000	0.152162
2007.000000	0.153362
2008.000000	0.154605
2009.000000	0.155604
2010.000000	0.156708
2011.000000	0.157903
2012.000000	0.158955
2013.000000	0.159632
2014.000000	0.160624
2015.000000	0.161954
2016.000000	0.162836
2017.000000	0.164352
2018.000000	0.165419
2019.000000	0.166488
2020.000000	0.167905
2021.000000	0.169203
2022.000000	0.170482
2023.000000	0.171918
2024.000000	0.173442
2025.000000	0.174835
2026.000000	0.176027
2027.000000	0.177713
2028.000000	0.178865
2029.000000	0.180530
2030.000000	0.182339
2031.000000	0.183314
2032.000000	0.184610
2033.000000	0.185899
2034.000000	0.187274
2035.000000	0.188854
2036.000000	0.190327
2037.000000	0.192052
2038.000000	0.193504
2039.000000	0.195008
2040.000000	0.195986
2041.000000	0.197002
2042.000000	0.197891
2043.000000	0.198583
2044.000000	0.199325
2045.000000	0.200087
2046.000000	0.200919
2047.000000	0.202013
2048.000000	0.203409
2049.000000	0.204773
2050.000000	0.206139
2051.000000	0.207394
2052.000000	0.208344
2053.000000	0.209290
2054.000000	0.210505
2055.000000	0.211675
2056.000000	0.212103
2057.000000	0.213601
2058.000000	0.215044
2059.000000	0.215802
2060.000000	0.216897
2061.000000	0.218047
2062.000000	0.219360
2063.000000	0.221220
2064.000000	0.222345
2065.000000	0.223468
2066.000000	0.224400
2067.000000	0.225013
2068.000000	0.225417
2069.000000	0.226471
2070.000000	0.227649
2071.000000	0.228675
2072.000000	0.229166
2073.000000	0.229501
2074.000000	0.230315
2075.000000	0.231461
2076.000000	0.233007
2077.000000	0.234542
2078.000000	0.236516
2079.000000	0.238121
2080.000000	0.239962
2081.000000	0.241280
2082.000000	0.242322
2083.000000	0.243168
2084.000000	0.243545
2085.000000	0.244077
2086.000000	0.245019
2087.000000	0.245975
2088.000000	0.247254
2089.000000	0.249033
2090.000000	0.250651
2091.000000	0.252387
2092.000000	0.254212
2093.000000	0.256328
2094.000000	0.257790
2095.000000	0.259328
2096.000000	0.260611
2097.000000	0.261223
2098.000000	0.261964
2099.000000	0.263111
2100.000000	0.263444
2101.000000	0.264445
2102.000000	0.265556
2103.000000	0.266251
2104.000000	0.267169
2105.000000	0.267937
2106.000000	0.268466
2107.000000	0.269180
2108.000000	0.269843
2109.000000	0.270768
2110.000000	0.271349
2111.000000	0.272447
2112.000000	0.273938
2113.000000	0.275573
2114.000000	0.276903
2115.000000	0.278168
2116.000000	0.279165
2117.000000	0.279677
2118.000000	0.280619
2119.000000	0.281493
2120.000000	0.281988
2121.000000	0.282075
2122.000000	0.282576
2123.000000	0.283208
2124.000000	0.283413
2125.000000	0.283654
2126.000000	0.283822
2127.000000	0.282970
2128.000000	0.283138
2129.000000	0.284175
2130.000000	0.284698
2131.000000	0.285211
2132.000000	0.286690
2133.000000	0.287335
2134.000000	0.288362
2135.000000	0.288906
2136.000000	0.288531
2137.000000	0.288882
2138.000000	0.289328
2139.000000	0.289485
2140.000000	0.289995
2141.000000	0.290232
2142.000000	0.289488
2143.000000	0.289515
2144.000000	0.290493
2145.000000	0.290863
2146.000000	0.291056
2147.000000	0.291971
2148.000000	0.292501
2149.000000	0.293406
2150.000000	0.294661
2151.000000	0.295359
2152.000000	0.295482
2153.000000	0.295104
2154.000000	0.294784
2155.000000	0.294104
2156.000000	0.293891
2157.000000	0.293648
2158.000000	0.293759
2159.000000	0.294095
2160.000000	0.294766
2161.000000	0.296047
2162.000000	0.296917
2163.000000	0.298630
2164.000000	0.298855
2165.000000	0.297518
2166.000000	0.296795
2167.000000	0.296330
2168.000000	0.295814
2169.000000	0.296884
2170.000000	0.298187
2171.000000	0.298848
2172.000000	0.299325
2173.000000	0.299527
2174.000000	0.299292
2175.000000	0.299308
2176.000000	0.299422
2177.000000	0.299250
2178.000000	0.298799
2179.000000	0.298730
2180.000000	0.298288
2181.000000	0.298447
2182.000000	0.298513
2183.000000	0.299172
2184.000000	0.299983
2185.000000	0.299790
2186.000000	0.298906
2187.000000	0.298904
2188.000000	0.298060
2189.000000	0.296742
2190.000000	0.296639
2191.000000	0.297100
2192.000000	0.297222
2193.000000	0.298137
2194.000000	0.297799
2195.000000	0.295849
2196.000000	0.295383
2197.000000	0.294625
2198.000000	0.295018
2199.000000	0.298076
2200.000000	0.299876
2201.000000	0.301740
2202.000000	0.302832
2203.000000	0.303614
2204.000000	0.302451
2205.000000	0.300999
2206.000000	0.300489
2207.000000	0.297745
2208.000000	0.297053
2209.000000	0.297215
2210.000000	0.296332
2211.000000	0.298453
2212.000000	0.299761
2213.000000	0.300293
2214.000000	0.299650
2215.000000	0.300480
2216.000000	0.301411
2217.000000	0.303153
2218.000000	0.307718
2219.000000	0.308901
2220.000000	0.307322
2221.000000	0.307067
2222.000000	0.306009
2223.000000	0.304890
2224.000000	0.303642
2225.000000	0.305033
2226.000000	0.303508
2227.000000	0.301618
2228.000000	0.301046
2229.000000	0.300584
2230.000000	0.300821
2231.000000	0.301618
2232.000000	0.302631
2233.000000	0.303634
2234.000000	0.305068
2235.000000	0.307459
2236.000000	0.308164
2237.000000	0.308630
2238.000000	0.308221
2239.000000	0.305229
2240.000000	0.304653
2241.000000	0.305875
2242.000000	0.304850
2243.000000	0.303025
2244.000000	0.302720
2245.000000	0.302116
2246.000000	0.301470
2247.000000	0.301371
2248.000000	0.301461
2249.000000	0.301547
2250.000000	0.300356
2251.000000	0.300760
2252.000000	0.304453
2253.000000	0.303523
2254.000000	0.301126
2255.000000	0.300465
2256.000000	0.299447
2257.000000	0.299806
2258.000000	0.300793
2259.000000	0.300934
2260.000000	0.300338
2261.000000	0.300348
2262.000000	0.301771
2263.000000	0.300962
2264.000000	0.299160
2265.000000	0.297142
2266.000000	0.292894
2267.000000	0.291244
2268.000000	0.290413
2269.000000	0.290362
2270.000000	0.292415
2271.000000	0.292570
2272.000000	0.292627
2273.000000	0.292678
2274.000000	0.291277
2275.000000	0.290728
2276.000000	0.291406
2277.000000	0.290731
2278.000000	0.288261
2279.000000	0.287214
2280.000000	0.285626
2281.000000	0.284229
2282.000000	0.284163
2283.000000	0.284030
2284.000000	0.284024
2285.000000	0.281304
2286.000000	0.278978
2287.000000	0.278039
2288.000000	0.277375
2289.000000	0.278793
2290.000000	0.277718
2291.000000	0.275953
2292.000000	0.274038
2293.000000	0.270346
2294.000000	0.268539
2295.000000	0.268070
2296.000000	0.267424
2297.000000	0.267797
2298.000000	0.266919
2299.000000	0.265944
2300.000000	0.264757
2301.000000	0.261823
2302.000000	0.260833
2303.000000	0.261260
2304.000000	0.260554
2305.000000	0.260861
2306.000000	0.259587
2307.000000	0.256503
2308.000000	0.254473
2309.000000	0.252374
2310.000000	0.250883
2311.000000	0.249346
2312.000000	0.247447
2313.000000	0.245546
2314.000000	0.243130
2315.000000	0.241419
2316.000000	0.240093
2317.000000	0.241178
2318.000000	0.242722
2319.000000	0.244490
2320.000000	0.245342
2321.000000	0.244180
2322.000000	0.243015
2323.000000	0.242426
2324.000000	0.244027
2325.000000	0.245148
2326.000000	0.243637
2327.000000	0.240491
2328.000000	0.237511
2329.000000	0.235496
2330.000000	0.233447
2331.000000	0.232334
2332.000000	0.231615
2333.000000	0.228921
2334.000000	0.227530
2335.000000	0.226359
2336.000000	0.224710
2337.000000	0.224226
2338.000000	0.224622
2339.000000	0.223269
2340.000000	0.222330
2341.000000	0.220730
2342.000000	0.217799
2343.000000	0.216456
2344.000000	0.216148
2345.000000	0.214299
2346.000000	0.212028
2347.000000	0.209319
2348.000000	0.205502
2349.000000	0.202532
2350.000000	0.199483
2351.000000	0.198715
2352.000000	0.198439
2353.000000	0.199200
2354.000000	0.200961
2355.000000	0.199416
2356.000000	0.198759
2357.000000	0.196419
2358.000000	0.190842
2359.000000	0.187810
2360.000000	0.184850
2361.000000	0.180440
2362.000000	0.180920
2363.000000	0.180519
2364.000000	0.175882
2365.000000	0.176211
2366.000000	0.174775
2367.000000	0.172995
2368.000000	0.176456
2369.000000	0.175859
2370.000000	0.172511
2371.000000	0.170123
2372.000000	0.167482
2373.000000	0.166812
2374.000000	0.168204
2375.000000	0.170452
2376.000000	0.174532
2377.000000	0.173164
2378.000000	0.168662
2379.000000	0.167583
2380.000000	0.158231
2381.000000	0.153217
2382.000000	0.156282
2383.000000	0.155277
2384.000000	0.157380
2385.000000	0.156668
2386.000000	0.154284
2387.000000	0.156485
2388.000000	0.153173
2389.000000	0.149294
2390.000000	0.150449
2391.000000	0.149166
2392.000000	0.151539
2393.000000	0.160440
2394.000000	0.161369
2395.000000	0.150528
2396.000000	0.138692
2397.000000	0.126500
2398.000000	0.121791
2399.000000	0.130844
2400.000000	0.139801
2401.000000	0.144511
2402.000000	0.146169
2403.000000	0.140245
2404.000000	0.132565
2405.000000	0.137074
2406.000000	0.144927
2407.000000	0.142120
2408.000000	0.143732
2409.000000	0.146107
2410.000000	0.131766
2411.000000	0.122476
2412.000000	0.119771
2413.000000	0.115222
2414.000000	0.122742
2415.000000	0.130641
2416.000000	0.137349
2417.000000	0.142442
2418.000000	0.137646
2419.000000	0.139332
2420.000000	0.143918
2421.000000	0.138032
2422.000000	0.131840
2423.000000	0.125744
2424.000000	0.116944
2425.000000	0.121374
2426.000000	0.134199
2427.000000	0.146955
2428.000000	0.154197
2429.000000	0.151068
2430.000000	0.146317
2431.000000	0.137570
2432.000000	0.136904
2433.000000	0.142039
2434.000000	0.138494
2435.000000	0.136747
2436.000000	0.127305
2437.000000	0.120317
2438.000000	0.122176
2439.000000	0.117049
2440.000000	0.118190
2441.000000	0.123695
2442.000000	0.126142
2443.000000	0.129531
2444.000000	0.131912
2445.000000	0.134547
2446.000000	0.132298
2447.000000	0.130664
2448.000000	0.133397
2449.000000	0.130087
2450.000000	0.119783
2451.000000	0.122150
2452.000000	0.134658
2453.000000	0.134614
2454.000000	0.142815
2455.000000	0.147298
2456.000000	0.137607
2457.000000	0.141610
2458.000000	0.135208
2459.000000	0.124155
2460.000000	0.128359
2461.000000	0.128366
2462.000000	0.136510
2463.000000	0.150619
2464.000000	0.156695
2465.000000	0.147098
2466.000000	0.135248
2467.000000	0.134705
2468.000000	0.127677
2469.000000	0.137337
2470.000000	0.146567
2471.000000	0.130016
2472.000000	0.121392
2473.000000	0.109521
2474.000000	0.099552
2475.000000	0.106219
2476.000000	0.078383
2477.000000	0.047620
2478.000000	0.061192
2479.000000	0.060881
2480.000000	0.081247
2481.000000	0.111248
2482.000000	0.105691
2483.000000	0.110561
2484.000000	0.107638
2485.000000	0.099286
2486.000000	0.086790
2487.000000	0.078127
2488.000000	0.096923
2489.000000	0.099157
2490.000000	0.083133
2491.000000	0.049798
2492.000000	0.027848
2493.000000	0.012692
2494.000000	0.013214
2495.000000	0.029435
2496.000000	0.032598
2497.000000	0.053558
2498.000000	0.077156
2499.000000	0.080317
2500.000000	0.104121
