# Wavelength	SM1200H-20_FV7-80_00000.asd.rts.txt
350.000000	0.233027
351.000000	0.222497
352.000000	0.222705
353.000000	0.223199
354.000000	0.220745
355.000000	0.219192
356.000000	0.221294
357.000000	0.226946
358.000000	0.230628
359.000000	0.227102
360.000000	0.221475
361.000000	0.220170
362.000000	0.222958
363.000000	0.226916
364.000000	0.229315
365.000000	0.230302
366.000000	0.228699
367.000000	0.225836
368.000000	0.225917
369.000000	0.227259
370.000000	0.228808
371.000000	0.229740
372.000000	0.230649
373.000000	0.231368
374.000000	0.232456
375.000000	0.235111
376.000000	0.235284
377.000000	0.233495
378.000000	0.235010
379.000000	0.236797
380.000000	0.236683
381.000000	0.234268
382.000000	0.234777
383.000000	0.236668
384.000000	0.237922
385.000000	0.236251
386.000000	0.235593
387.000000	0.236982
388.000000	0.238202
389.000000	0.238588
390.000000	0.239020
391.000000	0.240486
392.000000	0.240609
393.000000	0.240548
394.000000	0.241341
395.000000	0.242149
396.000000	0.242652
397.000000	0.242707
398.000000	0.242313
399.000000	0.242881
400.000000	0.243789
401.000000	0.243469
402.000000	0.243402
403.000000	0.243763
404.000000	0.244485
405.000000	0.244809
406.000000	0.245286
407.000000	0.246049
408.000000	0.246312
409.000000	0.246500
410.000000	0.246730
411.000000	0.246938
412.000000	0.247490
413.000000	0.248029
414.000000	0.248195
415.000000	0.248444
416.000000	0.248754
417.000000	0.249050
418.000000	0.249201
419.000000	0.249334
420.000000	0.249569
421.000000	0.250037
422.000000	0.250475
423.000000	0.250811
424.000000	0.251103
425.000000	0.251127
426.000000	0.251274
427.000000	0.251737
428.000000	0.252007
429.000000	0.252258
430.000000	0.252559
431.000000	0.252822
432.000000	0.253081
433.000000	0.253325
434.000000	0.253622
435.000000	0.253779
436.000000	0.253792
437.000000	0.253756
438.000000	0.254161
439.000000	0.254551
440.000000	0.254743
441.000000	0.254770
442.000000	0.254734
443.000000	0.254822
444.000000	0.255466
445.000000	0.255580
446.000000	0.255596
447.000000	0.256041
448.000000	0.256234
449.000000	0.256382
450.000000	0.256677
451.000000	0.256991
452.000000	0.257312
453.000000	0.257562
454.000000	0.257819
455.000000	0.257855
456.000000	0.258004
457.000000	0.258581
458.000000	0.258859
459.000000	0.258968
460.000000	0.259189
461.000000	0.259469
462.000000	0.259780
463.000000	0.259976
464.000000	0.260240
465.000000	0.260446
466.000000	0.260566
467.000000	0.260774
468.000000	0.261059
469.000000	0.261247
470.000000	0.261353
471.000000	0.261610
472.000000	0.261852
473.000000	0.262003
474.000000	0.262206
475.000000	0.262358
476.000000	0.262549
477.000000	0.262714
478.000000	0.262795
479.000000	0.263033
480.000000	0.263398
481.000000	0.263635
482.000000	0.263893
483.000000	0.264112
484.000000	0.264334
485.000000	0.264479
486.000000	0.264696
487.000000	0.264936
488.000000	0.265189
489.000000	0.265475
490.000000	0.265815
491.000000	0.266064
492.000000	0.266328
493.000000	0.266616
494.000000	0.266859
495.000000	0.267110
496.000000	0.267363
497.000000	0.267599
498.000000	0.267824
499.000000	0.268102
500.000000	0.268375
501.000000	0.268595
502.000000	0.268836
503.000000	0.269138
504.000000	0.269443
505.000000	0.269737
506.000000	0.270007
507.000000	0.270168
508.000000	0.270363
509.000000	0.270622
510.000000	0.270887
511.000000	0.271159
512.000000	0.271463
513.000000	0.271783
514.000000	0.272185
515.000000	0.272601
516.000000	0.272873
517.000000	0.273161
518.000000	0.273477
519.000000	0.273731
520.000000	0.273980
521.000000	0.274232
522.000000	0.274482
523.000000	0.274684
524.000000	0.274918
525.000000	0.275182
526.000000	0.275475
527.000000	0.275770
528.000000	0.276020
529.000000	0.276248
530.000000	0.276494
531.000000	0.276812
532.000000	0.277122
533.000000	0.277379
534.000000	0.277630
535.000000	0.277878
536.000000	0.278120
537.000000	0.278388
538.000000	0.278682
539.000000	0.278974
540.000000	0.279240
541.000000	0.279496
542.000000	0.279787
543.000000	0.280033
544.000000	0.280277
545.000000	0.280485
546.000000	0.280711
547.000000	0.280974
548.000000	0.281284
549.000000	0.281536
550.000000	0.281803
551.000000	0.282123
552.000000	0.282463
553.000000	0.282805
554.000000	0.283132
555.000000	0.283444
556.000000	0.283756
557.000000	0.284041
558.000000	0.284400
559.000000	0.284722
560.000000	0.285003
561.000000	0.285341
562.000000	0.285728
563.000000	0.286019
564.000000	0.286281
565.000000	0.286512
566.000000	0.286846
567.000000	0.287190
568.000000	0.287472
569.000000	0.287804
570.000000	0.288097
571.000000	0.288340
572.000000	0.288609
573.000000	0.288894
574.000000	0.289179
575.000000	0.289500
576.000000	0.289816
577.000000	0.290064
578.000000	0.290295
579.000000	0.290656
580.000000	0.291019
581.000000	0.291324
582.000000	0.291633
583.000000	0.291916
584.000000	0.292189
585.000000	0.292497
586.000000	0.292809
587.000000	0.293084
588.000000	0.293298
589.000000	0.293568
590.000000	0.293820
591.000000	0.294015
592.000000	0.294237
593.000000	0.294449
594.000000	0.294644
595.000000	0.294851
596.000000	0.295029
597.000000	0.295236
598.000000	0.295460
599.000000	0.295680
600.000000	0.295932
601.000000	0.296164
602.000000	0.296386
603.000000	0.296599
604.000000	0.296815
605.000000	0.297042
606.000000	0.297255
607.000000	0.297468
608.000000	0.297723
609.000000	0.297960
610.000000	0.298144
611.000000	0.298258
612.000000	0.298385
613.000000	0.298534
614.000000	0.298722
615.000000	0.298863
616.000000	0.298970
617.000000	0.299032
618.000000	0.299122
619.000000	0.299178
620.000000	0.299188
621.000000	0.299224
622.000000	0.299309
623.000000	0.299403
624.000000	0.299474
625.000000	0.299583
626.000000	0.299691
627.000000	0.299790
628.000000	0.299927
629.000000	0.300108
630.000000	0.300206
631.000000	0.300310
632.000000	0.300421
633.000000	0.300556
634.000000	0.300714
635.000000	0.300904
636.000000	0.301080
637.000000	0.301222
638.000000	0.301450
639.000000	0.301657
640.000000	0.301869
641.000000	0.302054
642.000000	0.302225
643.000000	0.302387
644.000000	0.302538
645.000000	0.302643
646.000000	0.302732
647.000000	0.302819
648.000000	0.302955
649.000000	0.303150
650.000000	0.303358
651.000000	0.303523
652.000000	0.303669
653.000000	0.303832
654.000000	0.303968
655.000000	0.304136
656.000000	0.304307
657.000000	0.304406
658.000000	0.304571
659.000000	0.304778
660.000000	0.304969
661.000000	0.305089
662.000000	0.305205
663.000000	0.305377
664.000000	0.305556
665.000000	0.305696
666.000000	0.305807
667.000000	0.305887
668.000000	0.306009
669.000000	0.306141
670.000000	0.306267
671.000000	0.306406
672.000000	0.306565
673.000000	0.306731
674.000000	0.306898
675.000000	0.307004
676.000000	0.307092
677.000000	0.307241
678.000000	0.307374
679.000000	0.307507
680.000000	0.307668
681.000000	0.307855
682.000000	0.308096
683.000000	0.308297
684.000000	0.308465
685.000000	0.308597
686.000000	0.308717
687.000000	0.308798
688.000000	0.308882
689.000000	0.308953
690.000000	0.309041
691.000000	0.309194
692.000000	0.309345
693.000000	0.309535
694.000000	0.309754
695.000000	0.309970
696.000000	0.310164
697.000000	0.310330
698.000000	0.310480
699.000000	0.310616
700.000000	0.310739
701.000000	0.310813
702.000000	0.310918
703.000000	0.311063
704.000000	0.311208
705.000000	0.311381
706.000000	0.311532
707.000000	0.311681
708.000000	0.311864
709.000000	0.312026
710.000000	0.312143
711.000000	0.312260
712.000000	0.312384
713.000000	0.312544
714.000000	0.312741
715.000000	0.312898
716.000000	0.313015
717.000000	0.313105
718.000000	0.313219
719.000000	0.313327
720.000000	0.313414
721.000000	0.313520
722.000000	0.313598
723.000000	0.313699
724.000000	0.313813
725.000000	0.313940
726.000000	0.314114
727.000000	0.314214
728.000000	0.314325
729.000000	0.314458
730.000000	0.314557
731.000000	0.314662
732.000000	0.314758
733.000000	0.314868
734.000000	0.314949
735.000000	0.314983
736.000000	0.315074
737.000000	0.315118
738.000000	0.315125
739.000000	0.315197
740.000000	0.315242
741.000000	0.315383
742.000000	0.315520
743.000000	0.315598
744.000000	0.315690
745.000000	0.315741
746.000000	0.315814
747.000000	0.315897
748.000000	0.315989
749.000000	0.316086
750.000000	0.316156
751.000000	0.316227
752.000000	0.316306
753.000000	0.316392
754.000000	0.316450
755.000000	0.316491
756.000000	0.316541
757.000000	0.316575
758.000000	0.316601
759.000000	0.316649
760.000000	0.316670
761.000000	0.316729
762.000000	0.316797
763.000000	0.316872
764.000000	0.317042
765.000000	0.317157
766.000000	0.317250
767.000000	0.317358
768.000000	0.317394
769.000000	0.317376
770.000000	0.317339
771.000000	0.317329
772.000000	0.317358
773.000000	0.317373
774.000000	0.317430
775.000000	0.317503
776.000000	0.317563
777.000000	0.317582
778.000000	0.317639
779.000000	0.317653
780.000000	0.317632
781.000000	0.317649
782.000000	0.317700
783.000000	0.317819
784.000000	0.317860
785.000000	0.317878
786.000000	0.317868
787.000000	0.317845
788.000000	0.317887
789.000000	0.317941
790.000000	0.317967
791.000000	0.317983
792.000000	0.318030
793.000000	0.318093
794.000000	0.318147
795.000000	0.318130
796.000000	0.318111
797.000000	0.318117
798.000000	0.318148
799.000000	0.318276
800.000000	0.318425
801.000000	0.318495
802.000000	0.318565
803.000000	0.318544
804.000000	0.318439
805.000000	0.318311
806.000000	0.318172
807.000000	0.318139
808.000000	0.318204
809.000000	0.318283
810.000000	0.318384
811.000000	0.318495
812.000000	0.318573
813.000000	0.318579
814.000000	0.318515
815.000000	0.318449
816.000000	0.318411
817.000000	0.318379
818.000000	0.318240
819.000000	0.318113
820.000000	0.318054
821.000000	0.318018
822.000000	0.317978
823.000000	0.318011
824.000000	0.318045
825.000000	0.318082
826.000000	0.318068
827.000000	0.317994
828.000000	0.317925
829.000000	0.317921
830.000000	0.317869
831.000000	0.317825
832.000000	0.317754
833.000000	0.317654
834.000000	0.317572
835.000000	0.317568
836.000000	0.317568
837.000000	0.317611
838.000000	0.317693
839.000000	0.317720
840.000000	0.317631
841.000000	0.317486
842.000000	0.317343
843.000000	0.317349
844.000000	0.317389
845.000000	0.317386
846.000000	0.317389
847.000000	0.317329
848.000000	0.317250
849.000000	0.317243
850.000000	0.317236
851.000000	0.317160
852.000000	0.317042
853.000000	0.316910
854.000000	0.316746
855.000000	0.316658
856.000000	0.316587
857.000000	0.316581
858.000000	0.316580
859.000000	0.316487
860.000000	0.316404
861.000000	0.316307
862.000000	0.316240
863.000000	0.316176
864.000000	0.316109
865.000000	0.315998
866.000000	0.315847
867.000000	0.315646
868.000000	0.315585
869.000000	0.315580
870.000000	0.315549
871.000000	0.315432
872.000000	0.315281
873.000000	0.315090
874.000000	0.314943
875.000000	0.314804
876.000000	0.314663
877.000000	0.314451
878.000000	0.314211
879.000000	0.314053
880.000000	0.313882
881.000000	0.313726
882.000000	0.313583
883.000000	0.313411
884.000000	0.313117
885.000000	0.312978
886.000000	0.312848
887.000000	0.312679
888.000000	0.312587
889.000000	0.312576
890.000000	0.312505
891.000000	0.312404
892.000000	0.312117
893.000000	0.311856
894.000000	0.311790
895.000000	0.311555
896.000000	0.311370
897.000000	0.311208
898.000000	0.310981
899.000000	0.310741
900.000000	0.310542
901.000000	0.310346
902.000000	0.310129
903.000000	0.309885
904.000000	0.309674
905.000000	0.309473
906.000000	0.309471
907.000000	0.309347
908.000000	0.309098
909.000000	0.308888
910.000000	0.308626
911.000000	0.308363
912.000000	0.308155
913.000000	0.307855
914.000000	0.307572
915.000000	0.307365
916.000000	0.307084
917.000000	0.306896
918.000000	0.306733
919.000000	0.306497
920.000000	0.306206
921.000000	0.305964
922.000000	0.305789
923.000000	0.305605
924.000000	0.305303
925.000000	0.304985
926.000000	0.304755
927.000000	0.304560
928.000000	0.304360
929.000000	0.304121
930.000000	0.303833
931.000000	0.303536
932.000000	0.303231
933.000000	0.302965
934.000000	0.302725
935.000000	0.302466
936.000000	0.302215
937.000000	0.301927
938.000000	0.301731
939.000000	0.301600
940.000000	0.301417
941.000000	0.301189
942.000000	0.300917
943.000000	0.300737
944.000000	0.300532
945.000000	0.300136
946.000000	0.299702
947.000000	0.299406
948.000000	0.299272
949.000000	0.298981
950.000000	0.298783
951.000000	0.298668
952.000000	0.298483
953.000000	0.298291
954.000000	0.298066
955.000000	0.297753
956.000000	0.297530
957.000000	0.297357
958.000000	0.297108
959.000000	0.296787
960.000000	0.296593
961.000000	0.296420
962.000000	0.296171
963.000000	0.295861
964.000000	0.295715
965.000000	0.295655
966.000000	0.295461
967.000000	0.295261
968.000000	0.294951
969.000000	0.294514
970.000000	0.294118
971.000000	0.293839
972.000000	0.293574
973.000000	0.293250
974.000000	0.293034
975.000000	0.292787
976.000000	0.292549
977.000000	0.292361
978.000000	0.292186
979.000000	0.292185
980.000000	0.292043
981.000000	0.291782
982.000000	0.291605
983.000000	0.291477
984.000000	0.291415
985.000000	0.291346
986.000000	0.291217
987.000000	0.291033
988.000000	0.290705
989.000000	0.290301
990.000000	0.290027
991.000000	0.289784
992.000000	0.289468
993.000000	0.289269
994.000000	0.289096
995.000000	0.288960
996.000000	0.288614
997.000000	0.288623
998.000000	0.288530
999.000000	0.288262
1000.000000	0.288230
1001.000000	0.288809
1002.000000	0.288354
1003.000000	0.287859
1004.000000	0.287543
1005.000000	0.287355
1006.000000	0.287065
1007.000000	0.286843
1008.000000	0.286656
1009.000000	0.286496
1010.000000	0.286183
1011.000000	0.286404
1012.000000	0.286554
1013.000000	0.286226
1014.000000	0.286062
1015.000000	0.286062
1016.000000	0.286191
1017.000000	0.286183
1018.000000	0.286312
1019.000000	0.286280
1020.000000	0.285975
1021.000000	0.285521
1022.000000	0.285317
1023.000000	0.285255
1024.000000	0.284814
1025.000000	0.284915
1026.000000	0.285448
1027.000000	0.285101
1028.000000	0.285188
1029.000000	0.285500
1030.000000	0.285198
1031.000000	0.285227
1032.000000	0.285465
1033.000000	0.285183
1034.000000	0.285114
1035.000000	0.285290
1036.000000	0.285310
1037.000000	0.285159
1038.000000	0.285074
1039.000000	0.285150
1040.000000	0.285098
1041.000000	0.284988
1042.000000	0.285145
1043.000000	0.285464
1044.000000	0.285521
1045.000000	0.285437
1046.000000	0.285547
1047.000000	0.285822
1048.000000	0.286200
1049.000000	0.286323
1050.000000	0.286644
1051.000000	0.286657
1052.000000	0.286015
1053.000000	0.285964
1054.000000	0.286442
1055.000000	0.286611
1056.000000	0.286807
1057.000000	0.287178
1058.000000	0.287132
1059.000000	0.287115
1060.000000	0.287554
1061.000000	0.287851
1062.000000	0.288218
1063.000000	0.288756
1064.000000	0.289022
1065.000000	0.289080
1066.000000	0.289247
1067.000000	0.289182
1068.000000	0.289330
1069.000000	0.289687
1070.000000	0.289820
1071.000000	0.289933
1072.000000	0.290117
1073.000000	0.290334
1074.000000	0.290453
1075.000000	0.290593
1076.000000	0.290728
1077.000000	0.290671
1078.000000	0.290762
1079.000000	0.290917
1080.000000	0.291279
1081.000000	0.291444
1082.000000	0.291602
1083.000000	0.291876
1084.000000	0.292143
1085.000000	0.292512
1086.000000	0.293182
1087.000000	0.293490
1088.000000	0.293431
1089.000000	0.293623
1090.000000	0.293759
1091.000000	0.293884
1092.000000	0.294194
1093.000000	0.294453
1094.000000	0.294534
1095.000000	0.294204
1096.000000	0.294420
1097.000000	0.294904
1098.000000	0.295135
1099.000000	0.295407
1100.000000	0.295714
1101.000000	0.295822
1102.000000	0.295966
1103.000000	0.296265
1104.000000	0.296502
1105.000000	0.296508
1106.000000	0.296693
1107.000000	0.297010
1108.000000	0.297239
1109.000000	0.297444
1110.000000	0.297861
1111.000000	0.298011
1112.000000	0.298004
1113.000000	0.298196
1114.000000	0.298401
1115.000000	0.298551
1116.000000	0.298856
1117.000000	0.298970
1118.000000	0.298714
1119.000000	0.298851
1120.000000	0.299193
1121.000000	0.299435
1122.000000	0.300039
1123.000000	0.300496
1124.000000	0.300505
1125.000000	0.300685
1126.000000	0.300789
1127.000000	0.300894
1128.000000	0.301011
1129.000000	0.301200
1130.000000	0.301397
1131.000000	0.301635
1132.000000	0.301766
1133.000000	0.301978
1134.000000	0.302086
1135.000000	0.301953
1136.000000	0.302013
1137.000000	0.302170
1138.000000	0.302203
1139.000000	0.302322
1140.000000	0.302483
1141.000000	0.302527
1142.000000	0.302615
1143.000000	0.302698
1144.000000	0.302900
1145.000000	0.302983
1146.000000	0.302999
1147.000000	0.303110
1148.000000	0.303209
1149.000000	0.303302
1150.000000	0.303439
1151.000000	0.303536
1152.000000	0.303562
1153.000000	0.303605
1154.000000	0.303575
1155.000000	0.303602
1156.000000	0.303649
1157.000000	0.303706
1158.000000	0.303734
1159.000000	0.303790
1160.000000	0.303849
1161.000000	0.303899
1162.000000	0.304045
1163.000000	0.304274
1164.000000	0.304198
1165.000000	0.304224
1166.000000	0.304294
1167.000000	0.304277
1168.000000	0.304306
1169.000000	0.304501
1170.000000	0.304547
1171.000000	0.304550
1172.000000	0.304576
1173.000000	0.304578
1174.000000	0.304525
1175.000000	0.304297
1176.000000	0.304247
1177.000000	0.304376
1178.000000	0.304403
1179.000000	0.304519
1180.000000	0.304518
1181.000000	0.304460
1182.000000	0.304365
1183.000000	0.304345
1184.000000	0.304493
1185.000000	0.304594
1186.000000	0.304764
1187.000000	0.304794
1188.000000	0.304790
1189.000000	0.304742
1190.000000	0.304612
1191.000000	0.304591
1192.000000	0.304750
1193.000000	0.304864
1194.000000	0.304843
1195.000000	0.304879
1196.000000	0.304848
1197.000000	0.304836
1198.000000	0.304937
1199.000000	0.304966
1200.000000	0.304925
1201.000000	0.304868
1202.000000	0.304865
1203.000000	0.304847
1204.000000	0.304904
1205.000000	0.304929
1206.000000	0.304900
1207.000000	0.304912
1208.000000	0.304888
1209.000000	0.304872
1210.000000	0.304904
1211.000000	0.304972
1212.000000	0.304994
1213.000000	0.305069
1214.000000	0.305127
1215.000000	0.305136
1216.000000	0.305146
1217.000000	0.305108
1218.000000	0.305080
1219.000000	0.305097
1220.000000	0.305087
1221.000000	0.305039
1222.000000	0.305039
1223.000000	0.305000
1224.000000	0.304946
1225.000000	0.304964
1226.000000	0.305019
1227.000000	0.304965
1228.000000	0.304970
1229.000000	0.304880
1230.000000	0.304659
1231.000000	0.304500
1232.000000	0.304450
1233.000000	0.304445
1234.000000	0.304474
1235.000000	0.304470
1236.000000	0.304392
1237.000000	0.304362
1238.000000	0.304267
1239.000000	0.304220
1240.000000	0.304229
1241.000000	0.304160
1242.000000	0.304176
1243.000000	0.304229
1244.000000	0.304117
1245.000000	0.304155
1246.000000	0.304188
1247.000000	0.304194
1248.000000	0.304269
1249.000000	0.304316
1250.000000	0.304327
1251.000000	0.304277
1252.000000	0.304229
1253.000000	0.304211
1254.000000	0.304188
1255.000000	0.304110
1256.000000	0.304096
1257.000000	0.304138
1258.000000	0.304187
1259.000000	0.304235
1260.000000	0.304287
1261.000000	0.304251
1262.000000	0.304267
1263.000000	0.304329
1264.000000	0.304350
1265.000000	0.304375
1266.000000	0.304365
1267.000000	0.304361
1268.000000	0.304360
1269.000000	0.304314
1270.000000	0.304358
1271.000000	0.304326
1272.000000	0.304296
1273.000000	0.304361
1274.000000	0.304394
1275.000000	0.304381
1276.000000	0.304361
1277.000000	0.304403
1278.000000	0.304356
1279.000000	0.304321
1280.000000	0.304271
1281.000000	0.304172
1282.000000	0.304042
1283.000000	0.304067
1284.000000	0.304115
1285.000000	0.304142
1286.000000	0.304241
1287.000000	0.304156
1288.000000	0.304139
1289.000000	0.304172
1290.000000	0.304104
1291.000000	0.304053
1292.000000	0.304079
1293.000000	0.304026
1294.000000	0.303927
1295.000000	0.303989
1296.000000	0.303954
1297.000000	0.303834
1298.000000	0.303907
1299.000000	0.303869
1300.000000	0.303823
1301.000000	0.303920
1302.000000	0.303880
1303.000000	0.303893
1304.000000	0.303870
1305.000000	0.303858
1306.000000	0.303818
1307.000000	0.303849
1308.000000	0.303862
1309.000000	0.303824
1310.000000	0.303840
1311.000000	0.303944
1312.000000	0.303897
1313.000000	0.303813
1314.000000	0.303752
1315.000000	0.303583
1316.000000	0.303470
1317.000000	0.303526
1318.000000	0.303550
1319.000000	0.303468
1320.000000	0.303515
1321.000000	0.303503
1322.000000	0.303444
1323.000000	0.303460
1324.000000	0.303365
1325.000000	0.303214
1326.000000	0.303128
1327.000000	0.303071
1328.000000	0.303088
1329.000000	0.302955
1330.000000	0.302700
1331.000000	0.302608
1332.000000	0.302556
1333.000000	0.302512
1334.000000	0.302705
1335.000000	0.302765
1336.000000	0.302653
1337.000000	0.302651
1338.000000	0.302629
1339.000000	0.302662
1340.000000	0.302681
1341.000000	0.302705
1342.000000	0.302690
1343.000000	0.302568
1344.000000	0.302499
1345.000000	0.302469
1346.000000	0.302495
1347.000000	0.302473
1348.000000	0.302450
1349.000000	0.302336
1350.000000	0.302236
1351.000000	0.302173
1352.000000	0.302076
1353.000000	0.302032
1354.000000	0.302116
1355.000000	0.302107
1356.000000	0.302126
1357.000000	0.302143
1358.000000	0.302076
1359.000000	0.302060
1360.000000	0.302044
1361.000000	0.302095
1362.000000	0.302073
1363.000000	0.302009
1364.000000	0.301944
1365.000000	0.301814
1366.000000	0.301707
1367.000000	0.301594
1368.000000	0.301484
1369.000000	0.301443
1370.000000	0.301352
1371.000000	0.301227
1372.000000	0.301084
1373.000000	0.300948
1374.000000	0.300863
1375.000000	0.300768
1376.000000	0.300705
1377.000000	0.300568
1378.000000	0.300324
1379.000000	0.300052
1380.000000	0.299824
1381.000000	0.299511
1382.000000	0.299152
1383.000000	0.298833
1384.000000	0.298383
1385.000000	0.297967
1386.000000	0.297705
1387.000000	0.297443
1388.000000	0.297173
1389.000000	0.297023
1390.000000	0.296971
1391.000000	0.296877
1392.000000	0.296917
1393.000000	0.296991
1394.000000	0.297143
1395.000000	0.297335
1396.000000	0.297663
1397.000000	0.297820
1398.000000	0.297917
1399.000000	0.297994
1400.000000	0.297958
1401.000000	0.297942
1402.000000	0.297984
1403.000000	0.297953
1404.000000	0.297901
1405.000000	0.297794
1406.000000	0.297633
1407.000000	0.297463
1408.000000	0.297303
1409.000000	0.297233
1410.000000	0.297231
1411.000000	0.297203
1412.000000	0.297131
1413.000000	0.297135
1414.000000	0.297181
1415.000000	0.297231
1416.000000	0.297297
1417.000000	0.297374
1418.000000	0.297401
1419.000000	0.297533
1420.000000	0.297602
1421.000000	0.297633
1422.000000	0.297661
1423.000000	0.297720
1424.000000	0.297754
1425.000000	0.297838
1426.000000	0.297902
1427.000000	0.297994
1428.000000	0.298109
1429.000000	0.298166
1430.000000	0.298237
1431.000000	0.298298
1432.000000	0.298327
1433.000000	0.298408
1434.000000	0.298412
1435.000000	0.298427
1436.000000	0.298429
1437.000000	0.298342
1438.000000	0.298297
1439.000000	0.298360
1440.000000	0.298330
1441.000000	0.298265
1442.000000	0.298268
1443.000000	0.298200
1444.000000	0.298146
1445.000000	0.298185
1446.000000	0.298214
1447.000000	0.298221
1448.000000	0.298228
1449.000000	0.298263
1450.000000	0.298291
1451.000000	0.298306
1452.000000	0.298336
1453.000000	0.298332
1454.000000	0.298294
1455.000000	0.298352
1456.000000	0.298460
1457.000000	0.298538
1458.000000	0.298665
1459.000000	0.298760
1460.000000	0.298785
1461.000000	0.298784
1462.000000	0.298722
1463.000000	0.298613
1464.000000	0.298573
1465.000000	0.298599
1466.000000	0.298616
1467.000000	0.298645
1468.000000	0.298647
1469.000000	0.298688
1470.000000	0.298667
1471.000000	0.298676
1472.000000	0.298711
1473.000000	0.298775
1474.000000	0.298831
1475.000000	0.298919
1476.000000	0.298991
1477.000000	0.299039
1478.000000	0.299116
1479.000000	0.299154
1480.000000	0.299207
1481.000000	0.299266
1482.000000	0.299380
1483.000000	0.299480
1484.000000	0.299604
1485.000000	0.299679
1486.000000	0.299693
1487.000000	0.299754
1488.000000	0.299829
1489.000000	0.299938
1490.000000	0.299960
1491.000000	0.300034
1492.000000	0.300078
1493.000000	0.300177
1494.000000	0.300296
1495.000000	0.300387
1496.000000	0.300507
1497.000000	0.300594
1498.000000	0.300671
1499.000000	0.300705
1500.000000	0.300749
1501.000000	0.300725
1502.000000	0.300668
1503.000000	0.300673
1504.000000	0.300673
1505.000000	0.300679
1506.000000	0.300699
1507.000000	0.300640
1508.000000	0.300610
1509.000000	0.300576
1510.000000	0.300512
1511.000000	0.300516
1512.000000	0.300465
1513.000000	0.300425
1514.000000	0.300407
1515.000000	0.300272
1516.000000	0.300215
1517.000000	0.300150
1518.000000	0.300024
1519.000000	0.299939
1520.000000	0.299929
1521.000000	0.299861
1522.000000	0.299862
1523.000000	0.300014
1524.000000	0.300031
1525.000000	0.300007
1526.000000	0.300010
1527.000000	0.299924
1528.000000	0.299912
1529.000000	0.299928
1530.000000	0.299817
1531.000000	0.299801
1532.000000	0.299830
1533.000000	0.299740
1534.000000	0.299678
1535.000000	0.299658
1536.000000	0.299494
1537.000000	0.299481
1538.000000	0.299511
1539.000000	0.299381
1540.000000	0.299372
1541.000000	0.299434
1542.000000	0.299469
1543.000000	0.299519
1544.000000	0.299511
1545.000000	0.299508
1546.000000	0.299521
1547.000000	0.299572
1548.000000	0.299685
1549.000000	0.299713
1550.000000	0.299707
1551.000000	0.299780
1552.000000	0.299817
1553.000000	0.299800
1554.000000	0.299810
1555.000000	0.299836
1556.000000	0.299878
1557.000000	0.299949
1558.000000	0.300036
1559.000000	0.300099
1560.000000	0.300134
1561.000000	0.300233
1562.000000	0.300219
1563.000000	0.300175
1564.000000	0.300134
1565.000000	0.300029
1566.000000	0.299873
1567.000000	0.299799
1568.000000	0.299698
1569.000000	0.299578
1570.000000	0.299505
1571.000000	0.299426
1572.000000	0.299385
1573.000000	0.299424
1574.000000	0.299419
1575.000000	0.299450
1576.000000	0.299468
1577.000000	0.299422
1578.000000	0.299397
1579.000000	0.299458
1580.000000	0.299471
1581.000000	0.299563
1582.000000	0.299541
1583.000000	0.299444
1584.000000	0.299330
1585.000000	0.299181
1586.000000	0.299137
1587.000000	0.299147
1588.000000	0.299114
1589.000000	0.299128
1590.000000	0.299116
1591.000000	0.299068
1592.000000	0.299104
1593.000000	0.299224
1594.000000	0.299281
1595.000000	0.299431
1596.000000	0.299472
1597.000000	0.299420
1598.000000	0.299443
1599.000000	0.299497
1600.000000	0.299495
1601.000000	0.299614
1602.000000	0.299621
1603.000000	0.299546
1604.000000	0.299510
1605.000000	0.299498
1606.000000	0.299438
1607.000000	0.299404
1608.000000	0.299346
1609.000000	0.299282
1610.000000	0.299215
1611.000000	0.299179
1612.000000	0.299149
1613.000000	0.299192
1614.000000	0.299205
1615.000000	0.299298
1616.000000	0.299353
1617.000000	0.299338
1618.000000	0.299332
1619.000000	0.299307
1620.000000	0.299267
1621.000000	0.299236
1622.000000	0.299243
1623.000000	0.299200
1624.000000	0.299207
1625.000000	0.299138
1626.000000	0.299068
1627.000000	0.299001
1628.000000	0.299017
1629.000000	0.299065
1630.000000	0.299118
1631.000000	0.299202
1632.000000	0.299171
1633.000000	0.299065
1634.000000	0.299018
1635.000000	0.298997
1636.000000	0.298939
1637.000000	0.298909
1638.000000	0.298839
1639.000000	0.298740
1640.000000	0.298689
1641.000000	0.298757
1642.000000	0.298742
1643.000000	0.298727
1644.000000	0.298717
1645.000000	0.298683
1646.000000	0.298595
1647.000000	0.298527
1648.000000	0.298444
1649.000000	0.298401
1650.000000	0.298367
1651.000000	0.298396
1652.000000	0.298401
1653.000000	0.298349
1654.000000	0.298295
1655.000000	0.298206
1656.000000	0.298013
1657.000000	0.297772
1658.000000	0.297657
1659.000000	0.297631
1660.000000	0.297651
1661.000000	0.297712
1662.000000	0.297726
1663.000000	0.297723
1664.000000	0.297701
1665.000000	0.297652
1666.000000	0.297681
1667.000000	0.297626
1668.000000	0.297622
1669.000000	0.297672
1670.000000	0.297610
1671.000000	0.297594
1672.000000	0.297622
1673.000000	0.297585
1674.000000	0.297632
1675.000000	0.297738
1676.000000	0.297699
1677.000000	0.297664
1678.000000	0.297649
1679.000000	0.297628
1680.000000	0.297655
1681.000000	0.297636
1682.000000	0.297513
1683.000000	0.297384
1684.000000	0.297246
1685.000000	0.297182
1686.000000	0.297189
1687.000000	0.297184
1688.000000	0.297110
1689.000000	0.297051
1690.000000	0.296950
1691.000000	0.296931
1692.000000	0.296947
1693.000000	0.296969
1694.000000	0.297034
1695.000000	0.297162
1696.000000	0.297121
1697.000000	0.297115
1698.000000	0.297103
1699.000000	0.297168
1700.000000	0.297397
1701.000000	0.297587
1702.000000	0.297628
1703.000000	0.297612
1704.000000	0.297593
1705.000000	0.297562
1706.000000	0.297521
1707.000000	0.297495
1708.000000	0.297440
1709.000000	0.297344
1710.000000	0.297343
1711.000000	0.297307
1712.000000	0.297264
1713.000000	0.297177
1714.000000	0.297087
1715.000000	0.297015
1716.000000	0.296940
1717.000000	0.296848
1718.000000	0.296716
1719.000000	0.296604
1720.000000	0.296500
1721.000000	0.296471
1722.000000	0.296536
1723.000000	0.296546
1724.000000	0.296582
1725.000000	0.296652
1726.000000	0.296641
1727.000000	0.296655
1728.000000	0.296693
1729.000000	0.296595
1730.000000	0.296517
1731.000000	0.296462
1732.000000	0.296375
1733.000000	0.296379
1734.000000	0.296324
1735.000000	0.296274
1736.000000	0.296216
1737.000000	0.296135
1738.000000	0.296051
1739.000000	0.295978
1740.000000	0.295884
1741.000000	0.295781
1742.000000	0.295666
1743.000000	0.295687
1744.000000	0.295734
1745.000000	0.295745
1746.000000	0.295835
1747.000000	0.295738
1748.000000	0.295704
1749.000000	0.295783
1750.000000	0.295775
1751.000000	0.295894
1752.000000	0.296047
1753.000000	0.295986
1754.000000	0.296027
1755.000000	0.296153
1756.000000	0.296177
1757.000000	0.296151
1758.000000	0.296188
1759.000000	0.296209
1760.000000	0.296181
1761.000000	0.296151
1762.000000	0.296089
1763.000000	0.295923
1764.000000	0.295850
1765.000000	0.295766
1766.000000	0.295784
1767.000000	0.295870
1768.000000	0.295806
1769.000000	0.295800
1770.000000	0.295846
1771.000000	0.295780
1772.000000	0.295755
1773.000000	0.295807
1774.000000	0.295765
1775.000000	0.295678
1776.000000	0.295623
1777.000000	0.295520
1778.000000	0.295459
1779.000000	0.295408
1780.000000	0.295358
1781.000000	0.295314
1782.000000	0.295220
1783.000000	0.295110
1784.000000	0.295140
1785.000000	0.295090
1786.000000	0.295215
1787.000000	0.295388
1788.000000	0.295445
1789.000000	0.295475
1790.000000	0.295323
1791.000000	0.295239
1792.000000	0.295235
1793.000000	0.295263
1794.000000	0.295448
1795.000000	0.295537
1796.000000	0.295536
1797.000000	0.295575
1798.000000	0.295573
1799.000000	0.295599
1800.000000	0.295743
1801.000000	0.295841
1802.000000	0.295772
1803.000000	0.295301
1804.000000	0.295205
1805.000000	0.295349
1806.000000	0.295439
1807.000000	0.295356
1808.000000	0.295618
1809.000000	0.296266
1810.000000	0.296791
1811.000000	0.296984
1812.000000	0.297320
1813.000000	0.297119
1814.000000	0.296109
1815.000000	0.295854
1816.000000	0.295754
1817.000000	0.295516
1818.000000	0.295333
1819.000000	0.295712
1820.000000	0.295866
1821.000000	0.295729
1822.000000	0.295719
1823.000000	0.295724
1824.000000	0.295752
1825.000000	0.295460
1826.000000	0.295665
1827.000000	0.296273
1828.000000	0.296656
1829.000000	0.296787
1830.000000	0.297046
1831.000000	0.296935
1832.000000	0.296082
1833.000000	0.296079
1834.000000	0.296461
1835.000000	0.296595
1836.000000	0.297191
1837.000000	0.297181
1838.000000	0.296560
1839.000000	0.295887
1840.000000	0.295135
1841.000000	0.294981
1842.000000	0.294832
1843.000000	0.294958
1844.000000	0.295019
1845.000000	0.295155
1846.000000	0.295161
1847.000000	0.295011
1848.000000	0.294829
1849.000000	0.294712
1850.000000	0.294670
1851.000000	0.294803
1852.000000	0.295190
1853.000000	0.295322
1854.000000	0.295324
1855.000000	0.295219
1856.000000	0.294759
1857.000000	0.294618
1858.000000	0.294315
1859.000000	0.294198
1860.000000	0.294524
1861.000000	0.294373
1862.000000	0.294239
1863.000000	0.294163
1864.000000	0.294101
1865.000000	0.294011
1866.000000	0.293978
1867.000000	0.293988
1868.000000	0.293943
1869.000000	0.294075
1870.000000	0.293646
1871.000000	0.293343
1872.000000	0.293496
1873.000000	0.293610
1874.000000	0.293863
1875.000000	0.293920
1876.000000	0.294038
1877.000000	0.293381
1878.000000	0.292155
1879.000000	0.291165
1880.000000	0.290284
1881.000000	0.289567
1882.000000	0.289743
1883.000000	0.289475
1884.000000	0.289255
1885.000000	0.289091
1886.000000	0.288664
1887.000000	0.287932
1888.000000	0.287323
1889.000000	0.286331
1890.000000	0.285532
1891.000000	0.284889
1892.000000	0.283815
1893.000000	0.283209
1894.000000	0.282598
1895.000000	0.281945
1896.000000	0.281374
1897.000000	0.281212
1898.000000	0.280718
1899.000000	0.280368
1900.000000	0.279835
1901.000000	0.279178
1902.000000	0.278782
1903.000000	0.278552
1904.000000	0.278743
1905.000000	0.278736
1906.000000	0.278426
1907.000000	0.277914
1908.000000	0.277423
1909.000000	0.277102
1910.000000	0.277183
1911.000000	0.277591
1912.000000	0.278343
1913.000000	0.278972
1914.000000	0.279342
1915.000000	0.280011
1916.000000	0.280647
1917.000000	0.280962
1918.000000	0.281187
1919.000000	0.281465
1920.000000	0.281452
1921.000000	0.281506
1922.000000	0.281715
1923.000000	0.281930
1924.000000	0.281930
1925.000000	0.281606
1926.000000	0.281370
1927.000000	0.281382
1928.000000	0.281402
1929.000000	0.281704
1930.000000	0.282005
1931.000000	0.282045
1932.000000	0.282062
1933.000000	0.281874
1934.000000	0.281732
1935.000000	0.282031
1936.000000	0.282369
1937.000000	0.282739
1938.000000	0.283317
1939.000000	0.283677
1940.000000	0.283941
1941.000000	0.283993
1942.000000	0.283988
1943.000000	0.283522
1944.000000	0.283116
1945.000000	0.282989
1946.000000	0.282973
1947.000000	0.283316
1948.000000	0.283825
1949.000000	0.284092
1950.000000	0.284051
1951.000000	0.283968
1952.000000	0.283836
1953.000000	0.283502
1954.000000	0.283381
1955.000000	0.283616
1956.000000	0.283855
1957.000000	0.284010
1958.000000	0.283710
1959.000000	0.283690
1960.000000	0.283939
1961.000000	0.283862
1962.000000	0.283994
1963.000000	0.284605
1964.000000	0.284899
1965.000000	0.284610
1966.000000	0.284522
1967.000000	0.284423
1968.000000	0.284300
1969.000000	0.283964
1970.000000	0.284108
1971.000000	0.284248
1972.000000	0.284166
1973.000000	0.284093
1974.000000	0.284292
1975.000000	0.284353
1976.000000	0.284393
1977.000000	0.284309
1978.000000	0.284114
1979.000000	0.284045
1980.000000	0.283921
1981.000000	0.283814
1982.000000	0.284148
1983.000000	0.284873
1984.000000	0.285144
1985.000000	0.285391
1986.000000	0.285487
1987.000000	0.285472
1988.000000	0.285270
1989.000000	0.284975
1990.000000	0.285011
1991.000000	0.285115
1992.000000	0.284875
1993.000000	0.284867
1994.000000	0.285092
1995.000000	0.285094
1996.000000	0.285029
1997.000000	0.285158
1998.000000	0.285414
1999.000000	0.285798
2000.000000	0.286401
2001.000000	0.287003
2002.000000	0.287424
2003.000000	0.287488
2004.000000	0.287113
2005.000000	0.286541
2006.000000	0.286152
2007.000000	0.286150
2008.000000	0.286165
2009.000000	0.286410
2010.000000	0.286543
2011.000000	0.286441
2012.000000	0.286474
2013.000000	0.286444
2014.000000	0.286685
2015.000000	0.286710
2016.000000	0.286877
2017.000000	0.286724
2018.000000	0.286387
2019.000000	0.286453
2020.000000	0.286339
2021.000000	0.286379
2022.000000	0.286524
2023.000000	0.286654
2024.000000	0.286993
2025.000000	0.287184
2026.000000	0.287050
2027.000000	0.287264
2028.000000	0.287638
2029.000000	0.287718
2030.000000	0.287997
2031.000000	0.287978
2032.000000	0.287655
2033.000000	0.287638
2034.000000	0.287580
2035.000000	0.287830
2036.000000	0.287778
2037.000000	0.287586
2038.000000	0.287540
2039.000000	0.287657
2040.000000	0.287598
2041.000000	0.287416
2042.000000	0.287623
2043.000000	0.287435
2044.000000	0.287177
2045.000000	0.287348
2046.000000	0.287329
2047.000000	0.287520
2048.000000	0.287980
2049.000000	0.288374
2050.000000	0.288582
2051.000000	0.288625
2052.000000	0.288489
2053.000000	0.288144
2054.000000	0.287716
2055.000000	0.287355
2056.000000	0.287184
2057.000000	0.286853
2058.000000	0.286888
2059.000000	0.286957
2060.000000	0.286906
2061.000000	0.286886
2062.000000	0.286869
2063.000000	0.286845
2064.000000	0.286739
2065.000000	0.286806
2066.000000	0.286787
2067.000000	0.287031
2068.000000	0.287055
2069.000000	0.287261
2070.000000	0.287497
2071.000000	0.286943
2072.000000	0.286920
2073.000000	0.287385
2074.000000	0.287008
2075.000000	0.286882
2076.000000	0.287006
2077.000000	0.287011
2078.000000	0.286690
2079.000000	0.286704
2080.000000	0.287332
2081.000000	0.287402
2082.000000	0.287135
2083.000000	0.286977
2084.000000	0.286828
2085.000000	0.286479
2086.000000	0.286621
2087.000000	0.286837
2088.000000	0.286808
2089.000000	0.287009
2090.000000	0.287127
2091.000000	0.287227
2092.000000	0.287264
2093.000000	0.287470
2094.000000	0.287395
2095.000000	0.287080
2096.000000	0.286944
2097.000000	0.286701
2098.000000	0.286381
2099.000000	0.286309
2100.000000	0.285963
2101.000000	0.285929
2102.000000	0.286064
2103.000000	0.286064
2104.000000	0.286186
2105.000000	0.286297
2106.000000	0.286370
2107.000000	0.286355
2108.000000	0.286353
2109.000000	0.286473
2110.000000	0.286274
2111.000000	0.286298
2112.000000	0.286581
2113.000000	0.286436
2114.000000	0.286371
2115.000000	0.286240
2116.000000	0.286092
2117.000000	0.286167
2118.000000	0.286075
2119.000000	0.285768
2120.000000	0.285728
2121.000000	0.285614
2122.000000	0.285660
2123.000000	0.285875
2124.000000	0.286264
2125.000000	0.287036
2126.000000	0.287274
2127.000000	0.287689
2128.000000	0.287816
2129.000000	0.287376
2130.000000	0.286755
2131.000000	0.286388
2132.000000	0.285987
2133.000000	0.285673
2134.000000	0.285589
2135.000000	0.285786
2136.000000	0.285796
2137.000000	0.285764
2138.000000	0.285904
2139.000000	0.285821
2140.000000	0.285455
2141.000000	0.285220
2142.000000	0.284922
2143.000000	0.284586
2144.000000	0.284236
2145.000000	0.284162
2146.000000	0.284323
2147.000000	0.284883
2148.000000	0.285063
2149.000000	0.285753
2150.000000	0.285774
2151.000000	0.285359
2152.000000	0.285295
2153.000000	0.285256
2154.000000	0.285490
2155.000000	0.286283
2156.000000	0.286663
2157.000000	0.286999
2158.000000	0.287320
2159.000000	0.287916
2160.000000	0.287977
2161.000000	0.287409
2162.000000	0.287408
2163.000000	0.287320
2164.000000	0.287088
2165.000000	0.287096
2166.000000	0.287175
2167.000000	0.286932
2168.000000	0.286310
2169.000000	0.285790
2170.000000	0.285364
2171.000000	0.285467
2172.000000	0.286051
2173.000000	0.286102
2174.000000	0.286478
2175.000000	0.286546
2176.000000	0.285853
2177.000000	0.285667
2178.000000	0.286143
2179.000000	0.286227
2180.000000	0.285652
2181.000000	0.285925
2182.000000	0.285999
2183.000000	0.286143
2184.000000	0.286705
2185.000000	0.287772
2186.000000	0.287948
2187.000000	0.287549
2188.000000	0.287756
2189.000000	0.287495
2190.000000	0.287367
2191.000000	0.287896
2192.000000	0.288073
2193.000000	0.288077
2194.000000	0.287819
2195.000000	0.287293
2196.000000	0.287552
2197.000000	0.287808
2198.000000	0.288055
2199.000000	0.289596
2200.000000	0.289911
2201.000000	0.289156
2202.000000	0.288743
2203.000000	0.287564
2204.000000	0.287063
2205.000000	0.286924
2206.000000	0.284993
2207.000000	0.283578
2208.000000	0.282568
2209.000000	0.281681
2210.000000	0.282486
2211.000000	0.282487
2212.000000	0.283526
2213.000000	0.284153
2214.000000	0.283950
2215.000000	0.284737
2216.000000	0.286499
2217.000000	0.287505
2218.000000	0.288971
2219.000000	0.289504
2220.000000	0.289041
2221.000000	0.289061
2222.000000	0.288578
2223.000000	0.288423
2224.000000	0.288587
2225.000000	0.289144
2226.000000	0.289064
2227.000000	0.288481
2228.000000	0.288168
2229.000000	0.287981
2230.000000	0.286984
2231.000000	0.286047
2232.000000	0.284996
2233.000000	0.283815
2234.000000	0.282195
2235.000000	0.281456
2236.000000	0.281274
2237.000000	0.281255
2238.000000	0.281308
2239.000000	0.282502
2240.000000	0.283246
2241.000000	0.283816
2242.000000	0.284091
2243.000000	0.284146
2244.000000	0.284126
2245.000000	0.284036
2246.000000	0.283539
2247.000000	0.282350
2248.000000	0.282277
2249.000000	0.282466
2250.000000	0.282348
2251.000000	0.283151
2252.000000	0.283982
2253.000000	0.283058
2254.000000	0.282233
2255.000000	0.282086
2256.000000	0.282127
2257.000000	0.283660
2258.000000	0.284819
2259.000000	0.286315
2260.000000	0.287238
2261.000000	0.287394
2262.000000	0.287023
2263.000000	0.286499
2264.000000	0.285452
2265.000000	0.284593
2266.000000	0.283488
2267.000000	0.282448
2268.000000	0.280594
2269.000000	0.279783
2270.000000	0.279455
2271.000000	0.279809
2272.000000	0.281705
2273.000000	0.282395
2274.000000	0.283080
2275.000000	0.282851
2276.000000	0.281165
2277.000000	0.280404
2278.000000	0.280283
2279.000000	0.280566
2280.000000	0.281271
2281.000000	0.280684
2282.000000	0.279399
2283.000000	0.278665
2284.000000	0.278024
2285.000000	0.278411
2286.000000	0.278776
2287.000000	0.278281
2288.000000	0.278289
2289.000000	0.278706
2290.000000	0.278610
2291.000000	0.278962
2292.000000	0.278778
2293.000000	0.276957
2294.000000	0.276292
2295.000000	0.275667
2296.000000	0.275407
2297.000000	0.275998
2298.000000	0.276333
2299.000000	0.276882
2300.000000	0.276913
2301.000000	0.276751
2302.000000	0.276461
2303.000000	0.275493
2304.000000	0.275098
2305.000000	0.274761
2306.000000	0.274106
2307.000000	0.272984
2308.000000	0.273663
2309.000000	0.273194
2310.000000	0.274011
2311.000000	0.275203
2312.000000	0.274011
2313.000000	0.273381
2314.000000	0.272256
2315.000000	0.271135
2316.000000	0.271591
2317.000000	0.270947
2318.000000	0.271922
2319.000000	0.274154
2320.000000	0.273637
2321.000000	0.274093
2322.000000	0.274445
2323.000000	0.273617
2324.000000	0.275100
2325.000000	0.276445
2326.000000	0.276801
2327.000000	0.276219
2328.000000	0.275745
2329.000000	0.275857
2330.000000	0.274245
2331.000000	0.273856
2332.000000	0.274185
2333.000000	0.273476
2334.000000	0.275468
2335.000000	0.277196
2336.000000	0.278725
2337.000000	0.279471
2338.000000	0.280790
2339.000000	0.281343
2340.000000	0.281106
2341.000000	0.281461
2342.000000	0.281929
2343.000000	0.281112
2344.000000	0.278862
2345.000000	0.278549
2346.000000	0.278869
2347.000000	0.278820
2348.000000	0.279932
2349.000000	0.280196
2350.000000	0.278712
2351.000000	0.278019
2352.000000	0.278296
2353.000000	0.279907
2354.000000	0.281158
2355.000000	0.282349
2356.000000	0.281339
2357.000000	0.278584
2358.000000	0.277837
2359.000000	0.275633
2360.000000	0.274193
2361.000000	0.275317
2362.000000	0.274988
2363.000000	0.275162
2364.000000	0.273584
2365.000000	0.272225
2366.000000	0.273103
2367.000000	0.272868
2368.000000	0.275287
2369.000000	0.277560
2370.000000	0.276427
2371.000000	0.276194
2372.000000	0.275763
2373.000000	0.274359
2374.000000	0.272230
2375.000000	0.270744
2376.000000	0.271998
2377.000000	0.272729
2378.000000	0.275889
2379.000000	0.277957
2380.000000	0.274461
2381.000000	0.273478
2382.000000	0.270646
2383.000000	0.268577
2384.000000	0.273293
2385.000000	0.274177
2386.000000	0.272966
2387.000000	0.271579
2388.000000	0.266454
2389.000000	0.263990
2390.000000	0.265081
2391.000000	0.269710
2392.000000	0.271978
2393.000000	0.272680
2394.000000	0.277108
2395.000000	0.276844
2396.000000	0.279322
2397.000000	0.285993
2398.000000	0.285649
2399.000000	0.285145
2400.000000	0.284509
2401.000000	0.280058
2402.000000	0.278724
2403.000000	0.280137
2404.000000	0.277636
2405.000000	0.272392
2406.000000	0.269228
2407.000000	0.263692
2408.000000	0.262187
2409.000000	0.266286
2410.000000	0.269919
2411.000000	0.275489
2412.000000	0.277507
2413.000000	0.280732
2414.000000	0.283955
2415.000000	0.283218
2416.000000	0.286295
2417.000000	0.282899
2418.000000	0.274115
2419.000000	0.270606
2420.000000	0.266218
2421.000000	0.265266
2422.000000	0.270591
2423.000000	0.272486
2424.000000	0.267452
2425.000000	0.263367
2426.000000	0.259461
2427.000000	0.258573
2428.000000	0.268288
2429.000000	0.273548
2430.000000	0.279419
2431.000000	0.280423
2432.000000	0.272411
2433.000000	0.278707
2434.000000	0.277845
2435.000000	0.271474
2436.000000	0.276492
2437.000000	0.272839
2438.000000	0.271328
2439.000000	0.275178
2440.000000	0.269545
2441.000000	0.261789
2442.000000	0.261833
2443.000000	0.270606
2444.000000	0.275023
2445.000000	0.282645
2446.000000	0.286701
2447.000000	0.274138
2448.000000	0.270198
2449.000000	0.269489
2450.000000	0.270941
2451.000000	0.276667
2452.000000	0.280889
2453.000000	0.280854
2454.000000	0.268823
2455.000000	0.261587
2456.000000	0.258642
2457.000000	0.258183
2458.000000	0.264277
2459.000000	0.271517
2460.000000	0.273430
2461.000000	0.273398
2462.000000	0.273073
2463.000000	0.261593
2464.000000	0.252122
2465.000000	0.251944
2466.000000	0.255739
2467.000000	0.267238
2468.000000	0.274316
2469.000000	0.281672
2470.000000	0.291540
2471.000000	0.282833
2472.000000	0.285065
2473.000000	0.288942
2474.000000	0.274337
2475.000000	0.284314
2476.000000	0.283992
2477.000000	0.260290
2478.000000	0.256297
2479.000000	0.251385
2480.000000	0.259637
2481.000000	0.289526
2482.000000	0.308562
2483.000000	0.305473
2484.000000	0.300732
2485.000000	0.308434
2486.000000	0.290748
2487.000000	0.270858
2488.000000	0.263948
2489.000000	0.229857
2490.000000	0.213947
2491.000000	0.210401
2492.000000	0.203672
2493.000000	0.206506
2494.000000	0.219451
2495.000000	0.250201
2496.000000	0.269066
2497.000000	0.289917
2498.000000	0.292491
2499.000000	0.287357
2500.000000	0.274598
