# Wavelength	SM1200H-10_HEX-50_FV7-40_00002.asd.rts.txt
350.000000	0.214944
351.000000	0.229610
352.000000	0.240558
353.000000	0.235126
354.000000	0.220741
355.000000	0.235908
356.000000	0.239522
357.000000	0.229844
358.000000	0.226285
359.000000	0.227565
360.000000	0.233825
361.000000	0.242400
362.000000	0.234695
363.000000	0.232835
364.000000	0.244010
365.000000	0.232507
366.000000	0.225643
367.000000	0.229937
368.000000	0.236353
369.000000	0.237392
370.000000	0.238185
371.000000	0.245339
372.000000	0.241670
373.000000	0.235712
374.000000	0.235418
375.000000	0.239840
376.000000	0.243485
377.000000	0.244482
378.000000	0.244493
379.000000	0.241698
380.000000	0.239041
381.000000	0.240876
382.000000	0.241525
383.000000	0.241883
384.000000	0.243336
385.000000	0.245703
386.000000	0.247294
387.000000	0.247668
388.000000	0.247126
389.000000	0.246853
390.000000	0.246871
391.000000	0.246633
392.000000	0.248438
393.000000	0.250426
394.000000	0.250926
395.000000	0.250409
396.000000	0.250937
397.000000	0.252527
398.000000	0.252719
399.000000	0.252509
400.000000	0.252503
401.000000	0.253011
402.000000	0.252263
403.000000	0.252271
404.000000	0.254458
405.000000	0.254408
406.000000	0.254790
407.000000	0.256366
408.000000	0.256245
409.000000	0.255443
410.000000	0.254932
411.000000	0.255761
412.000000	0.256990
413.000000	0.257800
414.000000	0.257708
415.000000	0.257547
416.000000	0.257818
417.000000	0.258600
418.000000	0.259242
419.000000	0.259734
420.000000	0.260026
421.000000	0.260023
422.000000	0.260305
423.000000	0.260851
424.000000	0.261455
425.000000	0.261397
426.000000	0.261179
427.000000	0.261332
428.000000	0.262224
429.000000	0.262473
430.000000	0.262012
431.000000	0.262505
432.000000	0.262917
433.000000	0.263085
434.000000	0.263293
435.000000	0.263547
436.000000	0.263703
437.000000	0.263683
438.000000	0.263951
439.000000	0.264357
440.000000	0.264746
441.000000	0.264533
442.000000	0.264868
443.000000	0.265618
444.000000	0.265918
445.000000	0.266121
446.000000	0.266273
447.000000	0.266217
448.000000	0.266360
449.000000	0.266785
450.000000	0.267390
451.000000	0.267657
452.000000	0.267782
453.000000	0.267855
454.000000	0.268105
455.000000	0.268579
456.000000	0.269016
457.000000	0.268901
458.000000	0.269359
459.000000	0.270053
460.000000	0.270515
461.000000	0.270591
462.000000	0.270579
463.000000	0.270567
464.000000	0.270855
465.000000	0.271235
466.000000	0.271624
467.000000	0.272142
468.000000	0.272460
469.000000	0.272540
470.000000	0.272621
471.000000	0.272693
472.000000	0.272933
473.000000	0.273354
474.000000	0.273397
475.000000	0.273259
476.000000	0.273340
477.000000	0.273969
478.000000	0.274262
479.000000	0.274370
480.000000	0.274477
481.000000	0.274591
482.000000	0.274949
483.000000	0.275424
484.000000	0.275621
485.000000	0.275762
486.000000	0.276114
487.000000	0.276362
488.000000	0.276636
489.000000	0.276942
490.000000	0.277185
491.000000	0.277408
492.000000	0.277697
493.000000	0.277985
494.000000	0.278219
495.000000	0.278481
496.000000	0.278783
497.000000	0.279098
498.000000	0.279378
499.000000	0.279679
500.000000	0.279985
501.000000	0.280115
502.000000	0.280313
503.000000	0.280891
504.000000	0.281252
505.000000	0.281503
506.000000	0.281819
507.000000	0.281932
508.000000	0.282100
509.000000	0.282410
510.000000	0.282746
511.000000	0.283036
512.000000	0.283329
513.000000	0.283721
514.000000	0.284091
515.000000	0.284459
516.000000	0.284810
517.000000	0.285120
518.000000	0.285412
519.000000	0.285644
520.000000	0.285995
521.000000	0.286318
522.000000	0.286593
523.000000	0.287020
524.000000	0.287220
525.000000	0.287310
526.000000	0.287722
527.000000	0.288120
528.000000	0.288414
529.000000	0.288646
530.000000	0.288903
531.000000	0.289135
532.000000	0.289282
533.000000	0.289685
534.000000	0.290057
535.000000	0.290318
536.000000	0.290626
537.000000	0.290828
538.000000	0.291039
539.000000	0.291434
540.000000	0.291696
541.000000	0.291880
542.000000	0.292133
543.000000	0.292488
544.000000	0.292784
545.000000	0.292924
546.000000	0.293193
547.000000	0.293506
548.000000	0.293847
549.000000	0.294131
550.000000	0.294398
551.000000	0.294689
552.000000	0.294990
553.000000	0.295341
554.000000	0.295729
555.000000	0.296120
556.000000	0.296418
557.000000	0.296667
558.000000	0.297019
559.000000	0.297392
560.000000	0.297689
561.000000	0.298010
562.000000	0.298384
563.000000	0.298650
564.000000	0.298956
565.000000	0.299343
566.000000	0.299741
567.000000	0.300071
568.000000	0.300316
569.000000	0.300689
570.000000	0.301047
571.000000	0.301373
572.000000	0.301791
573.000000	0.302083
574.000000	0.302299
575.000000	0.302641
576.000000	0.303052
577.000000	0.303415
578.000000	0.303719
579.000000	0.304005
580.000000	0.304330
581.000000	0.304693
582.000000	0.305020
583.000000	0.305322
584.000000	0.305624
585.000000	0.305976
586.000000	0.306305
587.000000	0.306551
588.000000	0.306697
589.000000	0.306935
590.000000	0.307219
591.000000	0.307511
592.000000	0.307860
593.000000	0.308199
594.000000	0.308496
595.000000	0.308755
596.000000	0.308976
597.000000	0.309215
598.000000	0.309433
599.000000	0.309558
600.000000	0.309755
601.000000	0.310054
602.000000	0.310255
603.000000	0.310343
604.000000	0.310406
605.000000	0.310705
606.000000	0.310956
607.000000	0.311136
608.000000	0.311360
609.000000	0.311580
610.000000	0.311814
611.000000	0.312073
612.000000	0.312208
613.000000	0.312352
614.000000	0.312594
615.000000	0.312674
616.000000	0.312728
617.000000	0.312802
618.000000	0.312970
619.000000	0.313160
620.000000	0.313318
621.000000	0.313461
622.000000	0.313615
623.000000	0.313783
624.000000	0.313964
625.000000	0.314178
626.000000	0.314291
627.000000	0.314305
628.000000	0.314428
629.000000	0.314695
630.000000	0.314917
631.000000	0.315070
632.000000	0.315214
633.000000	0.315374
634.000000	0.315540
635.000000	0.315686
636.000000	0.315819
637.000000	0.315943
638.000000	0.316122
639.000000	0.316273
640.000000	0.316442
641.000000	0.316614
642.000000	0.316836
643.000000	0.317060
644.000000	0.317216
645.000000	0.317266
646.000000	0.317339
647.000000	0.317510
648.000000	0.317769
649.000000	0.318019
650.000000	0.318189
651.000000	0.318298
652.000000	0.318417
653.000000	0.318574
654.000000	0.318691
655.000000	0.318857
656.000000	0.319092
657.000000	0.319319
658.000000	0.319481
659.000000	0.319590
660.000000	0.319668
661.000000	0.319809
662.000000	0.319989
663.000000	0.320217
664.000000	0.320399
665.000000	0.320576
666.000000	0.320753
667.000000	0.320903
668.000000	0.321106
669.000000	0.321264
670.000000	0.321358
671.000000	0.321535
672.000000	0.321749
673.000000	0.321962
674.000000	0.322154
675.000000	0.322256
676.000000	0.322349
677.000000	0.322550
678.000000	0.322702
679.000000	0.322862
680.000000	0.323060
681.000000	0.323144
682.000000	0.323291
683.000000	0.323471
684.000000	0.323695
685.000000	0.323834
686.000000	0.323935
687.000000	0.324061
688.000000	0.324350
689.000000	0.324612
690.000000	0.324736
691.000000	0.324818
692.000000	0.324911
693.000000	0.325107
694.000000	0.325366
695.000000	0.325554
696.000000	0.325694
697.000000	0.325881
698.000000	0.326067
699.000000	0.326227
700.000000	0.326362
701.000000	0.326513
702.000000	0.326692
703.000000	0.326870
704.000000	0.327007
705.000000	0.327169
706.000000	0.327337
707.000000	0.327556
708.000000	0.327748
709.000000	0.327885
710.000000	0.327991
711.000000	0.328120
712.000000	0.328243
713.000000	0.328367
714.000000	0.328470
715.000000	0.328687
716.000000	0.328988
717.000000	0.329234
718.000000	0.329407
719.000000	0.329510
720.000000	0.329583
721.000000	0.329660
722.000000	0.329802
723.000000	0.330039
724.000000	0.330148
725.000000	0.330245
726.000000	0.330419
727.000000	0.330563
728.000000	0.330581
729.000000	0.330652
730.000000	0.330841
731.000000	0.330950
732.000000	0.331085
733.000000	0.331284
734.000000	0.331358
735.000000	0.331437
736.000000	0.331637
737.000000	0.331794
738.000000	0.331888
739.000000	0.332023
740.000000	0.332097
741.000000	0.332168
742.000000	0.332342
743.000000	0.332545
744.000000	0.332588
745.000000	0.332659
746.000000	0.332795
747.000000	0.332882
748.000000	0.333084
749.000000	0.333231
750.000000	0.333218
751.000000	0.333338
752.000000	0.333455
753.000000	0.333553
754.000000	0.333681
755.000000	0.333737
756.000000	0.333753
757.000000	0.333751
758.000000	0.333818
759.000000	0.333906
760.000000	0.333922
761.000000	0.333995
762.000000	0.334118
763.000000	0.334237
764.000000	0.334346
765.000000	0.334463
766.000000	0.334607
767.000000	0.334756
768.000000	0.334749
769.000000	0.334750
770.000000	0.334821
771.000000	0.334855
772.000000	0.334932
773.000000	0.334979
774.000000	0.335015
775.000000	0.335064
776.000000	0.335145
777.000000	0.335236
778.000000	0.335275
779.000000	0.335341
780.000000	0.335434
781.000000	0.335454
782.000000	0.335528
783.000000	0.335613
784.000000	0.335484
785.000000	0.335491
786.000000	0.335559
787.000000	0.335616
788.000000	0.335664
789.000000	0.335698
790.000000	0.335764
791.000000	0.335970
792.000000	0.336088
793.000000	0.336091
794.000000	0.336054
795.000000	0.336227
796.000000	0.336343
797.000000	0.336302
798.000000	0.336196
799.000000	0.336198
800.000000	0.336251
801.000000	0.336250
802.000000	0.336295
803.000000	0.336360
804.000000	0.336422
805.000000	0.336311
806.000000	0.336294
807.000000	0.336456
808.000000	0.336606
809.000000	0.336593
810.000000	0.336505
811.000000	0.336437
812.000000	0.336446
813.000000	0.336483
814.000000	0.336504
815.000000	0.336492
816.000000	0.336490
817.000000	0.336531
818.000000	0.336548
819.000000	0.336650
820.000000	0.336695
821.000000	0.336603
822.000000	0.336558
823.000000	0.336555
824.000000	0.336518
825.000000	0.336486
826.000000	0.336482
827.000000	0.336438
828.000000	0.336383
829.000000	0.336397
830.000000	0.336430
831.000000	0.336484
832.000000	0.336408
833.000000	0.336332
834.000000	0.336271
835.000000	0.336244
836.000000	0.336184
837.000000	0.336180
838.000000	0.336247
839.000000	0.336286
840.000000	0.336259
841.000000	0.336262
842.000000	0.336324
843.000000	0.336318
844.000000	0.336246
845.000000	0.336113
846.000000	0.336011
847.000000	0.336110
848.000000	0.336143
849.000000	0.335905
850.000000	0.335958
851.000000	0.335907
852.000000	0.335755
853.000000	0.336010
854.000000	0.335929
855.000000	0.335752
856.000000	0.335759
857.000000	0.335704
858.000000	0.335667
859.000000	0.335583
860.000000	0.335372
861.000000	0.335313
862.000000	0.335336
863.000000	0.335182
864.000000	0.335042
865.000000	0.334924
866.000000	0.334850
867.000000	0.334814
868.000000	0.334797
869.000000	0.334682
870.000000	0.334480
871.000000	0.334417
872.000000	0.334344
873.000000	0.334147
874.000000	0.334098
875.000000	0.334043
876.000000	0.333928
877.000000	0.333688
878.000000	0.333502
879.000000	0.333463
880.000000	0.333388
881.000000	0.333132
882.000000	0.332922
883.000000	0.332775
884.000000	0.332560
885.000000	0.332374
886.000000	0.332239
887.000000	0.332163
888.000000	0.332062
889.000000	0.331851
890.000000	0.331520
891.000000	0.331342
892.000000	0.331280
893.000000	0.331182
894.000000	0.331122
895.000000	0.331139
896.000000	0.330911
897.000000	0.330523
898.000000	0.330202
899.000000	0.329979
900.000000	0.329873
901.000000	0.329785
902.000000	0.329607
903.000000	0.329543
904.000000	0.329500
905.000000	0.329254
906.000000	0.329140
907.000000	0.329033
908.000000	0.328904
909.000000	0.328659
910.000000	0.328485
911.000000	0.328363
912.000000	0.328259
913.000000	0.328219
914.000000	0.327937
915.000000	0.327565
916.000000	0.327407
917.000000	0.327189
918.000000	0.326953
919.000000	0.326726
920.000000	0.326427
921.000000	0.326195
922.000000	0.326038
923.000000	0.325865
924.000000	0.325677
925.000000	0.325476
926.000000	0.325268
927.000000	0.324933
928.000000	0.324690
929.000000	0.324451
930.000000	0.324101
931.000000	0.323975
932.000000	0.323887
933.000000	0.323667
934.000000	0.323106
935.000000	0.322779
936.000000	0.322600
937.000000	0.322318
938.000000	0.322192
939.000000	0.322060
940.000000	0.321799
941.000000	0.321516
942.000000	0.321416
943.000000	0.321265
944.000000	0.320868
945.000000	0.320685
946.000000	0.320270
947.000000	0.319888
948.000000	0.319824
949.000000	0.319670
950.000000	0.319554
951.000000	0.319387
952.000000	0.319014
953.000000	0.318779
954.000000	0.318588
955.000000	0.318280
956.000000	0.318060
957.000000	0.317810
958.000000	0.317477
959.000000	0.317193
960.000000	0.317082
961.000000	0.316801
962.000000	0.316426
963.000000	0.316590
964.000000	0.316417
965.000000	0.316037
966.000000	0.315637
967.000000	0.315446
968.000000	0.315164
969.000000	0.314907
970.000000	0.315050
971.000000	0.315165
972.000000	0.314948
973.000000	0.314462
974.000000	0.314371
975.000000	0.314011
976.000000	0.313558
977.000000	0.313244
978.000000	0.312956
979.000000	0.312781
980.000000	0.312569
981.000000	0.312543
982.000000	0.312363
983.000000	0.312060
984.000000	0.311831
985.000000	0.311830
986.000000	0.311737
987.000000	0.311634
988.000000	0.311449
989.000000	0.311014
990.000000	0.310773
991.000000	0.310768
992.000000	0.310880
993.000000	0.310804
994.000000	0.310518
995.000000	0.310202
996.000000	0.309798
997.000000	0.309797
998.000000	0.309597
999.000000	0.309235
1000.000000	0.309590
1001.000000	0.310178
1002.000000	0.309226
1003.000000	0.309018
1004.000000	0.308521
1005.000000	0.307480
1006.000000	0.307063
1007.000000	0.307090
1008.000000	0.306669
1009.000000	0.306296
1010.000000	0.306593
1011.000000	0.306911
1012.000000	0.307579
1013.000000	0.308185
1014.000000	0.308145
1015.000000	0.307681
1016.000000	0.307400
1017.000000	0.307020
1018.000000	0.306755
1019.000000	0.306603
1020.000000	0.306309
1021.000000	0.306010
1022.000000	0.306399
1023.000000	0.306631
1024.000000	0.306561
1025.000000	0.306949
1026.000000	0.307357
1027.000000	0.306725
1028.000000	0.306355
1029.000000	0.306361
1030.000000	0.306228
1031.000000	0.306396
1032.000000	0.306726
1033.000000	0.306869
1034.000000	0.306891
1035.000000	0.306404
1036.000000	0.306525
1037.000000	0.307273
1038.000000	0.307321
1039.000000	0.307318
1040.000000	0.307332
1041.000000	0.307399
1042.000000	0.307011
1043.000000	0.306819
1044.000000	0.307456
1045.000000	0.307856
1046.000000	0.307686
1047.000000	0.307884
1048.000000	0.308405
1049.000000	0.308512
1050.000000	0.308429
1051.000000	0.308404
1052.000000	0.307881
1053.000000	0.308053
1054.000000	0.309089
1055.000000	0.309508
1056.000000	0.310091
1057.000000	0.310513
1058.000000	0.310388
1059.000000	0.309859
1060.000000	0.309797
1061.000000	0.309974
1062.000000	0.309987
1063.000000	0.310058
1064.000000	0.310186
1065.000000	0.310258
1066.000000	0.310518
1067.000000	0.310951
1068.000000	0.311223
1069.000000	0.311548
1070.000000	0.311682
1071.000000	0.311558
1072.000000	0.311705
1073.000000	0.311923
1074.000000	0.312352
1075.000000	0.312786
1076.000000	0.312869
1077.000000	0.312601
1078.000000	0.312587
1079.000000	0.312767
1080.000000	0.313271
1081.000000	0.313314
1082.000000	0.313327
1083.000000	0.313539
1084.000000	0.313468
1085.000000	0.313739
1086.000000	0.314748
1087.000000	0.315125
1088.000000	0.314911
1089.000000	0.315022
1090.000000	0.314994
1091.000000	0.315005
1092.000000	0.315469
1093.000000	0.316318
1094.000000	0.316566
1095.000000	0.316639
1096.000000	0.316765
1097.000000	0.316542
1098.000000	0.316563
1099.000000	0.316788
1100.000000	0.316881
1101.000000	0.316680
1102.000000	0.316807
1103.000000	0.317002
1104.000000	0.317355
1105.000000	0.318198
1106.000000	0.318571
1107.000000	0.318678
1108.000000	0.318845
1109.000000	0.318815
1110.000000	0.318748
1111.000000	0.318979
1112.000000	0.319495
1113.000000	0.319818
1114.000000	0.320332
1115.000000	0.320462
1116.000000	0.320249
1117.000000	0.320371
1118.000000	0.320512
1119.000000	0.320503
1120.000000	0.320549
1121.000000	0.320659
1122.000000	0.320722
1123.000000	0.320967
1124.000000	0.321205
1125.000000	0.321473
1126.000000	0.321693
1127.000000	0.321785
1128.000000	0.321836
1129.000000	0.321945
1130.000000	0.322030
1131.000000	0.321944
1132.000000	0.322056
1133.000000	0.322416
1134.000000	0.322594
1135.000000	0.322663
1136.000000	0.322791
1137.000000	0.322979
1138.000000	0.322944
1139.000000	0.322817
1140.000000	0.322925
1141.000000	0.322971
1142.000000	0.323010
1143.000000	0.323159
1144.000000	0.323374
1145.000000	0.323541
1146.000000	0.323248
1147.000000	0.323254
1148.000000	0.323273
1149.000000	0.323285
1150.000000	0.323270
1151.000000	0.323390
1152.000000	0.323557
1153.000000	0.323640
1154.000000	0.323773
1155.000000	0.323787
1156.000000	0.323629
1157.000000	0.323613
1158.000000	0.323562
1159.000000	0.323530
1160.000000	0.323601
1161.000000	0.323585
1162.000000	0.323575
1163.000000	0.323649
1164.000000	0.323693
1165.000000	0.323566
1166.000000	0.323541
1167.000000	0.323507
1168.000000	0.323393
1169.000000	0.323241
1170.000000	0.323220
1171.000000	0.323232
1172.000000	0.323282
1173.000000	0.323439
1174.000000	0.323486
1175.000000	0.323430
1176.000000	0.323390
1177.000000	0.323450
1178.000000	0.323419
1179.000000	0.323301
1180.000000	0.323201
1181.000000	0.323122
1182.000000	0.323086
1183.000000	0.323205
1184.000000	0.323214
1185.000000	0.323204
1186.000000	0.323158
1187.000000	0.323177
1188.000000	0.323213
1189.000000	0.323171
1190.000000	0.323179
1191.000000	0.323159
1192.000000	0.323150
1193.000000	0.323255
1194.000000	0.323325
1195.000000	0.323383
1196.000000	0.323416
1197.000000	0.323392
1198.000000	0.323305
1199.000000	0.323325
1200.000000	0.323334
1201.000000	0.323375
1202.000000	0.323505
1203.000000	0.323586
1204.000000	0.323548
1205.000000	0.323542
1206.000000	0.323475
1207.000000	0.323387
1208.000000	0.323385
1209.000000	0.323530
1210.000000	0.323542
1211.000000	0.323567
1212.000000	0.323559
1213.000000	0.323447
1214.000000	0.323434
1215.000000	0.323511
1216.000000	0.323505
1217.000000	0.323465
1218.000000	0.323374
1219.000000	0.323203
1220.000000	0.323111
1221.000000	0.323128
1222.000000	0.323176
1223.000000	0.323115
1224.000000	0.323066
1225.000000	0.323196
1226.000000	0.323204
1227.000000	0.323162
1228.000000	0.323325
1229.000000	0.323289
1230.000000	0.322990
1231.000000	0.322800
1232.000000	0.322705
1233.000000	0.322786
1234.000000	0.322959
1235.000000	0.322998
1236.000000	0.323037
1237.000000	0.323099
1238.000000	0.323013
1239.000000	0.322941
1240.000000	0.322924
1241.000000	0.322888
1242.000000	0.322869
1243.000000	0.322820
1244.000000	0.322819
1245.000000	0.323100
1246.000000	0.323244
1247.000000	0.323268
1248.000000	0.323262
1249.000000	0.323199
1250.000000	0.323220
1251.000000	0.323131
1252.000000	0.323005
1253.000000	0.322909
1254.000000	0.322813
1255.000000	0.322578
1256.000000	0.322522
1257.000000	0.322674
1258.000000	0.322688
1259.000000	0.322606
1260.000000	0.322612
1261.000000	0.322548
1262.000000	0.322496
1263.000000	0.322515
1264.000000	0.322455
1265.000000	0.322516
1266.000000	0.322453
1267.000000	0.322434
1268.000000	0.322430
1269.000000	0.322316
1270.000000	0.322454
1271.000000	0.322441
1272.000000	0.322518
1273.000000	0.322642
1274.000000	0.322401
1275.000000	0.322323
1276.000000	0.322369
1277.000000	0.322372
1278.000000	0.322213
1279.000000	0.322210
1280.000000	0.322237
1281.000000	0.322138
1282.000000	0.322077
1283.000000	0.322148
1284.000000	0.322114
1285.000000	0.322130
1286.000000	0.322249
1287.000000	0.322300
1288.000000	0.322332
1289.000000	0.322411
1290.000000	0.322408
1291.000000	0.322391
1292.000000	0.322434
1293.000000	0.322315
1294.000000	0.322198
1295.000000	0.322193
1296.000000	0.321953
1297.000000	0.321872
1298.000000	0.321986
1299.000000	0.321910
1300.000000	0.321927
1301.000000	0.321866
1302.000000	0.321756
1303.000000	0.321661
1304.000000	0.321571
1305.000000	0.321594
1306.000000	0.321581
1307.000000	0.321512
1308.000000	0.321553
1309.000000	0.321738
1310.000000	0.321741
1311.000000	0.321691
1312.000000	0.321717
1313.000000	0.321659
1314.000000	0.321614
1315.000000	0.321641
1316.000000	0.321671
1317.000000	0.321585
1318.000000	0.321454
1319.000000	0.321332
1320.000000	0.321199
1321.000000	0.320997
1322.000000	0.320850
1323.000000	0.320777
1324.000000	0.320692
1325.000000	0.320697
1326.000000	0.320773
1327.000000	0.320691
1328.000000	0.320605
1329.000000	0.320476
1330.000000	0.320282
1331.000000	0.320112
1332.000000	0.320044
1333.000000	0.319883
1334.000000	0.319689
1335.000000	0.319591
1336.000000	0.319508
1337.000000	0.319365
1338.000000	0.319177
1339.000000	0.319061
1340.000000	0.318848
1341.000000	0.318628
1342.000000	0.318547
1343.000000	0.318354
1344.000000	0.318113
1345.000000	0.317910
1346.000000	0.317730
1347.000000	0.317583
1348.000000	0.317590
1349.000000	0.317510
1350.000000	0.317453
1351.000000	0.317390
1352.000000	0.317234
1353.000000	0.317126
1354.000000	0.316999
1355.000000	0.316764
1356.000000	0.316669
1357.000000	0.316534
1358.000000	0.316372
1359.000000	0.316365
1360.000000	0.316252
1361.000000	0.316089
1362.000000	0.315893
1363.000000	0.315607
1364.000000	0.315408
1365.000000	0.315193
1366.000000	0.315037
1367.000000	0.314952
1368.000000	0.314849
1369.000000	0.314708
1370.000000	0.314523
1371.000000	0.314374
1372.000000	0.314234
1373.000000	0.314017
1374.000000	0.313828
1375.000000	0.313762
1376.000000	0.313603
1377.000000	0.313413
1378.000000	0.313243
1379.000000	0.312702
1380.000000	0.312070
1381.000000	0.311529
1382.000000	0.311012
1383.000000	0.310537
1384.000000	0.309910
1385.000000	0.309364
1386.000000	0.308848
1387.000000	0.308175
1388.000000	0.307588
1389.000000	0.307139
1390.000000	0.306746
1391.000000	0.306396
1392.000000	0.306226
1393.000000	0.306036
1394.000000	0.305929
1395.000000	0.305684
1396.000000	0.305465
1397.000000	0.305141
1398.000000	0.304580
1399.000000	0.304176
1400.000000	0.303912
1401.000000	0.303424
1402.000000	0.302958
1403.000000	0.302289
1404.000000	0.301447
1405.000000	0.300628
1406.000000	0.299877
1407.000000	0.299203
1408.000000	0.298457
1409.000000	0.297604
1410.000000	0.296744
1411.000000	0.295867
1412.000000	0.295162
1413.000000	0.294600
1414.000000	0.293951
1415.000000	0.293219
1416.000000	0.292459
1417.000000	0.291754
1418.000000	0.291011
1419.000000	0.290289
1420.000000	0.289529
1421.000000	0.288919
1422.000000	0.288339
1423.000000	0.287799
1424.000000	0.287300
1425.000000	0.286629
1426.000000	0.285757
1427.000000	0.285044
1428.000000	0.284403
1429.000000	0.283690
1430.000000	0.283093
1431.000000	0.282544
1432.000000	0.282011
1433.000000	0.281577
1434.000000	0.281064
1435.000000	0.280607
1436.000000	0.280126
1437.000000	0.279542
1438.000000	0.278964
1439.000000	0.278475
1440.000000	0.278022
1441.000000	0.277589
1442.000000	0.277176
1443.000000	0.276767
1444.000000	0.276300
1445.000000	0.275886
1446.000000	0.275443
1447.000000	0.275041
1448.000000	0.274757
1449.000000	0.274445
1450.000000	0.274130
1451.000000	0.273888
1452.000000	0.273548
1453.000000	0.273218
1454.000000	0.272939
1455.000000	0.272667
1456.000000	0.272521
1457.000000	0.272409
1458.000000	0.272338
1459.000000	0.272296
1460.000000	0.272158
1461.000000	0.271951
1462.000000	0.271680
1463.000000	0.271462
1464.000000	0.271373
1465.000000	0.271288
1466.000000	0.271184
1467.000000	0.271085
1468.000000	0.270965
1469.000000	0.270945
1470.000000	0.270981
1471.000000	0.271045
1472.000000	0.271120
1473.000000	0.271278
1474.000000	0.271369
1475.000000	0.271486
1476.000000	0.271605
1477.000000	0.271737
1478.000000	0.271933
1479.000000	0.272042
1480.000000	0.272222
1481.000000	0.272348
1482.000000	0.272378
1483.000000	0.272598
1484.000000	0.272933
1485.000000	0.273208
1486.000000	0.273559
1487.000000	0.273869
1488.000000	0.274130
1489.000000	0.274446
1490.000000	0.274747
1491.000000	0.275010
1492.000000	0.275126
1493.000000	0.275424
1494.000000	0.275759
1495.000000	0.276074
1496.000000	0.276543
1497.000000	0.276877
1498.000000	0.277131
1499.000000	0.277309
1500.000000	0.277632
1501.000000	0.277908
1502.000000	0.278088
1503.000000	0.278421
1504.000000	0.278640
1505.000000	0.278797
1506.000000	0.279149
1507.000000	0.279397
1508.000000	0.279580
1509.000000	0.279789
1510.000000	0.279910
1511.000000	0.280063
1512.000000	0.280270
1513.000000	0.280473
1514.000000	0.280695
1515.000000	0.280810
1516.000000	0.280967
1517.000000	0.281138
1518.000000	0.281235
1519.000000	0.281300
1520.000000	0.281159
1521.000000	0.280989
1522.000000	0.281007
1523.000000	0.281000
1524.000000	0.281088
1525.000000	0.281292
1526.000000	0.281412
1527.000000	0.281530
1528.000000	0.281690
1529.000000	0.281797
1530.000000	0.281789
1531.000000	0.281795
1532.000000	0.281782
1533.000000	0.281762
1534.000000	0.281730
1535.000000	0.281696
1536.000000	0.281684
1537.000000	0.281752
1538.000000	0.281930
1539.000000	0.282085
1540.000000	0.282255
1541.000000	0.282441
1542.000000	0.282495
1543.000000	0.282566
1544.000000	0.282636
1545.000000	0.282710
1546.000000	0.282763
1547.000000	0.282730
1548.000000	0.282732
1549.000000	0.282702
1550.000000	0.282637
1551.000000	0.282584
1552.000000	0.282562
1553.000000	0.282557
1554.000000	0.282537
1555.000000	0.282593
1556.000000	0.282693
1557.000000	0.282657
1558.000000	0.282653
1559.000000	0.282611
1560.000000	0.282598
1561.000000	0.282599
1562.000000	0.282602
1563.000000	0.282663
1564.000000	0.282711
1565.000000	0.282741
1566.000000	0.282697
1567.000000	0.282678
1568.000000	0.282730
1569.000000	0.282887
1570.000000	0.282910
1571.000000	0.282953
1572.000000	0.282993
1573.000000	0.282934
1574.000000	0.282918
1575.000000	0.282948
1576.000000	0.282980
1577.000000	0.282971
1578.000000	0.282952
1579.000000	0.283071
1580.000000	0.283042
1581.000000	0.282974
1582.000000	0.282856
1583.000000	0.282593
1584.000000	0.282500
1585.000000	0.282515
1586.000000	0.282524
1587.000000	0.282665
1588.000000	0.282697
1589.000000	0.282638
1590.000000	0.282669
1591.000000	0.282762
1592.000000	0.282842
1593.000000	0.282993
1594.000000	0.283069
1595.000000	0.283115
1596.000000	0.283192
1597.000000	0.283330
1598.000000	0.283393
1599.000000	0.283486
1600.000000	0.283501
1601.000000	0.283456
1602.000000	0.283443
1603.000000	0.283430
1604.000000	0.283472
1605.000000	0.283654
1606.000000	0.283663
1607.000000	0.283630
1608.000000	0.283627
1609.000000	0.283543
1610.000000	0.283522
1611.000000	0.283682
1612.000000	0.283703
1613.000000	0.283692
1614.000000	0.283734
1615.000000	0.283852
1616.000000	0.283891
1617.000000	0.283871
1618.000000	0.283926
1619.000000	0.283951
1620.000000	0.283930
1621.000000	0.283913
1622.000000	0.284030
1623.000000	0.284102
1624.000000	0.284240
1625.000000	0.284479
1626.000000	0.284599
1627.000000	0.284643
1628.000000	0.284761
1629.000000	0.284894
1630.000000	0.285005
1631.000000	0.285024
1632.000000	0.285074
1633.000000	0.285135
1634.000000	0.285254
1635.000000	0.285482
1636.000000	0.285629
1637.000000	0.285805
1638.000000	0.285905
1639.000000	0.285966
1640.000000	0.286043
1641.000000	0.286121
1642.000000	0.286257
1643.000000	0.286537
1644.000000	0.286653
1645.000000	0.286697
1646.000000	0.286765
1647.000000	0.286774
1648.000000	0.286743
1649.000000	0.286835
1650.000000	0.286917
1651.000000	0.286916
1652.000000	0.287053
1653.000000	0.287247
1654.000000	0.287460
1655.000000	0.287671
1656.000000	0.287833
1657.000000	0.288090
1658.000000	0.288280
1659.000000	0.288554
1660.000000	0.288704
1661.000000	0.288721
1662.000000	0.288764
1663.000000	0.288594
1664.000000	0.288744
1665.000000	0.289065
1666.000000	0.289346
1667.000000	0.289791
1668.000000	0.289926
1669.000000	0.289791
1670.000000	0.289884
1671.000000	0.290034
1672.000000	0.290211
1673.000000	0.290530
1674.000000	0.290568
1675.000000	0.290725
1676.000000	0.290773
1677.000000	0.290830
1678.000000	0.290879
1679.000000	0.290881
1680.000000	0.290970
1681.000000	0.291070
1682.000000	0.291174
1683.000000	0.291302
1684.000000	0.291385
1685.000000	0.291339
1686.000000	0.291399
1687.000000	0.291463
1688.000000	0.291358
1689.000000	0.291530
1690.000000	0.291483
1691.000000	0.291388
1692.000000	0.291514
1693.000000	0.291601
1694.000000	0.291851
1695.000000	0.292071
1696.000000	0.291969
1697.000000	0.291917
1698.000000	0.291798
1699.000000	0.291774
1700.000000	0.291897
1701.000000	0.291998
1702.000000	0.291857
1703.000000	0.291817
1704.000000	0.291978
1705.000000	0.292004
1706.000000	0.292001
1707.000000	0.292073
1708.000000	0.292050
1709.000000	0.292041
1710.000000	0.292304
1711.000000	0.292412
1712.000000	0.292317
1713.000000	0.292421
1714.000000	0.292697
1715.000000	0.292834
1716.000000	0.293091
1717.000000	0.293209
1718.000000	0.293033
1719.000000	0.293042
1720.000000	0.293249
1721.000000	0.293252
1722.000000	0.293146
1723.000000	0.293182
1724.000000	0.293168
1725.000000	0.293259
1726.000000	0.293490
1727.000000	0.293597
1728.000000	0.293572
1729.000000	0.293552
1730.000000	0.293619
1731.000000	0.293699
1732.000000	0.293795
1733.000000	0.293940
1734.000000	0.293993
1735.000000	0.294107
1736.000000	0.294181
1737.000000	0.294389
1738.000000	0.294808
1739.000000	0.294866
1740.000000	0.294824
1741.000000	0.294772
1742.000000	0.294445
1743.000000	0.294486
1744.000000	0.294727
1745.000000	0.294825
1746.000000	0.294926
1747.000000	0.295184
1748.000000	0.295258
1749.000000	0.295283
1750.000000	0.295297
1751.000000	0.295294
1752.000000	0.295352
1753.000000	0.295371
1754.000000	0.295358
1755.000000	0.295081
1756.000000	0.295090
1757.000000	0.295304
1758.000000	0.295491
1759.000000	0.295905
1760.000000	0.296159
1761.000000	0.296252
1762.000000	0.296364
1763.000000	0.296524
1764.000000	0.296546
1765.000000	0.296345
1766.000000	0.296353
1767.000000	0.296329
1768.000000	0.296262
1769.000000	0.296458
1770.000000	0.296470
1771.000000	0.296256
1772.000000	0.296090
1773.000000	0.295713
1774.000000	0.295712
1775.000000	0.295917
1776.000000	0.296146
1777.000000	0.296716
1778.000000	0.296845
1779.000000	0.296716
1780.000000	0.296741
1781.000000	0.296547
1782.000000	0.296756
1783.000000	0.297305
1784.000000	0.297553
1785.000000	0.297768
1786.000000	0.297730
1787.000000	0.297881
1788.000000	0.298054
1789.000000	0.298055
1790.000000	0.298172
1791.000000	0.298265
1792.000000	0.298639
1793.000000	0.298832
1794.000000	0.298884
1795.000000	0.298978
1796.000000	0.299022
1797.000000	0.298978
1798.000000	0.298776
1799.000000	0.298789
1800.000000	0.298913
1801.000000	0.299222
1802.000000	0.299012
1803.000000	0.298244
1804.000000	0.298234
1805.000000	0.298280
1806.000000	0.298526
1807.000000	0.299399
1808.000000	0.299906
1809.000000	0.300414
1810.000000	0.300569
1811.000000	0.300900
1812.000000	0.301362
1813.000000	0.301499
1814.000000	0.301892
1815.000000	0.301595
1816.000000	0.300137
1817.000000	0.299645
1818.000000	0.299657
1819.000000	0.298851
1820.000000	0.299471
1821.000000	0.300484
1822.000000	0.300734
1823.000000	0.300670
1824.000000	0.300792
1825.000000	0.300563
1826.000000	0.300574
1827.000000	0.300999
1828.000000	0.300708
1829.000000	0.300538
1830.000000	0.299606
1831.000000	0.299315
1832.000000	0.299029
1833.000000	0.299139
1834.000000	0.299784
1835.000000	0.300131
1836.000000	0.300630
1837.000000	0.300641
1838.000000	0.300002
1839.000000	0.299911
1840.000000	0.299772
1841.000000	0.299191
1842.000000	0.298524
1843.000000	0.297220
1844.000000	0.296930
1845.000000	0.296914
1846.000000	0.296910
1847.000000	0.297298
1848.000000	0.298041
1849.000000	0.298240
1850.000000	0.297462
1851.000000	0.297250
1852.000000	0.297009
1853.000000	0.297190
1854.000000	0.297622
1855.000000	0.297562
1856.000000	0.297700
1857.000000	0.297338
1858.000000	0.296003
1859.000000	0.294858
1860.000000	0.294030
1861.000000	0.293181
1862.000000	0.292685
1863.000000	0.293021
1864.000000	0.292583
1865.000000	0.292077
1866.000000	0.291322
1867.000000	0.290069
1868.000000	0.288833
1869.000000	0.287715
1870.000000	0.286458
1871.000000	0.284792
1872.000000	0.283399
1873.000000	0.282393
1874.000000	0.281691
1875.000000	0.280788
1876.000000	0.280284
1877.000000	0.278891
1878.000000	0.276809
1879.000000	0.274648
1880.000000	0.272371
1881.000000	0.270094
1882.000000	0.267894
1883.000000	0.266193
1884.000000	0.264245
1885.000000	0.261998
1886.000000	0.259725
1887.000000	0.257605
1888.000000	0.254873
1889.000000	0.251778
1890.000000	0.249435
1891.000000	0.247018
1892.000000	0.244299
1893.000000	0.242234
1894.000000	0.240017
1895.000000	0.237344
1896.000000	0.234441
1897.000000	0.231953
1898.000000	0.228910
1899.000000	0.226461
1900.000000	0.224459
1901.000000	0.221337
1902.000000	0.219020
1903.000000	0.216024
1904.000000	0.212746
1905.000000	0.210993
1906.000000	0.208577
1907.000000	0.205710
1908.000000	0.203405
1909.000000	0.201784
1910.000000	0.199657
1911.000000	0.197994
1912.000000	0.196485
1913.000000	0.194787
1914.000000	0.192940
1915.000000	0.191230
1916.000000	0.189460
1917.000000	0.187961
1918.000000	0.186701
1919.000000	0.185753
1920.000000	0.184756
1921.000000	0.183858
1922.000000	0.182594
1923.000000	0.181541
1924.000000	0.180721
1925.000000	0.180272
1926.000000	0.180161
1927.000000	0.179927
1928.000000	0.179656
1929.000000	0.179309
1930.000000	0.178906
1931.000000	0.179165
1932.000000	0.179487
1933.000000	0.179640
1934.000000	0.180279
1935.000000	0.180463
1936.000000	0.180256
1937.000000	0.180255
1938.000000	0.180288
1939.000000	0.180126
1940.000000	0.179755
1941.000000	0.179360
1942.000000	0.179287
1943.000000	0.179168
1944.000000	0.179279
1945.000000	0.179895
1946.000000	0.179973
1947.000000	0.179329
1948.000000	0.178766
1949.000000	0.178029
1950.000000	0.177395
1951.000000	0.176741
1952.000000	0.176379
1953.000000	0.175483
1954.000000	0.174898
1955.000000	0.174388
1956.000000	0.174289
1957.000000	0.174793
1958.000000	0.174843
1959.000000	0.174964
1960.000000	0.174893
1961.000000	0.174342
1962.000000	0.174048
1963.000000	0.173799
1964.000000	0.173726
1965.000000	0.173633
1966.000000	0.173879
1967.000000	0.174257
1968.000000	0.174622
1969.000000	0.174928
1970.000000	0.175042
1971.000000	0.174748
1972.000000	0.174310
1973.000000	0.174129
1974.000000	0.174112
1975.000000	0.174119
1976.000000	0.174404
1977.000000	0.174446
1978.000000	0.174363
1979.000000	0.174839
1980.000000	0.175251
1981.000000	0.175692
1982.000000	0.176474
1983.000000	0.176157
1984.000000	0.176198
1985.000000	0.176407
1986.000000	0.176515
1987.000000	0.176322
1988.000000	0.176947
1989.000000	0.177375
1990.000000	0.177307
1991.000000	0.178064
1992.000000	0.178696
1993.000000	0.179567
1994.000000	0.181233
1995.000000	0.182034
1996.000000	0.182587
1997.000000	0.183442
1998.000000	0.184229
1999.000000	0.184811
2000.000000	0.185401
2001.000000	0.186412
2002.000000	0.187069
2003.000000	0.187584
2004.000000	0.188464
2005.000000	0.189074
2006.000000	0.189163
2007.000000	0.189584
2008.000000	0.190067
2009.000000	0.190414
2010.000000	0.191046
2011.000000	0.192068
2012.000000	0.192531
2013.000000	0.192665
2014.000000	0.193148
2015.000000	0.193335
2016.000000	0.193951
2017.000000	0.194793
2018.000000	0.195402
2019.000000	0.195894
2020.000000	0.196624
2021.000000	0.197821
2022.000000	0.199648
2023.000000	0.200842
2024.000000	0.202489
2025.000000	0.203318
2026.000000	0.203153
2027.000000	0.203320
2028.000000	0.203457
2029.000000	0.204269
2030.000000	0.205275
2031.000000	0.205886
2032.000000	0.206913
2033.000000	0.207199
2034.000000	0.207617
2035.000000	0.208209
2036.000000	0.208595
2037.000000	0.208691
2038.000000	0.209166
2039.000000	0.209893
2040.000000	0.210188
2041.000000	0.210920
2042.000000	0.211727
2043.000000	0.212631
2044.000000	0.213390
2045.000000	0.214250
2046.000000	0.215199
2047.000000	0.215875
2048.000000	0.216380
2049.000000	0.217103
2050.000000	0.217539
2051.000000	0.217871
2052.000000	0.217954
2053.000000	0.218110
2054.000000	0.218197
2055.000000	0.218778
2056.000000	0.219095
2057.000000	0.219627
2058.000000	0.220294
2059.000000	0.220264
2060.000000	0.220601
2061.000000	0.221102
2062.000000	0.221800
2063.000000	0.222476
2064.000000	0.223473
2065.000000	0.225343
2066.000000	0.226445
2067.000000	0.227809
2068.000000	0.228558
2069.000000	0.228997
2070.000000	0.229200
2071.000000	0.228443
2072.000000	0.228483
2073.000000	0.228460
2074.000000	0.227941
2075.000000	0.228414
2076.000000	0.229663
2077.000000	0.230701
2078.000000	0.232394
2079.000000	0.233608
2080.000000	0.234931
2081.000000	0.235832
2082.000000	0.236588
2083.000000	0.236697
2084.000000	0.236831
2085.000000	0.236924
2086.000000	0.236845
2087.000000	0.237138
2088.000000	0.236969
2089.000000	0.236639
2090.000000	0.236819
2091.000000	0.237092
2092.000000	0.237616
2093.000000	0.238802
2094.000000	0.239582
2095.000000	0.240429
2096.000000	0.241221
2097.000000	0.242035
2098.000000	0.242320
2099.000000	0.242963
2100.000000	0.243180
2101.000000	0.243148
2102.000000	0.244270
2103.000000	0.245129
2104.000000	0.245696
2105.000000	0.246134
2106.000000	0.246243
2107.000000	0.246490
2108.000000	0.246553
2109.000000	0.246840
2110.000000	0.247215
2111.000000	0.247668
2112.000000	0.248079
2113.000000	0.248552
2114.000000	0.249190
2115.000000	0.249068
2116.000000	0.249092
2117.000000	0.248978
2118.000000	0.248578
2119.000000	0.248692
2120.000000	0.249093
2121.000000	0.249897
2122.000000	0.250440
2123.000000	0.251333
2124.000000	0.252031
2125.000000	0.252499
2126.000000	0.252724
2127.000000	0.252695
2128.000000	0.253113
2129.000000	0.253146
2130.000000	0.254135
2131.000000	0.255043
2132.000000	0.255148
2133.000000	0.255262
2134.000000	0.254719
2135.000000	0.254150
2136.000000	0.254656
2137.000000	0.254885
2138.000000	0.255355
2139.000000	0.255613
2140.000000	0.255877
2141.000000	0.255951
2142.000000	0.255725
2143.000000	0.255497
2144.000000	0.255411
2145.000000	0.255520
2146.000000	0.255839
2147.000000	0.255990
2148.000000	0.256728
2149.000000	0.257159
2150.000000	0.257677
2151.000000	0.258554
2152.000000	0.258289
2153.000000	0.257819
2154.000000	0.257532
2155.000000	0.256476
2156.000000	0.256558
2157.000000	0.257951
2158.000000	0.258146
2159.000000	0.258261
2160.000000	0.258252
2161.000000	0.257310
2162.000000	0.256933
2163.000000	0.256842
2164.000000	0.256769
2165.000000	0.256633
2166.000000	0.256881
2167.000000	0.257487
2168.000000	0.257215
2169.000000	0.256605
2170.000000	0.256020
2171.000000	0.255648
2172.000000	0.255080
2173.000000	0.254797
2174.000000	0.254940
2175.000000	0.254947
2176.000000	0.254903
2177.000000	0.254961
2178.000000	0.255185
2179.000000	0.255444
2180.000000	0.255783
2181.000000	0.256080
2182.000000	0.256194
2183.000000	0.255798
2184.000000	0.255817
2185.000000	0.255103
2186.000000	0.254145
2187.000000	0.253787
2188.000000	0.252823
2189.000000	0.253229
2190.000000	0.252961
2191.000000	0.252889
2192.000000	0.253216
2193.000000	0.253376
2194.000000	0.253281
2195.000000	0.254109
2196.000000	0.254204
2197.000000	0.253173
2198.000000	0.253184
2199.000000	0.254070
2200.000000	0.254536
2201.000000	0.255375
2202.000000	0.255605
2203.000000	0.255487
2204.000000	0.253802
2205.000000	0.253159
2206.000000	0.252348
2207.000000	0.252135
2208.000000	0.252870
2209.000000	0.253171
2210.000000	0.254342
2211.000000	0.254711
2212.000000	0.254380
2213.000000	0.254521
2214.000000	0.254948
2215.000000	0.253826
2216.000000	0.251811
2217.000000	0.251017
2218.000000	0.248470
2219.000000	0.248709
2220.000000	0.251796
2221.000000	0.253562
2222.000000	0.256537
2223.000000	0.258058
2224.000000	0.258894
2225.000000	0.259267
2226.000000	0.258273
2227.000000	0.256213
2228.000000	0.255030
2229.000000	0.253642
2230.000000	0.252899
2231.000000	0.252985
2232.000000	0.251949
2233.000000	0.251639
2234.000000	0.253600
2235.000000	0.255784
2236.000000	0.256972
2237.000000	0.259114
2238.000000	0.259218
2239.000000	0.257155
2240.000000	0.256229
2241.000000	0.254558
2242.000000	0.254569
2243.000000	0.255598
2244.000000	0.256033
2245.000000	0.257619
2246.000000	0.258000
2247.000000	0.257225
2248.000000	0.256748
2249.000000	0.256689
2250.000000	0.255214
2251.000000	0.253135
2252.000000	0.251865
2253.000000	0.250463
2254.000000	0.249799
2255.000000	0.251740
2256.000000	0.254265
2257.000000	0.254976
2258.000000	0.256388
2259.000000	0.257159
2260.000000	0.255991
2261.000000	0.256203
2262.000000	0.258173
2263.000000	0.257814
2264.000000	0.256236
2265.000000	0.256201
2266.000000	0.254948
2267.000000	0.254924
2268.000000	0.256651
2269.000000	0.257473
2270.000000	0.258835
2271.000000	0.258954
2272.000000	0.259106
2273.000000	0.258350
2274.000000	0.254648
2275.000000	0.253531
2276.000000	0.253725
2277.000000	0.253136
2278.000000	0.252643
2279.000000	0.253150
2280.000000	0.253974
2281.000000	0.252943
2282.000000	0.251301
2283.000000	0.251049
2284.000000	0.248285
2285.000000	0.245826
2286.000000	0.245029
2287.000000	0.243470
2288.000000	0.244072
2289.000000	0.242529
2290.000000	0.239758
2291.000000	0.240114
2292.000000	0.238651
2293.000000	0.237730
2294.000000	0.238993
2295.000000	0.242752
2296.000000	0.244348
2297.000000	0.248587
2298.000000	0.248226
2299.000000	0.243545
2300.000000	0.240932
2301.000000	0.236010
2302.000000	0.233416
2303.000000	0.233244
2304.000000	0.233222
2305.000000	0.234012
2306.000000	0.233826
2307.000000	0.234056
2308.000000	0.232898
2309.000000	0.232171
2310.000000	0.233086
2311.000000	0.234913
2312.000000	0.235133
2313.000000	0.234591
2314.000000	0.232850
2315.000000	0.231850
2316.000000	0.233559
2317.000000	0.233714
2318.000000	0.234354
2319.000000	0.233932
2320.000000	0.231406
2321.000000	0.229872
2322.000000	0.227210
2323.000000	0.225458
2324.000000	0.226138
2325.000000	0.227189
2326.000000	0.228578
2327.000000	0.227557
2328.000000	0.224994
2329.000000	0.223388
2330.000000	0.220271
2331.000000	0.220226
2332.000000	0.222239
2333.000000	0.220728
2334.000000	0.220828
2335.000000	0.220906
2336.000000	0.219492
2337.000000	0.218685
2338.000000	0.219666
2339.000000	0.217638
2340.000000	0.212726
2341.000000	0.210744
2342.000000	0.208406
2343.000000	0.208800
2344.000000	0.213341
2345.000000	0.216651
2346.000000	0.220671
2347.000000	0.221344
2348.000000	0.222044
2349.000000	0.218699
2350.000000	0.211798
2351.000000	0.208009
2352.000000	0.203135
2353.000000	0.199893
2354.000000	0.198569
2355.000000	0.198651
2356.000000	0.200528
2357.000000	0.199506
2358.000000	0.199987
2359.000000	0.200592
2360.000000	0.196247
2361.000000	0.194063
2362.000000	0.193255
2363.000000	0.191878
2364.000000	0.192149
2365.000000	0.195013
2366.000000	0.195483
2367.000000	0.190946
2368.000000	0.190019
2369.000000	0.188262
2370.000000	0.185425
2371.000000	0.187069
2372.000000	0.188414
2373.000000	0.188432
2374.000000	0.183503
2375.000000	0.178067
2376.000000	0.176522
2377.000000	0.175498
2378.000000	0.181383
2379.000000	0.185975
2380.000000	0.183895
2381.000000	0.183860
2382.000000	0.180718
2383.000000	0.180153
2384.000000	0.185137
2385.000000	0.184173
2386.000000	0.183935
2387.000000	0.187308
2388.000000	0.184988
2389.000000	0.185240
2390.000000	0.187652
2391.000000	0.183143
2392.000000	0.180482
2393.000000	0.177389
2394.000000	0.173656
2395.000000	0.174100
2396.000000	0.173981
2397.000000	0.173239
2398.000000	0.173220
2399.000000	0.172138
2400.000000	0.170727
2401.000000	0.178702
2402.000000	0.184059
2403.000000	0.182527
2404.000000	0.179666
2405.000000	0.170509
2406.000000	0.163958
2407.000000	0.161298
2408.000000	0.165484
2409.000000	0.169494
2410.000000	0.170683
2411.000000	0.172082
2412.000000	0.168576
2413.000000	0.163276
2414.000000	0.160287
2415.000000	0.162467
2416.000000	0.159354
2417.000000	0.156462
2418.000000	0.157051
2419.000000	0.156632
2420.000000	0.159825
2421.000000	0.164765
2422.000000	0.165062
2423.000000	0.154437
2424.000000	0.146473
2425.000000	0.144647
2426.000000	0.142711
2427.000000	0.151885
2428.000000	0.166937
2429.000000	0.172898
2430.000000	0.172189
2431.000000	0.177797
2432.000000	0.178783
2433.000000	0.165911
2434.000000	0.171335
2435.000000	0.166514
2436.000000	0.145006
2437.000000	0.142580
2438.000000	0.127576
2439.000000	0.114241
2440.000000	0.115340
2441.000000	0.114314
2442.000000	0.122987
2443.000000	0.133046
2444.000000	0.135717
2445.000000	0.140196
2446.000000	0.140624
2447.000000	0.133166
2448.000000	0.132997
2449.000000	0.137586
2450.000000	0.144920
2451.000000	0.165031
2452.000000	0.182271
2453.000000	0.180758
2454.000000	0.183395
2455.000000	0.164491
2456.000000	0.128742
2457.000000	0.121772
2458.000000	0.119335
2459.000000	0.124725
2460.000000	0.139937
2461.000000	0.149157
2462.000000	0.149704
2463.000000	0.151158
2464.000000	0.169308
2465.000000	0.167054
2466.000000	0.165043
2467.000000	0.164556
2468.000000	0.144291
2469.000000	0.145741
2470.000000	0.147265
2471.000000	0.137785
2472.000000	0.145789
2473.000000	0.171974
2474.000000	0.194548
2475.000000	0.209562
2476.000000	0.221930
2477.000000	0.218974
2478.000000	0.212049
2479.000000	0.238045
2480.000000	0.262698
2481.000000	0.254234
2482.000000	0.239256
2483.000000	0.205064
2484.000000	0.176343
2485.000000	0.177879
2486.000000	0.164583
2487.000000	0.134886
2488.000000	0.117155
2489.000000	0.069841
2490.000000	0.049971
2491.000000	0.054720
2492.000000	0.045181
2493.000000	0.058732
2494.000000	0.065627
2495.000000	0.049080
2496.000000	0.065783
2497.000000	0.102393
2498.000000	0.129935
2499.000000	0.181485
2500.000000	0.190605
