# Wavelength	SM1200H-50_HEX-30_FV7-20_00000.asd.rts.txt
350.000000	0.351642
351.000000	0.376723
352.000000	0.357913
353.000000	0.345063
354.000000	0.360374
355.000000	0.357659
356.000000	0.356584
357.000000	0.360096
358.000000	0.354136
359.000000	0.355746
360.000000	0.355067
361.000000	0.341240
362.000000	0.349900
363.000000	0.359757
364.000000	0.357637
365.000000	0.363203
366.000000	0.362381
367.000000	0.355385
368.000000	0.355335
369.000000	0.353364
370.000000	0.351709
371.000000	0.354677
372.000000	0.358521
373.000000	0.358924
374.000000	0.355908
375.000000	0.357734
376.000000	0.357404
377.000000	0.355968
378.000000	0.363084
379.000000	0.365360
380.000000	0.363336
381.000000	0.362967
382.000000	0.361692
383.000000	0.359654
384.000000	0.358033
385.000000	0.358720
386.000000	0.361398
387.000000	0.364547
388.000000	0.364571
389.000000	0.363613
390.000000	0.363956
391.000000	0.367038
392.000000	0.368331
393.000000	0.368432
394.000000	0.368407
395.000000	0.368011
396.000000	0.367799
397.000000	0.368085
398.000000	0.369195
399.000000	0.370544
400.000000	0.371161
401.000000	0.369884
402.000000	0.370309
403.000000	0.371459
404.000000	0.372191
405.000000	0.373222
406.000000	0.374052
407.000000	0.374436
408.000000	0.374219
409.000000	0.374499
410.000000	0.375299
411.000000	0.375940
412.000000	0.375492
413.000000	0.375482
414.000000	0.377233
415.000000	0.377304
416.000000	0.376991
417.000000	0.377241
418.000000	0.377466
419.000000	0.377915
420.000000	0.378498
421.000000	0.378823
422.000000	0.379250
423.000000	0.379585
424.000000	0.379662
425.000000	0.379855
426.000000	0.380386
427.000000	0.381167
428.000000	0.381348
429.000000	0.381598
430.000000	0.382123
431.000000	0.382537
432.000000	0.382563
433.000000	0.382507
434.000000	0.383102
435.000000	0.383485
436.000000	0.383695
437.000000	0.383842
438.000000	0.383628
439.000000	0.383625
440.000000	0.384114
441.000000	0.384242
442.000000	0.384532
443.000000	0.384965
444.000000	0.385434
445.000000	0.385633
446.000000	0.386021
447.000000	0.386794
448.000000	0.386829
449.000000	0.386985
450.000000	0.387673
451.000000	0.387348
452.000000	0.387501
453.000000	0.388172
454.000000	0.388068
455.000000	0.388375
456.000000	0.389057
457.000000	0.389350
458.000000	0.389638
459.000000	0.390118
460.000000	0.390847
461.000000	0.391043
462.000000	0.391151
463.000000	0.391237
464.000000	0.391473
465.000000	0.391497
466.000000	0.391434
467.000000	0.391941
468.000000	0.392240
469.000000	0.392307
470.000000	0.392544
471.000000	0.392663
472.000000	0.392899
473.000000	0.393356
474.000000	0.393525
475.000000	0.393449
476.000000	0.393514
477.000000	0.394006
478.000000	0.394167
479.000000	0.394352
480.000000	0.394767
481.000000	0.394744
482.000000	0.394974
483.000000	0.395649
484.000000	0.395888
485.000000	0.395802
486.000000	0.395883
487.000000	0.396408
488.000000	0.396869
489.000000	0.397099
490.000000	0.397095
491.000000	0.397337
492.000000	0.397853
493.000000	0.398288
494.000000	0.398401
495.000000	0.398617
496.000000	0.399106
497.000000	0.399441
498.000000	0.399690
499.000000	0.399987
500.000000	0.400244
501.000000	0.400586
502.000000	0.401017
503.000000	0.401349
504.000000	0.401586
505.000000	0.401737
506.000000	0.401869
507.000000	0.402203
508.000000	0.402615
509.000000	0.402952
510.000000	0.403243
511.000000	0.403518
512.000000	0.403817
513.000000	0.404098
514.000000	0.404452
515.000000	0.404830
516.000000	0.405059
517.000000	0.405305
518.000000	0.405676
519.000000	0.406066
520.000000	0.406315
521.000000	0.406651
522.000000	0.407088
523.000000	0.407265
524.000000	0.407542
525.000000	0.407903
526.000000	0.408215
527.000000	0.408429
528.000000	0.408576
529.000000	0.408800
530.000000	0.409163
531.000000	0.409538
532.000000	0.409729
533.000000	0.409911
534.000000	0.410151
535.000000	0.410444
536.000000	0.410784
537.000000	0.411057
538.000000	0.411306
539.000000	0.411615
540.000000	0.411935
541.000000	0.412230
542.000000	0.412524
543.000000	0.412767
544.000000	0.413047
545.000000	0.413312
546.000000	0.413625
547.000000	0.413929
548.000000	0.414286
549.000000	0.414701
550.000000	0.415114
551.000000	0.415516
552.000000	0.415841
553.000000	0.416121
554.000000	0.416380
555.000000	0.416655
556.000000	0.417020
557.000000	0.417295
558.000000	0.417599
559.000000	0.417875
560.000000	0.418124
561.000000	0.418463
562.000000	0.418834
563.000000	0.419171
564.000000	0.419513
565.000000	0.419772
566.000000	0.420154
567.000000	0.420522
568.000000	0.420781
569.000000	0.421084
570.000000	0.421391
571.000000	0.421692
572.000000	0.422038
573.000000	0.422379
574.000000	0.422640
575.000000	0.422850
576.000000	0.423244
577.000000	0.423594
578.000000	0.423813
579.000000	0.424090
580.000000	0.424430
581.000000	0.424795
582.000000	0.425072
583.000000	0.425353
584.000000	0.425648
585.000000	0.425930
586.000000	0.426205
587.000000	0.426465
588.000000	0.426706
589.000000	0.426962
590.000000	0.427187
591.000000	0.427388
592.000000	0.427724
593.000000	0.428040
594.000000	0.428287
595.000000	0.428520
596.000000	0.428760
597.000000	0.429032
598.000000	0.429211
599.000000	0.429321
600.000000	0.429543
601.000000	0.429868
602.000000	0.430074
603.000000	0.430147
604.000000	0.430188
605.000000	0.430465
606.000000	0.430693
607.000000	0.430827
608.000000	0.430954
609.000000	0.431070
610.000000	0.431229
611.000000	0.431467
612.000000	0.431639
613.000000	0.431815
614.000000	0.432059
615.000000	0.432146
616.000000	0.432202
617.000000	0.432259
618.000000	0.432412
619.000000	0.432654
620.000000	0.432862
621.000000	0.432975
622.000000	0.433104
623.000000	0.433241
624.000000	0.433357
625.000000	0.433410
626.000000	0.433481
627.000000	0.433613
628.000000	0.433785
629.000000	0.434055
630.000000	0.434229
631.000000	0.434392
632.000000	0.434551
633.000000	0.434736
634.000000	0.434940
635.000000	0.435139
636.000000	0.435319
637.000000	0.435446
638.000000	0.435537
639.000000	0.435646
640.000000	0.435813
641.000000	0.435825
642.000000	0.435918
643.000000	0.436064
644.000000	0.436167
645.000000	0.436335
646.000000	0.436514
647.000000	0.436626
648.000000	0.436723
649.000000	0.436942
650.000000	0.437220
651.000000	0.437304
652.000000	0.437398
653.000000	0.437571
654.000000	0.437716
655.000000	0.437845
656.000000	0.438025
657.000000	0.438214
658.000000	0.438323
659.000000	0.438468
660.000000	0.438634
661.000000	0.438619
662.000000	0.438700
663.000000	0.438925
664.000000	0.439058
665.000000	0.439196
666.000000	0.439347
667.000000	0.439469
668.000000	0.439639
669.000000	0.439779
670.000000	0.439881
671.000000	0.440078
672.000000	0.440327
673.000000	0.440556
674.000000	0.440688
675.000000	0.440808
676.000000	0.440933
677.000000	0.441077
678.000000	0.441181
679.000000	0.441313
680.000000	0.441496
681.000000	0.441509
682.000000	0.441672
683.000000	0.441902
684.000000	0.442039
685.000000	0.442151
686.000000	0.442309
687.000000	0.442498
688.000000	0.442664
689.000000	0.442818
690.000000	0.443017
691.000000	0.443209
692.000000	0.443293
693.000000	0.443372
694.000000	0.443543
695.000000	0.443686
696.000000	0.443802
697.000000	0.443943
698.000000	0.444084
699.000000	0.444245
700.000000	0.444434
701.000000	0.444541
702.000000	0.444668
703.000000	0.444799
704.000000	0.444815
705.000000	0.444892
706.000000	0.445019
707.000000	0.445239
708.000000	0.445419
709.000000	0.445553
710.000000	0.445685
711.000000	0.445804
712.000000	0.445937
713.000000	0.446112
714.000000	0.446276
715.000000	0.446418
716.000000	0.446562
717.000000	0.446706
718.000000	0.446829
719.000000	0.446918
720.000000	0.447008
721.000000	0.447211
722.000000	0.447324
723.000000	0.447381
724.000000	0.447480
725.000000	0.447516
726.000000	0.447596
727.000000	0.447668
728.000000	0.447783
729.000000	0.447975
730.000000	0.448167
731.000000	0.448303
732.000000	0.448430
733.000000	0.448594
734.000000	0.448666
735.000000	0.448710
736.000000	0.448863
737.000000	0.448920
738.000000	0.448907
739.000000	0.448961
740.000000	0.448950
741.000000	0.449048
742.000000	0.449156
743.000000	0.449204
744.000000	0.449267
745.000000	0.449313
746.000000	0.449385
747.000000	0.449408
748.000000	0.449508
749.000000	0.449626
750.000000	0.449677
751.000000	0.449758
752.000000	0.449825
753.000000	0.449891
754.000000	0.449968
755.000000	0.450115
756.000000	0.450228
757.000000	0.450142
758.000000	0.450125
759.000000	0.450201
760.000000	0.450261
761.000000	0.450381
762.000000	0.450508
763.000000	0.450596
764.000000	0.450717
765.000000	0.450792
766.000000	0.450820
767.000000	0.450829
768.000000	0.450966
769.000000	0.451087
770.000000	0.451131
771.000000	0.451149
772.000000	0.451231
773.000000	0.451271
774.000000	0.451281
775.000000	0.451301
776.000000	0.451353
777.000000	0.451418
778.000000	0.451494
779.000000	0.451530
780.000000	0.451531
781.000000	0.451534
782.000000	0.451481
783.000000	0.451518
784.000000	0.451551
785.000000	0.451591
786.000000	0.451629
787.000000	0.451647
788.000000	0.451628
789.000000	0.451625
790.000000	0.451621
791.000000	0.451630
792.000000	0.451632
793.000000	0.451681
794.000000	0.451795
795.000000	0.451806
796.000000	0.451812
797.000000	0.451839
798.000000	0.451856
799.000000	0.451929
800.000000	0.452015
801.000000	0.452041
802.000000	0.451953
803.000000	0.451942
804.000000	0.452091
805.000000	0.452037
806.000000	0.451964
807.000000	0.451986
808.000000	0.451970
809.000000	0.451978
810.000000	0.451988
811.000000	0.451960
812.000000	0.451934
813.000000	0.451880
814.000000	0.451823
815.000000	0.451870
816.000000	0.451894
817.000000	0.451902
818.000000	0.451828
819.000000	0.451873
820.000000	0.451920
821.000000	0.451852
822.000000	0.451787
823.000000	0.451770
824.000000	0.451732
825.000000	0.451740
826.000000	0.451729
827.000000	0.451719
828.000000	0.451765
829.000000	0.451762
830.000000	0.451697
831.000000	0.451629
832.000000	0.451429
833.000000	0.451311
834.000000	0.451266
835.000000	0.451289
836.000000	0.451305
837.000000	0.451241
838.000000	0.451164
839.000000	0.451183
840.000000	0.451149
841.000000	0.451115
842.000000	0.451084
843.000000	0.451017
844.000000	0.450937
845.000000	0.450851
846.000000	0.450862
847.000000	0.450901
848.000000	0.450884
849.000000	0.450811
850.000000	0.450805
851.000000	0.450726
852.000000	0.450619
853.000000	0.450647
854.000000	0.450573
855.000000	0.450576
856.000000	0.450626
857.000000	0.450513
858.000000	0.450448
859.000000	0.450399
860.000000	0.450242
861.000000	0.450099
862.000000	0.450031
863.000000	0.449956
864.000000	0.449893
865.000000	0.449834
866.000000	0.449778
867.000000	0.449615
868.000000	0.449551
869.000000	0.449462
870.000000	0.449283
871.000000	0.449128
872.000000	0.448970
873.000000	0.448738
874.000000	0.448613
875.000000	0.448433
876.000000	0.448253
877.000000	0.448100
878.000000	0.447929
879.000000	0.447781
880.000000	0.447539
881.000000	0.447525
882.000000	0.447448
883.000000	0.447290
884.000000	0.447071
885.000000	0.447016
886.000000	0.446872
887.000000	0.446613
888.000000	0.446591
889.000000	0.446565
890.000000	0.446356
891.000000	0.446150
892.000000	0.445907
893.000000	0.445656
894.000000	0.445568
895.000000	0.445454
896.000000	0.445265
897.000000	0.445110
898.000000	0.445100
899.000000	0.444998
900.000000	0.444787
901.000000	0.444490
902.000000	0.444353
903.000000	0.444298
904.000000	0.444205
905.000000	0.443854
906.000000	0.443624
907.000000	0.443432
908.000000	0.443250
909.000000	0.442869
910.000000	0.442548
911.000000	0.442358
912.000000	0.442308
913.000000	0.442232
914.000000	0.442048
915.000000	0.441861
916.000000	0.441669
917.000000	0.441347
918.000000	0.441060
919.000000	0.440886
920.000000	0.440690
921.000000	0.440485
922.000000	0.440303
923.000000	0.440132
924.000000	0.439888
925.000000	0.439623
926.000000	0.439423
927.000000	0.439228
928.000000	0.438878
929.000000	0.438471
930.000000	0.438184
931.000000	0.438014
932.000000	0.437767
933.000000	0.437467
934.000000	0.437233
935.000000	0.436911
936.000000	0.436662
937.000000	0.436450
938.000000	0.436064
939.000000	0.435754
940.000000	0.435533
941.000000	0.435457
942.000000	0.435069
943.000000	0.434722
944.000000	0.434440
945.000000	0.434084
946.000000	0.433621
947.000000	0.433281
948.000000	0.433177
949.000000	0.433033
950.000000	0.432809
951.000000	0.432494
952.000000	0.432270
953.000000	0.432061
954.000000	0.431874
955.000000	0.431630
956.000000	0.431420
957.000000	0.431162
958.000000	0.430919
959.000000	0.430909
960.000000	0.430575
961.000000	0.430223
962.000000	0.429976
963.000000	0.429752
964.000000	0.429511
965.000000	0.429331
966.000000	0.429063
967.000000	0.428555
968.000000	0.428225
969.000000	0.428057
970.000000	0.427962
971.000000	0.427630
972.000000	0.427457
973.000000	0.427379
974.000000	0.426998
975.000000	0.426818
976.000000	0.426733
977.000000	0.426573
978.000000	0.426399
979.000000	0.426607
980.000000	0.426548
981.000000	0.426013
982.000000	0.425803
983.000000	0.425553
984.000000	0.425235
985.000000	0.425024
986.000000	0.424714
987.000000	0.424447
988.000000	0.424207
989.000000	0.424090
990.000000	0.424148
991.000000	0.424062
992.000000	0.423672
993.000000	0.423814
994.000000	0.423817
995.000000	0.423690
996.000000	0.423426
997.000000	0.423160
998.000000	0.423055
999.000000	0.423175
1000.000000	0.423079
1001.000000	0.423305
1002.000000	0.423242
1003.000000	0.422762
1004.000000	0.422419
1005.000000	0.422006
1006.000000	0.421678
1007.000000	0.421443
1008.000000	0.421472
1009.000000	0.420913
1010.000000	0.419785
1011.000000	0.420144
1012.000000	0.420536
1013.000000	0.420167
1014.000000	0.420523
1015.000000	0.420378
1016.000000	0.419827
1017.000000	0.420059
1018.000000	0.420983
1019.000000	0.421342
1020.000000	0.421836
1021.000000	0.421374
1022.000000	0.420137
1023.000000	0.420032
1024.000000	0.419968
1025.000000	0.420121
1026.000000	0.420160
1027.000000	0.420224
1028.000000	0.419609
1029.000000	0.419382
1030.000000	0.420277
1031.000000	0.420197
1032.000000	0.419960
1033.000000	0.420308
1034.000000	0.420248
1035.000000	0.419479
1036.000000	0.419721
1037.000000	0.420602
1038.000000	0.420736
1039.000000	0.421001
1040.000000	0.421624
1041.000000	0.421074
1042.000000	0.420544
1043.000000	0.420556
1044.000000	0.420286
1045.000000	0.420279
1046.000000	0.420548
1047.000000	0.420741
1048.000000	0.420715
1049.000000	0.420937
1050.000000	0.421625
1051.000000	0.421828
1052.000000	0.421558
1053.000000	0.421699
1054.000000	0.422126
1055.000000	0.422439
1056.000000	0.422952
1057.000000	0.423695
1058.000000	0.423778
1059.000000	0.423469
1060.000000	0.423359
1061.000000	0.423472
1062.000000	0.423869
1063.000000	0.424070
1064.000000	0.424195
1065.000000	0.424086
1066.000000	0.424281
1067.000000	0.424554
1068.000000	0.424631
1069.000000	0.424669
1070.000000	0.424778
1071.000000	0.424688
1072.000000	0.424864
1073.000000	0.425557
1074.000000	0.425998
1075.000000	0.425940
1076.000000	0.426044
1077.000000	0.425952
1078.000000	0.425952
1079.000000	0.426255
1080.000000	0.427261
1081.000000	0.427368
1082.000000	0.427160
1083.000000	0.427349
1084.000000	0.427340
1085.000000	0.427547
1086.000000	0.428438
1087.000000	0.428617
1088.000000	0.427937
1089.000000	0.427819
1090.000000	0.427340
1091.000000	0.427536
1092.000000	0.428458
1093.000000	0.429423
1094.000000	0.429760
1095.000000	0.429932
1096.000000	0.430020
1097.000000	0.429383
1098.000000	0.429545
1099.000000	0.430163
1100.000000	0.430537
1101.000000	0.431094
1102.000000	0.431340
1103.000000	0.431073
1104.000000	0.431296
1105.000000	0.431822
1106.000000	0.432058
1107.000000	0.432367
1108.000000	0.432539
1109.000000	0.432468
1110.000000	0.432300
1111.000000	0.432473
1112.000000	0.432987
1113.000000	0.433048
1114.000000	0.432936
1115.000000	0.433130
1116.000000	0.433233
1117.000000	0.433404
1118.000000	0.434071
1119.000000	0.434136
1120.000000	0.433635
1121.000000	0.433524
1122.000000	0.433435
1123.000000	0.433721
1124.000000	0.434177
1125.000000	0.434451
1126.000000	0.434641
1127.000000	0.434728
1128.000000	0.434719
1129.000000	0.434496
1130.000000	0.434663
1131.000000	0.435101
1132.000000	0.435085
1133.000000	0.435135
1134.000000	0.435137
1135.000000	0.434693
1136.000000	0.434531
1137.000000	0.434635
1138.000000	0.434512
1139.000000	0.434234
1140.000000	0.434330
1141.000000	0.434639
1142.000000	0.434738
1143.000000	0.434801
1144.000000	0.435032
1145.000000	0.434923
1146.000000	0.434775
1147.000000	0.434760
1148.000000	0.434832
1149.000000	0.434698
1150.000000	0.434467
1151.000000	0.434357
1152.000000	0.433991
1153.000000	0.434039
1154.000000	0.434383
1155.000000	0.434454
1156.000000	0.434627
1157.000000	0.434707
1158.000000	0.434504
1159.000000	0.434429
1160.000000	0.434387
1161.000000	0.434353
1162.000000	0.434411
1163.000000	0.434616
1164.000000	0.434550
1165.000000	0.434532
1166.000000	0.434592
1167.000000	0.434559
1168.000000	0.434482
1169.000000	0.434537
1170.000000	0.434538
1171.000000	0.434427
1172.000000	0.434466
1173.000000	0.434682
1174.000000	0.434657
1175.000000	0.434395
1176.000000	0.434295
1177.000000	0.434208
1178.000000	0.434222
1179.000000	0.434531
1180.000000	0.434532
1181.000000	0.434535
1182.000000	0.434448
1183.000000	0.434369
1184.000000	0.434415
1185.000000	0.434393
1186.000000	0.434471
1187.000000	0.434382
1188.000000	0.434122
1189.000000	0.433985
1190.000000	0.433939
1191.000000	0.433861
1192.000000	0.433908
1193.000000	0.434059
1194.000000	0.434127
1195.000000	0.434167
1196.000000	0.434143
1197.000000	0.434182
1198.000000	0.434216
1199.000000	0.434250
1200.000000	0.434333
1201.000000	0.434446
1202.000000	0.434394
1203.000000	0.434364
1204.000000	0.434298
1205.000000	0.434250
1206.000000	0.434177
1207.000000	0.434247
1208.000000	0.434179
1209.000000	0.434106
1210.000000	0.434127
1211.000000	0.434175
1212.000000	0.434156
1213.000000	0.434206
1214.000000	0.434267
1215.000000	0.434283
1216.000000	0.434289
1217.000000	0.434329
1218.000000	0.434280
1219.000000	0.434129
1220.000000	0.434075
1221.000000	0.434127
1222.000000	0.434130
1223.000000	0.434237
1224.000000	0.434264
1225.000000	0.434230
1226.000000	0.434236
1227.000000	0.434151
1228.000000	0.434214
1229.000000	0.434134
1230.000000	0.433930
1231.000000	0.433787
1232.000000	0.433786
1233.000000	0.433825
1234.000000	0.433880
1235.000000	0.433918
1236.000000	0.433787
1237.000000	0.433878
1238.000000	0.434116
1239.000000	0.434147
1240.000000	0.434164
1241.000000	0.434171
1242.000000	0.433975
1243.000000	0.433858
1244.000000	0.433812
1245.000000	0.433795
1246.000000	0.433799
1247.000000	0.433897
1248.000000	0.434136
1249.000000	0.434355
1250.000000	0.434319
1251.000000	0.434284
1252.000000	0.434332
1253.000000	0.434399
1254.000000	0.434382
1255.000000	0.434476
1256.000000	0.434405
1257.000000	0.434081
1258.000000	0.434030
1259.000000	0.434037
1260.000000	0.434046
1261.000000	0.434059
1262.000000	0.434048
1263.000000	0.434026
1264.000000	0.433976
1265.000000	0.434036
1266.000000	0.434027
1267.000000	0.434061
1268.000000	0.434034
1269.000000	0.433888
1270.000000	0.433882
1271.000000	0.433739
1272.000000	0.433622
1273.000000	0.433662
1274.000000	0.433711
1275.000000	0.433701
1276.000000	0.433729
1277.000000	0.433823
1278.000000	0.433776
1279.000000	0.433758
1280.000000	0.433724
1281.000000	0.433666
1282.000000	0.433680
1283.000000	0.433716
1284.000000	0.433634
1285.000000	0.433591
1286.000000	0.433531
1287.000000	0.433442
1288.000000	0.433380
1289.000000	0.433465
1290.000000	0.433429
1291.000000	0.433190
1292.000000	0.432934
1293.000000	0.432739
1294.000000	0.432648
1295.000000	0.432542
1296.000000	0.432428
1297.000000	0.432391
1298.000000	0.432300
1299.000000	0.432265
1300.000000	0.432369
1301.000000	0.432367
1302.000000	0.432327
1303.000000	0.432472
1304.000000	0.432397
1305.000000	0.432359
1306.000000	0.432230
1307.000000	0.431920
1308.000000	0.431813
1309.000000	0.431807
1310.000000	0.431745
1311.000000	0.431773
1312.000000	0.431777
1313.000000	0.431582
1314.000000	0.431219
1315.000000	0.430920
1316.000000	0.430790
1317.000000	0.430728
1318.000000	0.430706
1319.000000	0.430570
1320.000000	0.430442
1321.000000	0.430361
1322.000000	0.430246
1323.000000	0.430144
1324.000000	0.430004
1325.000000	0.429831
1326.000000	0.429680
1327.000000	0.429497
1328.000000	0.429360
1329.000000	0.429083
1330.000000	0.428667
1331.000000	0.428359
1332.000000	0.428152
1333.000000	0.427918
1334.000000	0.427711
1335.000000	0.427597
1336.000000	0.427586
1337.000000	0.427396
1338.000000	0.427121
1339.000000	0.426838
1340.000000	0.426462
1341.000000	0.426078
1342.000000	0.425700
1343.000000	0.425548
1344.000000	0.425400
1345.000000	0.425264
1346.000000	0.425333
1347.000000	0.425194
1348.000000	0.425055
1349.000000	0.424641
1350.000000	0.424353
1351.000000	0.424294
1352.000000	0.424063
1353.000000	0.423861
1354.000000	0.423606
1355.000000	0.423268
1356.000000	0.423152
1357.000000	0.422913
1358.000000	0.422678
1359.000000	0.422465
1360.000000	0.422193
1361.000000	0.421933
1362.000000	0.421688
1363.000000	0.421372
1364.000000	0.421035
1365.000000	0.420677
1366.000000	0.420321
1367.000000	0.419911
1368.000000	0.419565
1369.000000	0.419339
1370.000000	0.418707
1371.000000	0.418123
1372.000000	0.417547
1373.000000	0.416654
1374.000000	0.415922
1375.000000	0.414970
1376.000000	0.413893
1377.000000	0.412888
1378.000000	0.411416
1379.000000	0.409562
1380.000000	0.407467
1381.000000	0.404911
1382.000000	0.402096
1383.000000	0.399333
1384.000000	0.396238
1385.000000	0.393079
1386.000000	0.390428
1387.000000	0.387906
1388.000000	0.385733
1389.000000	0.384291
1390.000000	0.383212
1391.000000	0.382449
1392.000000	0.382196
1393.000000	0.382053
1394.000000	0.382287
1395.000000	0.382439
1396.000000	0.382916
1397.000000	0.382925
1398.000000	0.382767
1399.000000	0.382410
1400.000000	0.381751
1401.000000	0.381080
1402.000000	0.380375
1403.000000	0.379458
1404.000000	0.378591
1405.000000	0.377546
1406.000000	0.376372
1407.000000	0.375380
1408.000000	0.374302
1409.000000	0.373336
1410.000000	0.372580
1411.000000	0.371657
1412.000000	0.370653
1413.000000	0.369850
1414.000000	0.369277
1415.000000	0.368818
1416.000000	0.368412
1417.000000	0.368068
1418.000000	0.367505
1419.000000	0.366892
1420.000000	0.366402
1421.000000	0.366066
1422.000000	0.365808
1423.000000	0.365797
1424.000000	0.365641
1425.000000	0.365350
1426.000000	0.364977
1427.000000	0.364543
1428.000000	0.364333
1429.000000	0.364205
1430.000000	0.364000
1431.000000	0.363870
1432.000000	0.363671
1433.000000	0.363352
1434.000000	0.363204
1435.000000	0.363311
1436.000000	0.363177
1437.000000	0.363053
1438.000000	0.362803
1439.000000	0.362376
1440.000000	0.362094
1441.000000	0.361854
1442.000000	0.361612
1443.000000	0.361330
1444.000000	0.361080
1445.000000	0.360812
1446.000000	0.360601
1447.000000	0.360381
1448.000000	0.360098
1449.000000	0.359831
1450.000000	0.359545
1451.000000	0.359309
1452.000000	0.359036
1453.000000	0.358745
1454.000000	0.358479
1455.000000	0.358235
1456.000000	0.358184
1457.000000	0.358080
1458.000000	0.357885
1459.000000	0.357853
1460.000000	0.357691
1461.000000	0.357488
1462.000000	0.357471
1463.000000	0.357240
1464.000000	0.357114
1465.000000	0.357306
1466.000000	0.357402
1467.000000	0.357514
1468.000000	0.357658
1469.000000	0.357794
1470.000000	0.357914
1471.000000	0.358126
1472.000000	0.358420
1473.000000	0.358885
1474.000000	0.359346
1475.000000	0.359836
1476.000000	0.360292
1477.000000	0.360592
1478.000000	0.360969
1479.000000	0.361390
1480.000000	0.361794
1481.000000	0.362222
1482.000000	0.362747
1483.000000	0.363240
1484.000000	0.363766
1485.000000	0.364258
1486.000000	0.364703
1487.000000	0.365173
1488.000000	0.365663
1489.000000	0.366169
1490.000000	0.366508
1491.000000	0.367031
1492.000000	0.367612
1493.000000	0.368090
1494.000000	0.368565
1495.000000	0.369032
1496.000000	0.369420
1497.000000	0.369840
1498.000000	0.370326
1499.000000	0.370772
1500.000000	0.371159
1501.000000	0.371447
1502.000000	0.371682
1503.000000	0.371989
1504.000000	0.372278
1505.000000	0.372595
1506.000000	0.373072
1507.000000	0.373447
1508.000000	0.373883
1509.000000	0.374286
1510.000000	0.374591
1511.000000	0.375016
1512.000000	0.375235
1513.000000	0.375456
1514.000000	0.375799
1515.000000	0.375917
1516.000000	0.376138
1517.000000	0.376438
1518.000000	0.376604
1519.000000	0.376754
1520.000000	0.377046
1521.000000	0.377310
1522.000000	0.377559
1523.000000	0.377815
1524.000000	0.377956
1525.000000	0.378054
1526.000000	0.378064
1527.000000	0.378199
1528.000000	0.378531
1529.000000	0.378761
1530.000000	0.378914
1531.000000	0.379136
1532.000000	0.379303
1533.000000	0.379471
1534.000000	0.379764
1535.000000	0.380061
1536.000000	0.380159
1537.000000	0.380331
1538.000000	0.380477
1539.000000	0.380467
1540.000000	0.380501
1541.000000	0.380594
1542.000000	0.380697
1543.000000	0.380804
1544.000000	0.380952
1545.000000	0.381101
1546.000000	0.381169
1547.000000	0.381266
1548.000000	0.381431
1549.000000	0.381498
1550.000000	0.381582
1551.000000	0.381727
1552.000000	0.381802
1553.000000	0.381848
1554.000000	0.381881
1555.000000	0.381934
1556.000000	0.382047
1557.000000	0.382136
1558.000000	0.382201
1559.000000	0.382207
1560.000000	0.382221
1561.000000	0.382180
1562.000000	0.382221
1563.000000	0.382410
1564.000000	0.382481
1565.000000	0.382552
1566.000000	0.382494
1567.000000	0.382411
1568.000000	0.382380
1569.000000	0.382448
1570.000000	0.382415
1571.000000	0.382271
1572.000000	0.382285
1573.000000	0.382355
1574.000000	0.382397
1575.000000	0.382619
1576.000000	0.382663
1577.000000	0.382448
1578.000000	0.382429
1579.000000	0.382591
1580.000000	0.382687
1581.000000	0.382895
1582.000000	0.383033
1583.000000	0.383098
1584.000000	0.383127
1585.000000	0.383276
1586.000000	0.383402
1587.000000	0.383474
1588.000000	0.383512
1589.000000	0.383582
1590.000000	0.383586
1591.000000	0.383486
1592.000000	0.383542
1593.000000	0.383699
1594.000000	0.383773
1595.000000	0.383978
1596.000000	0.384090
1597.000000	0.384157
1598.000000	0.384177
1599.000000	0.384159
1600.000000	0.384158
1601.000000	0.384219
1602.000000	0.384271
1603.000000	0.384458
1604.000000	0.384478
1605.000000	0.384380
1606.000000	0.384361
1607.000000	0.384360
1608.000000	0.384352
1609.000000	0.384481
1610.000000	0.384463
1611.000000	0.384342
1612.000000	0.384339
1613.000000	0.384459
1614.000000	0.384579
1615.000000	0.384863
1616.000000	0.385061
1617.000000	0.385157
1618.000000	0.385244
1619.000000	0.385295
1620.000000	0.385384
1621.000000	0.385488
1622.000000	0.385709
1623.000000	0.385920
1624.000000	0.386120
1625.000000	0.386264
1626.000000	0.386344
1627.000000	0.386420
1628.000000	0.386493
1629.000000	0.386464
1630.000000	0.386563
1631.000000	0.386679
1632.000000	0.386691
1633.000000	0.386727
1634.000000	0.386784
1635.000000	0.386740
1636.000000	0.386841
1637.000000	0.387142
1638.000000	0.387258
1639.000000	0.387416
1640.000000	0.387513
1641.000000	0.387604
1642.000000	0.387689
1643.000000	0.387768
1644.000000	0.387945
1645.000000	0.388192
1646.000000	0.388241
1647.000000	0.388301
1648.000000	0.388325
1649.000000	0.388298
1650.000000	0.388388
1651.000000	0.388605
1652.000000	0.388854
1653.000000	0.389056
1654.000000	0.389288
1655.000000	0.389573
1656.000000	0.389642
1657.000000	0.389689
1658.000000	0.389761
1659.000000	0.389866
1660.000000	0.390007
1661.000000	0.390079
1662.000000	0.390202
1663.000000	0.390316
1664.000000	0.390400
1665.000000	0.390460
1666.000000	0.390726
1667.000000	0.390962
1668.000000	0.391147
1669.000000	0.391419
1670.000000	0.391588
1671.000000	0.391817
1672.000000	0.391925
1673.000000	0.391908
1674.000000	0.392033
1675.000000	0.392173
1676.000000	0.392412
1677.000000	0.392701
1678.000000	0.392598
1679.000000	0.392526
1680.000000	0.392439
1681.000000	0.392283
1682.000000	0.392389
1683.000000	0.392502
1684.000000	0.392462
1685.000000	0.392629
1686.000000	0.392787
1687.000000	0.392747
1688.000000	0.392824
1689.000000	0.392951
1690.000000	0.392908
1691.000000	0.392938
1692.000000	0.392844
1693.000000	0.392892
1694.000000	0.393096
1695.000000	0.393176
1696.000000	0.393322
1697.000000	0.393375
1698.000000	0.393326
1699.000000	0.393389
1700.000000	0.393497
1701.000000	0.393705
1702.000000	0.393762
1703.000000	0.393811
1704.000000	0.394047
1705.000000	0.394186
1706.000000	0.394354
1707.000000	0.394455
1708.000000	0.394413
1709.000000	0.394352
1710.000000	0.394305
1711.000000	0.394369
1712.000000	0.394627
1713.000000	0.394654
1714.000000	0.394591
1715.000000	0.394673
1716.000000	0.394749
1717.000000	0.394767
1718.000000	0.394893
1719.000000	0.394890
1720.000000	0.394691
1721.000000	0.394664
1722.000000	0.394740
1723.000000	0.394828
1724.000000	0.395067
1725.000000	0.395172
1726.000000	0.395127
1727.000000	0.395117
1728.000000	0.395008
1729.000000	0.394770
1730.000000	0.394601
1731.000000	0.394499
1732.000000	0.394282
1733.000000	0.394329
1734.000000	0.394455
1735.000000	0.394508
1736.000000	0.394489
1737.000000	0.394662
1738.000000	0.394942
1739.000000	0.395214
1740.000000	0.395673
1741.000000	0.395811
1742.000000	0.395774
1743.000000	0.395922
1744.000000	0.396036
1745.000000	0.395983
1746.000000	0.395945
1747.000000	0.395701
1748.000000	0.395466
1749.000000	0.395302
1750.000000	0.395157
1751.000000	0.395216
1752.000000	0.395267
1753.000000	0.395197
1754.000000	0.395130
1755.000000	0.394830
1756.000000	0.394718
1757.000000	0.394824
1758.000000	0.394808
1759.000000	0.394857
1760.000000	0.394767
1761.000000	0.394342
1762.000000	0.394173
1763.000000	0.394057
1764.000000	0.394075
1765.000000	0.394302
1766.000000	0.394453
1767.000000	0.394597
1768.000000	0.394605
1769.000000	0.394647
1770.000000	0.394697
1771.000000	0.394599
1772.000000	0.394576
1773.000000	0.394533
1774.000000	0.394494
1775.000000	0.394523
1776.000000	0.394551
1777.000000	0.394537
1778.000000	0.394550
1779.000000	0.394594
1780.000000	0.394605
1781.000000	0.394520
1782.000000	0.394573
1783.000000	0.394730
1784.000000	0.394769
1785.000000	0.394988
1786.000000	0.395160
1787.000000	0.395277
1788.000000	0.395531
1789.000000	0.395641
1790.000000	0.395792
1791.000000	0.395807
1792.000000	0.395768
1793.000000	0.395817
1794.000000	0.395891
1795.000000	0.395949
1796.000000	0.396085
1797.000000	0.396144
1798.000000	0.396071
1799.000000	0.396025
1800.000000	0.396091
1801.000000	0.396039
1802.000000	0.396041
1803.000000	0.396106
1804.000000	0.396459
1805.000000	0.397472
1806.000000	0.397960
1807.000000	0.398583
1808.000000	0.398647
1809.000000	0.397997
1810.000000	0.397650
1811.000000	0.397660
1812.000000	0.397798
1813.000000	0.397638
1814.000000	0.397749
1815.000000	0.397764
1816.000000	0.397379
1817.000000	0.397120
1818.000000	0.397162
1819.000000	0.397435
1820.000000	0.397311
1821.000000	0.396525
1822.000000	0.396645
1823.000000	0.397178
1824.000000	0.397214
1825.000000	0.397501
1826.000000	0.397625
1827.000000	0.397234
1828.000000	0.396843
1829.000000	0.396783
1830.000000	0.396612
1831.000000	0.395998
1832.000000	0.394708
1833.000000	0.394094
1834.000000	0.393230
1835.000000	0.392984
1836.000000	0.393503
1837.000000	0.393721
1838.000000	0.394192
1839.000000	0.394029
1840.000000	0.393620
1841.000000	0.393435
1842.000000	0.393345
1843.000000	0.393260
1844.000000	0.393238
1845.000000	0.393260
1846.000000	0.393234
1847.000000	0.393256
1848.000000	0.392771
1849.000000	0.391691
1850.000000	0.391217
1851.000000	0.390641
1852.000000	0.389459
1853.000000	0.388785
1854.000000	0.388306
1855.000000	0.387895
1856.000000	0.387358
1857.000000	0.387242
1858.000000	0.386881
1859.000000	0.385655
1860.000000	0.383891
1861.000000	0.382722
1862.000000	0.381731
1863.000000	0.381283
1864.000000	0.380501
1865.000000	0.380226
1866.000000	0.378941
1867.000000	0.376959
1868.000000	0.375362
1869.000000	0.372775
1870.000000	0.369571
1871.000000	0.366977
1872.000000	0.364275
1873.000000	0.361818
1874.000000	0.359885
1875.000000	0.357546
1876.000000	0.355186
1877.000000	0.351748
1878.000000	0.348287
1879.000000	0.344564
1880.000000	0.339924
1881.000000	0.335869
1882.000000	0.331537
1883.000000	0.326824
1884.000000	0.322271
1885.000000	0.317651
1886.000000	0.312722
1887.000000	0.307631
1888.000000	0.302098
1889.000000	0.296674
1890.000000	0.291235
1891.000000	0.286022
1892.000000	0.281074
1893.000000	0.276019
1894.000000	0.271482
1895.000000	0.266787
1896.000000	0.262294
1897.000000	0.257631
1898.000000	0.253182
1899.000000	0.249053
1900.000000	0.245427
1901.000000	0.242596
1902.000000	0.239247
1903.000000	0.236198
1904.000000	0.233949
1905.000000	0.230973
1906.000000	0.228712
1907.000000	0.227222
1908.000000	0.226285
1909.000000	0.224671
1910.000000	0.223580
1911.000000	0.223279
1912.000000	0.222972
1913.000000	0.222512
1914.000000	0.222373
1915.000000	0.221966
1916.000000	0.221174
1917.000000	0.220562
1918.000000	0.220082
1919.000000	0.219767
1920.000000	0.219670
1921.000000	0.219857
1922.000000	0.219748
1923.000000	0.220058
1924.000000	0.220073
1925.000000	0.219550
1926.000000	0.219935
1927.000000	0.220638
1928.000000	0.221111
1929.000000	0.221812
1930.000000	0.222536
1931.000000	0.222651
1932.000000	0.222681
1933.000000	0.222893
1934.000000	0.223183
1935.000000	0.223714
1936.000000	0.224235
1937.000000	0.224402
1938.000000	0.224779
1939.000000	0.225087
1940.000000	0.225535
1941.000000	0.225387
1942.000000	0.225230
1943.000000	0.225098
1944.000000	0.225004
1945.000000	0.225322
1946.000000	0.225448
1947.000000	0.225292
1948.000000	0.225252
1949.000000	0.225261
1950.000000	0.225371
1951.000000	0.225477
1952.000000	0.225983
1953.000000	0.226008
1954.000000	0.225608
1955.000000	0.225389
1956.000000	0.224844
1957.000000	0.224546
1958.000000	0.224775
1959.000000	0.224879
1960.000000	0.224975
1961.000000	0.224614
1962.000000	0.224496
1963.000000	0.224282
1964.000000	0.224220
1965.000000	0.224106
1966.000000	0.224980
1967.000000	0.225572
1968.000000	0.225760
1969.000000	0.226493
1970.000000	0.227075
1971.000000	0.227346
1972.000000	0.227807
1973.000000	0.227919
1974.000000	0.227525
1975.000000	0.227554
1976.000000	0.227608
1977.000000	0.227867
1978.000000	0.228282
1979.000000	0.229433
1980.000000	0.229930
1981.000000	0.230640
1982.000000	0.231666
1983.000000	0.232252
1984.000000	0.232896
1985.000000	0.233535
1986.000000	0.234235
1987.000000	0.234813
1988.000000	0.235858
1989.000000	0.237184
1990.000000	0.238216
1991.000000	0.238648
1992.000000	0.239189
1993.000000	0.239301
1994.000000	0.239450
1995.000000	0.240595
1996.000000	0.241448
1997.000000	0.242012
1998.000000	0.242605
1999.000000	0.243343
2000.000000	0.243772
2001.000000	0.244117
2002.000000	0.245582
2003.000000	0.246871
2004.000000	0.248159
2005.000000	0.249452
2006.000000	0.250363
2007.000000	0.251571
2008.000000	0.252651
2009.000000	0.253742
2010.000000	0.254834
2011.000000	0.255721
2012.000000	0.256604
2013.000000	0.257301
2014.000000	0.258046
2015.000000	0.259716
2016.000000	0.261048
2017.000000	0.262327
2018.000000	0.263859
2019.000000	0.264596
2020.000000	0.264966
2021.000000	0.265836
2022.000000	0.266843
2023.000000	0.267921
2024.000000	0.269683
2025.000000	0.270878
2026.000000	0.271792
2027.000000	0.272393
2028.000000	0.272941
2029.000000	0.273249
2030.000000	0.274027
2031.000000	0.274920
2032.000000	0.276047
2033.000000	0.277052
2034.000000	0.278005
2035.000000	0.278974
2036.000000	0.280147
2037.000000	0.281911
2038.000000	0.282914
2039.000000	0.284022
2040.000000	0.284375
2041.000000	0.284354
2042.000000	0.284236
2043.000000	0.284866
2044.000000	0.285928
2045.000000	0.286860
2046.000000	0.288310
2047.000000	0.289039
2048.000000	0.288848
2049.000000	0.289983
2050.000000	0.291185
2051.000000	0.291890
2052.000000	0.293439
2053.000000	0.293929
2054.000000	0.293239
2055.000000	0.293515
2056.000000	0.294018
2057.000000	0.294695
2058.000000	0.295668
2059.000000	0.296875
2060.000000	0.297945
2061.000000	0.299118
2062.000000	0.299742
2063.000000	0.300215
2064.000000	0.300413
2065.000000	0.300319
2066.000000	0.300430
2067.000000	0.300967
2068.000000	0.301152
2069.000000	0.301488
2070.000000	0.301524
2071.000000	0.300813
2072.000000	0.301561
2073.000000	0.302790
2074.000000	0.303746
2075.000000	0.304847
2076.000000	0.306715
2077.000000	0.307590
2078.000000	0.307848
2079.000000	0.308305
2080.000000	0.308470
2081.000000	0.308872
2082.000000	0.309542
2083.000000	0.309750
2084.000000	0.309918
2085.000000	0.310898
2086.000000	0.312101
2087.000000	0.313512
2088.000000	0.314757
2089.000000	0.315881
2090.000000	0.316573
2091.000000	0.316440
2092.000000	0.316985
2093.000000	0.317439
2094.000000	0.318191
2095.000000	0.319916
2096.000000	0.320794
2097.000000	0.321512
2098.000000	0.321611
2099.000000	0.321477
2100.000000	0.321250
2101.000000	0.321565
2102.000000	0.322738
2103.000000	0.323837
2104.000000	0.324571
2105.000000	0.325096
2106.000000	0.325222
2107.000000	0.325493
2108.000000	0.325514
2109.000000	0.325854
2110.000000	0.325962
2111.000000	0.326422
2112.000000	0.327394
2113.000000	0.327460
2114.000000	0.328333
2115.000000	0.329543
2116.000000	0.329485
2117.000000	0.329500
2118.000000	0.329674
2119.000000	0.329244
2120.000000	0.329309
2121.000000	0.330183
2122.000000	0.330484
2123.000000	0.330221
2124.000000	0.330340
2125.000000	0.330627
2126.000000	0.330801
2127.000000	0.330928
2128.000000	0.331503
2129.000000	0.332333
2130.000000	0.332838
2131.000000	0.333178
2132.000000	0.334090
2133.000000	0.335430
2134.000000	0.336152
2135.000000	0.336898
2136.000000	0.337494
2137.000000	0.337497
2138.000000	0.336309
2139.000000	0.336256
2140.000000	0.336581
2141.000000	0.336532
2142.000000	0.336623
2143.000000	0.336224
2144.000000	0.335386
2145.000000	0.335094
2146.000000	0.334887
2147.000000	0.335450
2148.000000	0.335793
2149.000000	0.336245
2150.000000	0.336915
2151.000000	0.337858
2152.000000	0.338530
2153.000000	0.338790
2154.000000	0.338794
2155.000000	0.337975
2156.000000	0.337501
2157.000000	0.337217
2158.000000	0.336887
2159.000000	0.336741
2160.000000	0.336667
2161.000000	0.336129
2162.000000	0.335941
2163.000000	0.335564
2164.000000	0.335633
2165.000000	0.335620
2166.000000	0.337297
2167.000000	0.338818
2168.000000	0.339989
2169.000000	0.340426
2170.000000	0.339832
2171.000000	0.339637
2172.000000	0.338828
2173.000000	0.338331
2174.000000	0.338101
2175.000000	0.337837
2176.000000	0.337189
2177.000000	0.337142
2178.000000	0.337655
2179.000000	0.338087
2180.000000	0.338706
2181.000000	0.339491
2182.000000	0.339763
2183.000000	0.340256
2184.000000	0.340522
2185.000000	0.340746
2186.000000	0.339779
2187.000000	0.339345
2188.000000	0.339762
2189.000000	0.338940
2190.000000	0.339111
2191.000000	0.339546
2192.000000	0.339360
2193.000000	0.338601
2194.000000	0.337827
2195.000000	0.336872
2196.000000	0.336188
2197.000000	0.335453
2198.000000	0.334565
2199.000000	0.333144
2200.000000	0.332446
2201.000000	0.331971
2202.000000	0.331678
2203.000000	0.332089
2204.000000	0.333056
2205.000000	0.331262
2206.000000	0.330423
2207.000000	0.330788
2208.000000	0.331431
2209.000000	0.333556
2210.000000	0.336131
2211.000000	0.336675
2212.000000	0.335168
2213.000000	0.334200
2214.000000	0.331946
2215.000000	0.331247
2216.000000	0.331222
2217.000000	0.331693
2218.000000	0.332950
2219.000000	0.334071
2220.000000	0.335989
2221.000000	0.336087
2222.000000	0.335898
2223.000000	0.335260
2224.000000	0.332749
2225.000000	0.330995
2226.000000	0.332488
2227.000000	0.332095
2228.000000	0.331934
2229.000000	0.335431
2230.000000	0.335648
2231.000000	0.336199
2232.000000	0.337794
2233.000000	0.336270
2234.000000	0.336159
2235.000000	0.336368
2236.000000	0.337216
2237.000000	0.339905
2238.000000	0.339880
2239.000000	0.339613
2240.000000	0.338458
2241.000000	0.334247
2242.000000	0.332295
2243.000000	0.330029
2244.000000	0.329485
2245.000000	0.330567
2246.000000	0.331389
2247.000000	0.335039
2248.000000	0.335939
2249.000000	0.334995
2250.000000	0.334497
2251.000000	0.334462
2252.000000	0.331472
2253.000000	0.331232
2254.000000	0.332000
2255.000000	0.332767
2256.000000	0.335251
2257.000000	0.336615
2258.000000	0.337487
2259.000000	0.336279
2260.000000	0.334495
2261.000000	0.333341
2262.000000	0.331967
2263.000000	0.330432
2264.000000	0.329417
2265.000000	0.328559
2266.000000	0.327940
2267.000000	0.327085
2268.000000	0.326161
2269.000000	0.324381
2270.000000	0.320734
2271.000000	0.319002
2272.000000	0.317960
2273.000000	0.317989
2274.000000	0.320337
2275.000000	0.320888
2276.000000	0.321707
2277.000000	0.320402
2278.000000	0.319512
2279.000000	0.319833
2280.000000	0.318567
2281.000000	0.318603
2282.000000	0.316886
2283.000000	0.314595
2284.000000	0.313253
2285.000000	0.309840
2286.000000	0.307342
2287.000000	0.304400
2288.000000	0.299713
2289.000000	0.298102
2290.000000	0.298130
2291.000000	0.297364
2292.000000	0.298553
2293.000000	0.300009
2294.000000	0.299542
2295.000000	0.297726
2296.000000	0.295417
2297.000000	0.290686
2298.000000	0.288090
2299.000000	0.286035
2300.000000	0.284645
2301.000000	0.284549
2302.000000	0.283825
2303.000000	0.283189
2304.000000	0.281573
2305.000000	0.279931
2306.000000	0.278218
2307.000000	0.276058
2308.000000	0.272972
2309.000000	0.270929
2310.000000	0.268906
2311.000000	0.267192
2312.000000	0.266642
2313.000000	0.265360
2314.000000	0.264473
2315.000000	0.265266
2316.000000	0.265508
2317.000000	0.266529
2318.000000	0.269293
2319.000000	0.270293
2320.000000	0.270896
2321.000000	0.273512
2322.000000	0.274144
2323.000000	0.276464
2324.000000	0.280734
2325.000000	0.280189
2326.000000	0.280402
2327.000000	0.281089
2328.000000	0.278987
2329.000000	0.280395
2330.000000	0.283168
2331.000000	0.283339
2332.000000	0.283984
2333.000000	0.284399
2334.000000	0.283519
2335.000000	0.282327
2336.000000	0.280206
2337.000000	0.277831
2338.000000	0.272442
2339.000000	0.271523
2340.000000	0.273876
2341.000000	0.275165
2342.000000	0.280473
2343.000000	0.281621
2344.000000	0.278349
2345.000000	0.277727
2346.000000	0.277166
2347.000000	0.275990
2348.000000	0.275857
2349.000000	0.273919
2350.000000	0.272617
2351.000000	0.268532
2352.000000	0.266202
2353.000000	0.268343
2354.000000	0.266802
2355.000000	0.266334
2356.000000	0.266991
2357.000000	0.264641
2358.000000	0.263480
2359.000000	0.263630
2360.000000	0.263683
2361.000000	0.265648
2362.000000	0.265929
2363.000000	0.264723
2364.000000	0.262520
2365.000000	0.257684
2366.000000	0.250830
2367.000000	0.245904
2368.000000	0.241480
2369.000000	0.235233
2370.000000	0.233071
2371.000000	0.231472
2372.000000	0.231604
2373.000000	0.235603
2374.000000	0.237598
2375.000000	0.239021
2376.000000	0.236944
2377.000000	0.231525
2378.000000	0.230205
2379.000000	0.233094
2380.000000	0.234784
2381.000000	0.235093
2382.000000	0.234460
2383.000000	0.231857
2384.000000	0.232690
2385.000000	0.236453
2386.000000	0.237995
2387.000000	0.234681
2388.000000	0.229580
2389.000000	0.226945
2390.000000	0.225455
2391.000000	0.227200
2392.000000	0.226719
2393.000000	0.225817
2394.000000	0.229719
2395.000000	0.229532
2396.000000	0.232184
2397.000000	0.237792
2398.000000	0.234492
2399.000000	0.231270
2400.000000	0.233498
2401.000000	0.230292
2402.000000	0.223939
2403.000000	0.225609
2404.000000	0.224366
2405.000000	0.220178
2406.000000	0.222750
2407.000000	0.222435
2408.000000	0.215770
2409.000000	0.210097
2410.000000	0.205695
2411.000000	0.202754
2412.000000	0.208957
2413.000000	0.213295
2414.000000	0.221590
2415.000000	0.227378
2416.000000	0.215460
2417.000000	0.211538
2418.000000	0.211083
2419.000000	0.205833
2420.000000	0.205702
2421.000000	0.210407
2422.000000	0.208458
2423.000000	0.202524
2424.000000	0.209375
2425.000000	0.211251
2426.000000	0.198029
2427.000000	0.191916
2428.000000	0.188873
2429.000000	0.180314
2430.000000	0.185236
2431.000000	0.194960
2432.000000	0.194369
2433.000000	0.198962
2434.000000	0.204305
2435.000000	0.199302
2436.000000	0.193521
2437.000000	0.190685
2438.000000	0.180578
2439.000000	0.174576
2440.000000	0.183224
2441.000000	0.186497
2442.000000	0.190491
2443.000000	0.198501
2444.000000	0.199982
2445.000000	0.201794
2446.000000	0.199539
2447.000000	0.193223
2448.000000	0.182707
2449.000000	0.173544
2450.000000	0.168582
2451.000000	0.168502
2452.000000	0.173829
2453.000000	0.172558
2454.000000	0.175911
2455.000000	0.173613
2456.000000	0.170202
2457.000000	0.191162
2458.000000	0.205080
2459.000000	0.213361
2460.000000	0.223556
2461.000000	0.221210
2462.000000	0.209777
2463.000000	0.190979
2464.000000	0.181907
2465.000000	0.163402
2466.000000	0.140776
2467.000000	0.144640
2468.000000	0.144030
2469.000000	0.124452
2470.000000	0.129976
2471.000000	0.140474
2472.000000	0.152524
2473.000000	0.193310
2474.000000	0.216682
2475.000000	0.213768
2476.000000	0.197904
2477.000000	0.175141
2478.000000	0.170906
2479.000000	0.194305
2480.000000	0.219507
2481.000000	0.228925
2482.000000	0.225657
2483.000000	0.240888
2484.000000	0.245752
2485.000000	0.232121
2486.000000	0.225685
2487.000000	0.158751
2488.000000	0.116308
2489.000000	0.128110
2490.000000	0.114063
2491.000000	0.128747
2492.000000	0.130544
2493.000000	0.122093
2494.000000	0.134614
2495.000000	0.179795
2496.000000	0.187738
2497.000000	0.172446
2498.000000	0.149796
2499.000000	0.077276
2500.000000	0.066335
