# Wavelength	SM1200H-10_HEX-60_FV7-30_00000.asd.rts.txt
350.000000	0.279889
351.000000	0.240647
352.000000	0.239411
353.000000	0.239124
354.000000	0.229029
355.000000	0.254034
356.000000	0.268420
357.000000	0.266741
358.000000	0.265640
359.000000	0.262848
360.000000	0.262991
361.000000	0.268936
362.000000	0.266137
363.000000	0.263740
364.000000	0.265988
365.000000	0.262956
366.000000	0.265616
367.000000	0.271538
368.000000	0.267836
369.000000	0.260411
370.000000	0.258487
371.000000	0.268721
372.000000	0.267388
373.000000	0.264458
374.000000	0.268739
375.000000	0.276230
376.000000	0.275707
377.000000	0.267976
378.000000	0.265299
379.000000	0.268022
380.000000	0.271680
381.000000	0.271726
382.000000	0.271846
383.000000	0.271615
384.000000	0.271028
385.000000	0.271406
386.000000	0.272274
387.000000	0.273736
388.000000	0.276417
389.000000	0.275889
390.000000	0.274321
391.000000	0.275546
392.000000	0.277331
393.000000	0.278199
394.000000	0.277730
395.000000	0.278330
396.000000	0.278635
397.000000	0.278308
398.000000	0.278525
399.000000	0.278797
400.000000	0.279113
401.000000	0.279433
402.000000	0.279235
403.000000	0.279519
404.000000	0.281048
405.000000	0.281991
406.000000	0.281803
407.000000	0.281161
408.000000	0.282651
409.000000	0.284249
410.000000	0.284974
411.000000	0.284276
412.000000	0.283384
413.000000	0.283267
414.000000	0.284366
415.000000	0.284660
416.000000	0.284871
417.000000	0.285455
418.000000	0.285838
419.000000	0.286143
420.000000	0.286434
421.000000	0.286718
422.000000	0.287327
423.000000	0.287892
424.000000	0.288036
425.000000	0.288604
426.000000	0.289209
427.000000	0.289461
428.000000	0.289498
429.000000	0.289501
430.000000	0.289655
431.000000	0.290184
432.000000	0.290749
433.000000	0.291227
434.000000	0.291687
435.000000	0.291584
436.000000	0.291649
437.000000	0.292403
438.000000	0.292398
439.000000	0.292236
440.000000	0.292410
441.000000	0.292658
442.000000	0.292997
443.000000	0.293259
444.000000	0.293340
445.000000	0.293431
446.000000	0.293729
447.000000	0.294149
448.000000	0.294381
449.000000	0.294576
450.000000	0.294905
451.000000	0.295448
452.000000	0.295911
453.000000	0.296105
454.000000	0.296198
455.000000	0.296303
456.000000	0.296475
457.000000	0.296549
458.000000	0.297044
459.000000	0.297582
460.000000	0.297832
461.000000	0.297956
462.000000	0.298264
463.000000	0.298649
464.000000	0.298880
465.000000	0.299039
466.000000	0.299210
467.000000	0.299656
468.000000	0.300100
469.000000	0.300303
470.000000	0.300314
471.000000	0.300388
472.000000	0.300505
473.000000	0.300692
474.000000	0.301097
475.000000	0.301294
476.000000	0.301404
477.000000	0.301739
478.000000	0.302045
479.000000	0.302411
480.000000	0.302635
481.000000	0.302670
482.000000	0.302891
483.000000	0.303305
484.000000	0.303592
485.000000	0.303773
486.000000	0.304074
487.000000	0.304381
488.000000	0.304690
489.000000	0.305019
490.000000	0.305368
491.000000	0.305555
492.000000	0.305657
493.000000	0.305677
494.000000	0.305843
495.000000	0.306211
496.000000	0.306696
497.000000	0.307128
498.000000	0.307407
499.000000	0.307665
500.000000	0.308123
501.000000	0.308378
502.000000	0.308523
503.000000	0.308764
504.000000	0.309121
505.000000	0.309453
506.000000	0.309650
507.000000	0.309867
508.000000	0.310175
509.000000	0.310554
510.000000	0.311033
511.000000	0.311375
512.000000	0.311591
513.000000	0.311816
514.000000	0.312221
515.000000	0.312669
516.000000	0.312886
517.000000	0.313261
518.000000	0.313693
519.000000	0.313961
520.000000	0.314128
521.000000	0.314398
522.000000	0.314799
523.000000	0.315075
524.000000	0.315383
525.000000	0.315690
526.000000	0.315931
527.000000	0.316220
528.000000	0.316507
529.000000	0.316779
530.000000	0.317014
531.000000	0.317359
532.000000	0.317756
533.000000	0.318034
534.000000	0.318271
535.000000	0.318501
536.000000	0.318779
537.000000	0.318982
538.000000	0.319197
539.000000	0.319567
540.000000	0.319929
541.000000	0.320250
542.000000	0.320558
543.000000	0.320779
544.000000	0.321070
545.000000	0.321407
546.000000	0.321700
547.000000	0.322047
548.000000	0.322422
549.000000	0.322603
550.000000	0.322924
551.000000	0.323337
552.000000	0.323638
553.000000	0.323895
554.000000	0.324210
555.000000	0.324631
556.000000	0.325035
557.000000	0.325323
558.000000	0.325635
559.000000	0.325999
560.000000	0.326352
561.000000	0.326715
562.000000	0.326975
563.000000	0.327281
564.000000	0.327647
565.000000	0.327944
566.000000	0.328332
567.000000	0.328688
568.000000	0.328941
569.000000	0.329269
570.000000	0.329576
571.000000	0.329861
572.000000	0.330232
573.000000	0.330557
574.000000	0.330821
575.000000	0.331116
576.000000	0.331404
577.000000	0.331714
578.000000	0.332117
579.000000	0.332448
580.000000	0.332792
581.000000	0.333145
582.000000	0.333342
583.000000	0.333579
584.000000	0.333893
585.000000	0.334241
586.000000	0.334599
587.000000	0.334908
588.000000	0.335137
589.000000	0.335452
590.000000	0.335780
591.000000	0.336058
592.000000	0.336286
593.000000	0.336540
594.000000	0.336824
595.000000	0.337072
596.000000	0.337323
597.000000	0.337598
598.000000	0.337796
599.000000	0.337912
600.000000	0.338087
601.000000	0.338330
602.000000	0.338547
603.000000	0.338768
604.000000	0.339009
605.000000	0.339211
606.000000	0.339432
607.000000	0.339660
608.000000	0.339839
609.000000	0.340076
610.000000	0.340304
611.000000	0.340444
612.000000	0.340709
613.000000	0.340923
614.000000	0.341026
615.000000	0.341136
616.000000	0.341321
617.000000	0.341499
618.000000	0.341533
619.000000	0.341632
620.000000	0.341777
621.000000	0.341940
622.000000	0.342125
623.000000	0.342255
624.000000	0.342285
625.000000	0.342363
626.000000	0.342463
627.000000	0.342577
628.000000	0.342730
629.000000	0.342958
630.000000	0.343086
631.000000	0.343154
632.000000	0.343290
633.000000	0.343492
634.000000	0.343698
635.000000	0.343831
636.000000	0.343996
637.000000	0.344215
638.000000	0.344401
639.000000	0.344586
640.000000	0.344809
641.000000	0.344925
642.000000	0.345060
643.000000	0.345237
644.000000	0.345445
645.000000	0.345641
646.000000	0.345817
647.000000	0.345953
648.000000	0.346119
649.000000	0.346288
650.000000	0.346436
651.000000	0.346626
652.000000	0.346756
653.000000	0.346907
654.000000	0.347134
655.000000	0.347376
656.000000	0.347596
657.000000	0.347711
658.000000	0.347797
659.000000	0.347914
660.000000	0.348067
661.000000	0.348240
662.000000	0.348386
663.000000	0.348571
664.000000	0.348802
665.000000	0.348931
666.000000	0.349066
667.000000	0.349299
668.000000	0.349494
669.000000	0.349676
670.000000	0.349868
671.000000	0.350043
672.000000	0.350175
673.000000	0.350277
674.000000	0.350417
675.000000	0.350560
676.000000	0.350690
677.000000	0.350821
678.000000	0.350962
679.000000	0.351155
680.000000	0.351388
681.000000	0.351449
682.000000	0.351570
683.000000	0.351740
684.000000	0.351982
685.000000	0.352145
686.000000	0.352326
687.000000	0.352621
688.000000	0.352793
689.000000	0.352932
690.000000	0.353154
691.000000	0.353358
692.000000	0.353497
693.000000	0.353650
694.000000	0.353837
695.000000	0.353997
696.000000	0.354133
697.000000	0.354282
698.000000	0.354498
699.000000	0.354718
700.000000	0.354893
701.000000	0.355031
702.000000	0.355152
703.000000	0.355260
704.000000	0.355391
705.000000	0.355570
706.000000	0.355744
707.000000	0.355937
708.000000	0.356114
709.000000	0.356262
710.000000	0.356410
711.000000	0.356616
712.000000	0.356799
713.000000	0.356947
714.000000	0.357085
715.000000	0.357207
716.000000	0.357335
717.000000	0.357475
718.000000	0.357640
719.000000	0.357783
720.000000	0.357899
721.000000	0.358099
722.000000	0.358248
723.000000	0.358364
724.000000	0.358467
725.000000	0.358522
726.000000	0.358631
727.000000	0.358753
728.000000	0.358865
729.000000	0.359019
730.000000	0.359187
731.000000	0.359340
732.000000	0.359470
733.000000	0.359606
734.000000	0.359691
735.000000	0.359757
736.000000	0.359912
737.000000	0.359995
738.000000	0.360069
739.000000	0.360202
740.000000	0.360250
741.000000	0.360343
742.000000	0.360461
743.000000	0.360543
744.000000	0.360583
745.000000	0.360572
746.000000	0.360605
747.000000	0.360688
748.000000	0.360823
749.000000	0.361002
750.000000	0.361158
751.000000	0.361230
752.000000	0.361310
753.000000	0.361426
754.000000	0.361526
755.000000	0.361631
756.000000	0.361723
757.000000	0.361727
758.000000	0.361721
759.000000	0.361774
760.000000	0.361847
761.000000	0.362009
762.000000	0.362113
763.000000	0.362150
764.000000	0.362283
765.000000	0.362383
766.000000	0.362475
767.000000	0.362583
768.000000	0.362671
769.000000	0.362763
770.000000	0.362855
771.000000	0.362870
772.000000	0.363002
773.000000	0.363123
774.000000	0.363142
775.000000	0.363155
776.000000	0.363181
777.000000	0.363209
778.000000	0.363275
779.000000	0.363320
780.000000	0.363347
781.000000	0.363391
782.000000	0.363387
783.000000	0.363452
784.000000	0.363515
785.000000	0.363573
786.000000	0.363620
787.000000	0.363645
788.000000	0.363627
789.000000	0.363673
790.000000	0.363756
791.000000	0.363833
792.000000	0.363891
793.000000	0.363928
794.000000	0.363959
795.000000	0.364028
796.000000	0.364044
797.000000	0.364016
798.000000	0.364071
799.000000	0.364112
800.000000	0.364151
801.000000	0.364219
802.000000	0.364223
803.000000	0.364172
804.000000	0.364143
805.000000	0.364186
806.000000	0.364159
807.000000	0.364167
808.000000	0.364235
809.000000	0.364256
810.000000	0.364219
811.000000	0.364137
812.000000	0.364099
813.000000	0.364110
814.000000	0.364129
815.000000	0.364100
816.000000	0.364106
817.000000	0.364149
818.000000	0.364120
819.000000	0.364160
820.000000	0.364195
821.000000	0.364163
822.000000	0.364226
823.000000	0.364246
824.000000	0.364141
825.000000	0.364014
826.000000	0.363953
827.000000	0.363873
828.000000	0.363792
829.000000	0.363793
830.000000	0.363827
831.000000	0.363924
832.000000	0.363955
833.000000	0.363965
834.000000	0.363954
835.000000	0.363947
836.000000	0.363896
837.000000	0.363820
838.000000	0.363756
839.000000	0.363710
840.000000	0.363799
841.000000	0.363905
842.000000	0.363857
843.000000	0.363751
844.000000	0.363694
845.000000	0.363662
846.000000	0.363593
847.000000	0.363520
848.000000	0.363461
849.000000	0.363449
850.000000	0.363372
851.000000	0.363273
852.000000	0.363235
853.000000	0.363251
854.000000	0.363244
855.000000	0.363312
856.000000	0.363353
857.000000	0.363248
858.000000	0.363185
859.000000	0.363136
860.000000	0.362985
861.000000	0.362753
862.000000	0.362546
863.000000	0.362397
864.000000	0.362297
865.000000	0.362232
866.000000	0.362213
867.000000	0.362201
868.000000	0.362133
869.000000	0.362015
870.000000	0.362006
871.000000	0.361924
872.000000	0.361804
873.000000	0.361626
874.000000	0.361465
875.000000	0.361225
876.000000	0.361054
877.000000	0.361068
878.000000	0.360959
879.000000	0.360837
880.000000	0.360662
881.000000	0.360633
882.000000	0.360598
883.000000	0.360495
884.000000	0.360261
885.000000	0.360244
886.000000	0.360220
887.000000	0.360049
888.000000	0.359723
889.000000	0.359589
890.000000	0.359498
891.000000	0.359384
892.000000	0.359218
893.000000	0.358990
894.000000	0.358841
895.000000	0.358684
896.000000	0.358502
897.000000	0.358343
898.000000	0.358251
899.000000	0.358126
900.000000	0.357908
901.000000	0.357616
902.000000	0.357528
903.000000	0.357426
904.000000	0.357291
905.000000	0.357051
906.000000	0.356886
907.000000	0.356694
908.000000	0.356507
909.000000	0.356306
910.000000	0.356122
911.000000	0.356000
912.000000	0.355942
913.000000	0.355674
914.000000	0.355443
915.000000	0.355305
916.000000	0.354984
917.000000	0.354833
918.000000	0.354706
919.000000	0.354439
920.000000	0.354149
921.000000	0.353838
922.000000	0.353602
923.000000	0.353507
924.000000	0.353321
925.000000	0.353147
926.000000	0.353057
927.000000	0.352870
928.000000	0.352579
929.000000	0.352179
930.000000	0.351739
931.000000	0.351593
932.000000	0.351434
933.000000	0.351161
934.000000	0.350820
935.000000	0.350633
936.000000	0.350453
937.000000	0.350049
938.000000	0.349750
939.000000	0.349545
940.000000	0.349327
941.000000	0.349110
942.000000	0.348760
943.000000	0.348602
944.000000	0.348557
945.000000	0.348205
946.000000	0.347890
947.000000	0.347754
948.000000	0.347717
949.000000	0.347490
950.000000	0.347126
951.000000	0.346691
952.000000	0.346394
953.000000	0.346266
954.000000	0.346197
955.000000	0.345992
956.000000	0.345633
957.000000	0.345299
958.000000	0.345078
959.000000	0.345089
960.000000	0.344924
961.000000	0.344580
962.000000	0.344196
963.000000	0.344089
964.000000	0.343890
965.000000	0.343693
966.000000	0.343463
967.000000	0.343070
968.000000	0.342767
969.000000	0.342501
970.000000	0.342236
971.000000	0.342076
972.000000	0.342078
973.000000	0.342019
974.000000	0.341582
975.000000	0.341111
976.000000	0.340913
977.000000	0.340981
978.000000	0.340466
979.000000	0.340389
980.000000	0.340451
981.000000	0.340392
982.000000	0.340386
983.000000	0.340158
984.000000	0.339745
985.000000	0.339365
986.000000	0.339109
987.000000	0.338803
988.000000	0.338316
989.000000	0.338229
990.000000	0.338112
991.000000	0.338000
992.000000	0.338041
993.000000	0.337777
994.000000	0.337744
995.000000	0.337937
996.000000	0.337569
997.000000	0.337596
998.000000	0.337367
999.000000	0.336848
1000.000000	0.336882
1001.000000	0.336809
1002.000000	0.337001
1003.000000	0.337286
1004.000000	0.337115
1005.000000	0.335991
1006.000000	0.335694
1007.000000	0.335524
1008.000000	0.335821
1009.000000	0.336697
1010.000000	0.337248
1011.000000	0.337675
1012.000000	0.337748
1013.000000	0.337119
1014.000000	0.336543
1015.000000	0.336279
1016.000000	0.336046
1017.000000	0.336006
1018.000000	0.336233
1019.000000	0.336280
1020.000000	0.336746
1021.000000	0.336396
1022.000000	0.335535
1023.000000	0.335515
1024.000000	0.335642
1025.000000	0.335324
1026.000000	0.335503
1027.000000	0.335141
1028.000000	0.334410
1029.000000	0.334499
1030.000000	0.335010
1031.000000	0.335880
1032.000000	0.336218
1033.000000	0.335797
1034.000000	0.335792
1035.000000	0.335462
1036.000000	0.335360
1037.000000	0.335790
1038.000000	0.335903
1039.000000	0.336024
1040.000000	0.335725
1041.000000	0.335937
1042.000000	0.336039
1043.000000	0.336177
1044.000000	0.336443
1045.000000	0.336181
1046.000000	0.336054
1047.000000	0.336232
1048.000000	0.336507
1049.000000	0.336625
1050.000000	0.337077
1051.000000	0.337208
1052.000000	0.336738
1053.000000	0.336765
1054.000000	0.337418
1055.000000	0.337640
1056.000000	0.337835
1057.000000	0.338191
1058.000000	0.337734
1059.000000	0.337056
1060.000000	0.337389
1061.000000	0.337442
1062.000000	0.337322
1063.000000	0.337853
1064.000000	0.338329
1065.000000	0.338480
1066.000000	0.338929
1067.000000	0.340238
1068.000000	0.340522
1069.000000	0.339902
1070.000000	0.339886
1071.000000	0.339742
1072.000000	0.339788
1073.000000	0.340088
1074.000000	0.340848
1075.000000	0.341082
1076.000000	0.341446
1077.000000	0.341767
1078.000000	0.341527
1079.000000	0.341378
1080.000000	0.340771
1081.000000	0.341014
1082.000000	0.341826
1083.000000	0.342277
1084.000000	0.343270
1085.000000	0.343784
1086.000000	0.343817
1087.000000	0.343833
1088.000000	0.343442
1089.000000	0.343466
1090.000000	0.343636
1091.000000	0.343530
1092.000000	0.343463
1093.000000	0.344016
1094.000000	0.344112
1095.000000	0.343635
1096.000000	0.343874
1097.000000	0.344536
1098.000000	0.344912
1099.000000	0.345429
1100.000000	0.345779
1101.000000	0.345844
1102.000000	0.346030
1103.000000	0.346197
1104.000000	0.346431
1105.000000	0.346685
1106.000000	0.346929
1107.000000	0.347259
1108.000000	0.347395
1109.000000	0.347361
1110.000000	0.347465
1111.000000	0.347661
1112.000000	0.347866
1113.000000	0.348038
1114.000000	0.348436
1115.000000	0.348530
1116.000000	0.348321
1117.000000	0.348363
1118.000000	0.348386
1119.000000	0.348453
1120.000000	0.348697
1121.000000	0.348795
1122.000000	0.348877
1123.000000	0.349214
1124.000000	0.349428
1125.000000	0.349602
1126.000000	0.349657
1127.000000	0.349815
1128.000000	0.349983
1129.000000	0.350157
1130.000000	0.350308
1131.000000	0.350625
1132.000000	0.350683
1133.000000	0.350552
1134.000000	0.350621
1135.000000	0.350644
1136.000000	0.350687
1137.000000	0.350836
1138.000000	0.350855
1139.000000	0.350868
1140.000000	0.350993
1141.000000	0.351090
1142.000000	0.351176
1143.000000	0.351271
1144.000000	0.351405
1145.000000	0.351253
1146.000000	0.351197
1147.000000	0.351124
1148.000000	0.350836
1149.000000	0.350897
1150.000000	0.351164
1151.000000	0.351334
1152.000000	0.351601
1153.000000	0.351768
1154.000000	0.351872
1155.000000	0.351844
1156.000000	0.351662
1157.000000	0.351667
1158.000000	0.351625
1159.000000	0.351559
1160.000000	0.351634
1161.000000	0.351598
1162.000000	0.351561
1163.000000	0.351468
1164.000000	0.351221
1165.000000	0.351259
1166.000000	0.351304
1167.000000	0.351354
1168.000000	0.351309
1169.000000	0.351377
1170.000000	0.351367
1171.000000	0.351264
1172.000000	0.351244
1173.000000	0.351218
1174.000000	0.351229
1175.000000	0.351294
1176.000000	0.351187
1177.000000	0.351070
1178.000000	0.351034
1179.000000	0.350856
1180.000000	0.350764
1181.000000	0.350931
1182.000000	0.351071
1183.000000	0.351158
1184.000000	0.351132
1185.000000	0.351116
1186.000000	0.351006
1187.000000	0.350971
1188.000000	0.350988
1189.000000	0.350914
1190.000000	0.350870
1191.000000	0.350813
1192.000000	0.350773
1193.000000	0.350863
1194.000000	0.350919
1195.000000	0.350939
1196.000000	0.350957
1197.000000	0.350917
1198.000000	0.350758
1199.000000	0.350727
1200.000000	0.350780
1201.000000	0.350740
1202.000000	0.350680
1203.000000	0.350650
1204.000000	0.350476
1205.000000	0.350343
1206.000000	0.350288
1207.000000	0.350459
1208.000000	0.350443
1209.000000	0.350497
1210.000000	0.350460
1211.000000	0.350291
1212.000000	0.350197
1213.000000	0.350148
1214.000000	0.350129
1215.000000	0.350128
1216.000000	0.350090
1217.000000	0.349975
1218.000000	0.349953
1219.000000	0.350013
1220.000000	0.350051
1221.000000	0.350181
1222.000000	0.350148
1223.000000	0.349962
1224.000000	0.349965
1225.000000	0.350003
1226.000000	0.350059
1227.000000	0.350139
1228.000000	0.350173
1229.000000	0.350155
1230.000000	0.350008
1231.000000	0.349962
1232.000000	0.350094
1233.000000	0.350239
1234.000000	0.350410
1235.000000	0.350471
1236.000000	0.350371
1237.000000	0.350407
1238.000000	0.350444
1239.000000	0.350417
1240.000000	0.350426
1241.000000	0.350380
1242.000000	0.350212
1243.000000	0.350122
1244.000000	0.350078
1245.000000	0.350155
1246.000000	0.350275
1247.000000	0.350367
1248.000000	0.350490
1249.000000	0.350495
1250.000000	0.350384
1251.000000	0.350289
1252.000000	0.350233
1253.000000	0.350222
1254.000000	0.350255
1255.000000	0.350348
1256.000000	0.350377
1257.000000	0.350419
1258.000000	0.350439
1259.000000	0.350403
1260.000000	0.350367
1261.000000	0.350209
1262.000000	0.350153
1263.000000	0.350113
1264.000000	0.350052
1265.000000	0.350195
1266.000000	0.350266
1267.000000	0.350186
1268.000000	0.350096
1269.000000	0.350017
1270.000000	0.350082
1271.000000	0.350146
1272.000000	0.350248
1273.000000	0.350369
1274.000000	0.350239
1275.000000	0.350217
1276.000000	0.350306
1277.000000	0.350349
1278.000000	0.350296
1279.000000	0.350256
1280.000000	0.350087
1281.000000	0.349963
1282.000000	0.349812
1283.000000	0.349853
1284.000000	0.350079
1285.000000	0.350048
1286.000000	0.349870
1287.000000	0.349857
1288.000000	0.349894
1289.000000	0.349851
1290.000000	0.349933
1291.000000	0.350043
1292.000000	0.350000
1293.000000	0.349917
1294.000000	0.349874
1295.000000	0.349946
1296.000000	0.349894
1297.000000	0.349842
1298.000000	0.350041
1299.000000	0.350030
1300.000000	0.350003
1301.000000	0.350033
1302.000000	0.349924
1303.000000	0.349776
1304.000000	0.349656
1305.000000	0.349686
1306.000000	0.349575
1307.000000	0.349392
1308.000000	0.349351
1309.000000	0.349334
1310.000000	0.349228
1311.000000	0.349177
1312.000000	0.349089
1313.000000	0.348933
1314.000000	0.348822
1315.000000	0.348726
1316.000000	0.348765
1317.000000	0.348781
1318.000000	0.348601
1319.000000	0.348330
1320.000000	0.348113
1321.000000	0.348038
1322.000000	0.347961
1323.000000	0.347722
1324.000000	0.347700
1325.000000	0.347683
1326.000000	0.347461
1327.000000	0.347357
1328.000000	0.347241
1329.000000	0.347022
1330.000000	0.346580
1331.000000	0.346403
1332.000000	0.346489
1333.000000	0.346362
1334.000000	0.346245
1335.000000	0.346173
1336.000000	0.346018
1337.000000	0.345815
1338.000000	0.345578
1339.000000	0.345372
1340.000000	0.345089
1341.000000	0.344929
1342.000000	0.344865
1343.000000	0.344935
1344.000000	0.344883
1345.000000	0.344613
1346.000000	0.344481
1347.000000	0.344087
1348.000000	0.343628
1349.000000	0.343550
1350.000000	0.343468
1351.000000	0.343185
1352.000000	0.343081
1353.000000	0.342750
1354.000000	0.342399
1355.000000	0.342270
1356.000000	0.342138
1357.000000	0.342009
1358.000000	0.341760
1359.000000	0.341487
1360.000000	0.341308
1361.000000	0.341120
1362.000000	0.341021
1363.000000	0.341165
1364.000000	0.341057
1365.000000	0.340759
1366.000000	0.340597
1367.000000	0.340439
1368.000000	0.340122
1369.000000	0.339978
1370.000000	0.339871
1371.000000	0.339411
1372.000000	0.338915
1373.000000	0.338632
1374.000000	0.338204
1375.000000	0.337889
1376.000000	0.337963
1377.000000	0.337823
1378.000000	0.337389
1379.000000	0.336781
1380.000000	0.336093
1381.000000	0.335226
1382.000000	0.334417
1383.000000	0.334016
1384.000000	0.333333
1385.000000	0.332412
1386.000000	0.331718
1387.000000	0.330891
1388.000000	0.330023
1389.000000	0.329488
1390.000000	0.328935
1391.000000	0.328341
1392.000000	0.327869
1393.000000	0.327367
1394.000000	0.326938
1395.000000	0.326558
1396.000000	0.326235
1397.000000	0.325759
1398.000000	0.325236
1399.000000	0.324569
1400.000000	0.323715
1401.000000	0.322952
1402.000000	0.322210
1403.000000	0.321437
1404.000000	0.320703
1405.000000	0.319875
1406.000000	0.318868
1407.000000	0.317878
1408.000000	0.316804
1409.000000	0.315742
1410.000000	0.314873
1411.000000	0.313893
1412.000000	0.312767
1413.000000	0.311713
1414.000000	0.310710
1415.000000	0.309699
1416.000000	0.308694
1417.000000	0.307796
1418.000000	0.306742
1419.000000	0.305671
1420.000000	0.304715
1421.000000	0.303800
1422.000000	0.302786
1423.000000	0.301825
1424.000000	0.300810
1425.000000	0.299806
1426.000000	0.298801
1427.000000	0.297847
1428.000000	0.297036
1429.000000	0.296215
1430.000000	0.295438
1431.000000	0.294741
1432.000000	0.293956
1433.000000	0.293074
1434.000000	0.292332
1435.000000	0.291720
1436.000000	0.291056
1437.000000	0.290486
1438.000000	0.289812
1439.000000	0.289017
1440.000000	0.288396
1441.000000	0.287876
1442.000000	0.287315
1443.000000	0.286752
1444.000000	0.286252
1445.000000	0.285590
1446.000000	0.284965
1447.000000	0.284494
1448.000000	0.284011
1449.000000	0.283590
1450.000000	0.283165
1451.000000	0.282653
1452.000000	0.282104
1453.000000	0.281684
1454.000000	0.281414
1455.000000	0.281142
1456.000000	0.280921
1457.000000	0.280781
1458.000000	0.280565
1459.000000	0.280342
1460.000000	0.280256
1461.000000	0.280123
1462.000000	0.279823
1463.000000	0.279511
1464.000000	0.279230
1465.000000	0.279004
1466.000000	0.278865
1467.000000	0.278829
1468.000000	0.278842
1469.000000	0.278812
1470.000000	0.278737
1471.000000	0.278789
1472.000000	0.278846
1473.000000	0.278934
1474.000000	0.279083
1475.000000	0.279220
1476.000000	0.279388
1477.000000	0.279684
1478.000000	0.279948
1479.000000	0.280261
1480.000000	0.280593
1481.000000	0.280855
1482.000000	0.281153
1483.000000	0.281459
1484.000000	0.281676
1485.000000	0.281984
1486.000000	0.282302
1487.000000	0.282655
1488.000000	0.283146
1489.000000	0.283524
1490.000000	0.283725
1491.000000	0.284094
1492.000000	0.284395
1493.000000	0.284753
1494.000000	0.285236
1495.000000	0.285625
1496.000000	0.285983
1497.000000	0.286364
1498.000000	0.286784
1499.000000	0.287059
1500.000000	0.287423
1501.000000	0.287753
1502.000000	0.288035
1503.000000	0.288435
1504.000000	0.288802
1505.000000	0.288972
1506.000000	0.289054
1507.000000	0.289240
1508.000000	0.289508
1509.000000	0.289804
1510.000000	0.290103
1511.000000	0.290372
1512.000000	0.290607
1513.000000	0.290803
1514.000000	0.291091
1515.000000	0.291355
1516.000000	0.291476
1517.000000	0.291588
1518.000000	0.291747
1519.000000	0.291845
1520.000000	0.292002
1521.000000	0.292088
1522.000000	0.292226
1523.000000	0.292485
1524.000000	0.292635
1525.000000	0.292838
1526.000000	0.292992
1527.000000	0.293116
1528.000000	0.293312
1529.000000	0.293446
1530.000000	0.293519
1531.000000	0.293616
1532.000000	0.293707
1533.000000	0.293780
1534.000000	0.293864
1535.000000	0.293829
1536.000000	0.293631
1537.000000	0.293649
1538.000000	0.293751
1539.000000	0.293774
1540.000000	0.293888
1541.000000	0.294010
1542.000000	0.294063
1543.000000	0.294130
1544.000000	0.294313
1545.000000	0.294500
1546.000000	0.294604
1547.000000	0.294693
1548.000000	0.294741
1549.000000	0.294729
1550.000000	0.294653
1551.000000	0.294657
1552.000000	0.294693
1553.000000	0.294695
1554.000000	0.294771
1555.000000	0.294842
1556.000000	0.294872
1557.000000	0.294826
1558.000000	0.294822
1559.000000	0.294730
1560.000000	0.294755
1561.000000	0.294930
1562.000000	0.294934
1563.000000	0.294941
1564.000000	0.294914
1565.000000	0.294757
1566.000000	0.294652
1567.000000	0.294689
1568.000000	0.294669
1569.000000	0.294664
1570.000000	0.294663
1571.000000	0.294681
1572.000000	0.294680
1573.000000	0.294668
1574.000000	0.294671
1575.000000	0.294689
1576.000000	0.294701
1577.000000	0.294757
1578.000000	0.294696
1579.000000	0.294584
1580.000000	0.294521
1581.000000	0.294471
1582.000000	0.294448
1583.000000	0.294483
1584.000000	0.294424
1585.000000	0.294402
1586.000000	0.294385
1587.000000	0.294368
1588.000000	0.294333
1589.000000	0.294270
1590.000000	0.294230
1591.000000	0.294173
1592.000000	0.294182
1593.000000	0.294298
1594.000000	0.294334
1595.000000	0.294457
1596.000000	0.294502
1597.000000	0.294441
1598.000000	0.294502
1599.000000	0.294643
1600.000000	0.294639
1601.000000	0.294713
1602.000000	0.294777
1603.000000	0.294736
1604.000000	0.294785
1605.000000	0.295012
1606.000000	0.295070
1607.000000	0.295133
1608.000000	0.295108
1609.000000	0.294949
1610.000000	0.294881
1611.000000	0.294812
1612.000000	0.294831
1613.000000	0.295032
1614.000000	0.295182
1615.000000	0.295446
1616.000000	0.295625
1617.000000	0.295747
1618.000000	0.295839
1619.000000	0.295799
1620.000000	0.295919
1621.000000	0.296161
1622.000000	0.296339
1623.000000	0.296489
1624.000000	0.296673
1625.000000	0.296697
1626.000000	0.296801
1627.000000	0.297118
1628.000000	0.297231
1629.000000	0.297141
1630.000000	0.297225
1631.000000	0.297226
1632.000000	0.297272
1633.000000	0.297480
1634.000000	0.297624
1635.000000	0.297736
1636.000000	0.297866
1637.000000	0.298092
1638.000000	0.298128
1639.000000	0.298042
1640.000000	0.298170
1641.000000	0.298394
1642.000000	0.298587
1643.000000	0.298917
1644.000000	0.299168
1645.000000	0.299346
1646.000000	0.299506
1647.000000	0.299805
1648.000000	0.299920
1649.000000	0.299923
1650.000000	0.300022
1651.000000	0.300073
1652.000000	0.300290
1653.000000	0.300634
1654.000000	0.300871
1655.000000	0.301125
1656.000000	0.301227
1657.000000	0.301189
1658.000000	0.301326
1659.000000	0.301617
1660.000000	0.301855
1661.000000	0.302093
1662.000000	0.302307
1663.000000	0.302427
1664.000000	0.302597
1665.000000	0.302805
1666.000000	0.303090
1667.000000	0.303305
1668.000000	0.303539
1669.000000	0.303779
1670.000000	0.304026
1671.000000	0.304417
1672.000000	0.304700
1673.000000	0.304995
1674.000000	0.305039
1675.000000	0.305080
1676.000000	0.305052
1677.000000	0.305025
1678.000000	0.305111
1679.000000	0.305122
1680.000000	0.305201
1681.000000	0.305382
1682.000000	0.305486
1683.000000	0.305613
1684.000000	0.305695
1685.000000	0.305851
1686.000000	0.306078
1687.000000	0.306210
1688.000000	0.306351
1689.000000	0.306415
1690.000000	0.306354
1691.000000	0.306526
1692.000000	0.306657
1693.000000	0.306760
1694.000000	0.306808
1695.000000	0.306842
1696.000000	0.306855
1697.000000	0.306890
1698.000000	0.307116
1699.000000	0.307275
1700.000000	0.307378
1701.000000	0.307584
1702.000000	0.307650
1703.000000	0.307686
1704.000000	0.307853
1705.000000	0.307937
1706.000000	0.307983
1707.000000	0.308015
1708.000000	0.307918
1709.000000	0.307895
1710.000000	0.308056
1711.000000	0.308119
1712.000000	0.308206
1713.000000	0.308264
1714.000000	0.308191
1715.000000	0.308300
1716.000000	0.308635
1717.000000	0.308757
1718.000000	0.308809
1719.000000	0.308873
1720.000000	0.308827
1721.000000	0.308910
1722.000000	0.309141
1723.000000	0.309277
1724.000000	0.309366
1725.000000	0.309563
1726.000000	0.309741
1727.000000	0.309888
1728.000000	0.310045
1729.000000	0.310108
1730.000000	0.310203
1731.000000	0.310291
1732.000000	0.310346
1733.000000	0.310536
1734.000000	0.310651
1735.000000	0.310774
1736.000000	0.310907
1737.000000	0.311123
1738.000000	0.311376
1739.000000	0.311575
1740.000000	0.311899
1741.000000	0.311947
1742.000000	0.311748
1743.000000	0.311886
1744.000000	0.312049
1745.000000	0.312159
1746.000000	0.312413
1747.000000	0.312441
1748.000000	0.312404
1749.000000	0.312331
1750.000000	0.312277
1751.000000	0.312218
1752.000000	0.312361
1753.000000	0.312601
1754.000000	0.312749
1755.000000	0.312919
1756.000000	0.312998
1757.000000	0.312862
1758.000000	0.312933
1759.000000	0.313073
1760.000000	0.313217
1761.000000	0.313537
1762.000000	0.313644
1763.000000	0.313623
1764.000000	0.313635
1765.000000	0.313516
1766.000000	0.313465
1767.000000	0.313305
1768.000000	0.313300
1769.000000	0.313532
1770.000000	0.313631
1771.000000	0.313693
1772.000000	0.313839
1773.000000	0.313894
1774.000000	0.313966
1775.000000	0.314221
1776.000000	0.314411
1777.000000	0.314479
1778.000000	0.314548
1779.000000	0.314670
1780.000000	0.314745
1781.000000	0.314631
1782.000000	0.314744
1783.000000	0.315087
1784.000000	0.315192
1785.000000	0.315114
1786.000000	0.315123
1787.000000	0.315364
1788.000000	0.315648
1789.000000	0.316006
1790.000000	0.316107
1791.000000	0.316161
1792.000000	0.316284
1793.000000	0.316331
1794.000000	0.316240
1795.000000	0.316330
1796.000000	0.316505
1797.000000	0.316573
1798.000000	0.316721
1799.000000	0.316783
1800.000000	0.316607
1801.000000	0.316423
1802.000000	0.316815
1803.000000	0.316873
1804.000000	0.316920
1805.000000	0.316888
1806.000000	0.316564
1807.000000	0.315436
1808.000000	0.315272
1809.000000	0.315626
1810.000000	0.315531
1811.000000	0.315696
1812.000000	0.316350
1813.000000	0.316774
1814.000000	0.317278
1815.000000	0.317516
1816.000000	0.318036
1817.000000	0.317936
1818.000000	0.317487
1819.000000	0.316489
1820.000000	0.315672
1821.000000	0.315395
1822.000000	0.315363
1823.000000	0.315926
1824.000000	0.315630
1825.000000	0.314763
1826.000000	0.314749
1827.000000	0.313972
1828.000000	0.314689
1829.000000	0.316400
1830.000000	0.317743
1831.000000	0.318105
1832.000000	0.317894
1833.000000	0.317572
1834.000000	0.316448
1835.000000	0.315835
1836.000000	0.315108
1837.000000	0.314726
1838.000000	0.314697
1839.000000	0.313787
1840.000000	0.313534
1841.000000	0.313485
1842.000000	0.313489
1843.000000	0.313807
1844.000000	0.313808
1845.000000	0.313801
1846.000000	0.313582
1847.000000	0.313301
1848.000000	0.312008
1849.000000	0.310784
1850.000000	0.310104
1851.000000	0.309499
1852.000000	0.308922
1853.000000	0.308561
1854.000000	0.308555
1855.000000	0.307985
1856.000000	0.306968
1857.000000	0.306083
1858.000000	0.306058
1859.000000	0.305647
1860.000000	0.304829
1861.000000	0.304528
1862.000000	0.303821
1863.000000	0.302124
1864.000000	0.301354
1865.000000	0.301610
1866.000000	0.300865
1867.000000	0.299846
1868.000000	0.298656
1869.000000	0.296625
1870.000000	0.295396
1871.000000	0.294695
1872.000000	0.293330
1873.000000	0.291800
1874.000000	0.290518
1875.000000	0.288339
1876.000000	0.284777
1877.000000	0.282003
1878.000000	0.279617
1879.000000	0.276945
1880.000000	0.274829
1881.000000	0.272862
1882.000000	0.270748
1883.000000	0.268313
1884.000000	0.265912
1885.000000	0.263659
1886.000000	0.260644
1887.000000	0.256813
1888.000000	0.253686
1889.000000	0.250406
1890.000000	0.246494
1891.000000	0.243340
1892.000000	0.239625
1893.000000	0.236016
1894.000000	0.233124
1895.000000	0.229746
1896.000000	0.226637
1897.000000	0.223363
1898.000000	0.219593
1899.000000	0.215804
1900.000000	0.212316
1901.000000	0.209370
1902.000000	0.206150
1903.000000	0.202321
1904.000000	0.199200
1905.000000	0.196367
1906.000000	0.193305
1907.000000	0.190205
1908.000000	0.187776
1909.000000	0.185749
1910.000000	0.183470
1911.000000	0.181353
1912.000000	0.179839
1913.000000	0.177983
1914.000000	0.175963
1915.000000	0.174804
1916.000000	0.173607
1917.000000	0.171939
1918.000000	0.170072
1919.000000	0.168377
1920.000000	0.166358
1921.000000	0.164500
1922.000000	0.163192
1923.000000	0.162334
1924.000000	0.162137
1925.000000	0.161728
1926.000000	0.161152
1927.000000	0.160527
1928.000000	0.160104
1929.000000	0.159341
1930.000000	0.159307
1931.000000	0.159564
1932.000000	0.159940
1933.000000	0.159760
1934.000000	0.159164
1935.000000	0.159251
1936.000000	0.159482
1937.000000	0.159889
1938.000000	0.160038
1939.000000	0.159967
1940.000000	0.159581
1941.000000	0.159116
1942.000000	0.158641
1943.000000	0.158667
1944.000000	0.158314
1945.000000	0.157937
1946.000000	0.158647
1947.000000	0.158741
1948.000000	0.158675
1949.000000	0.158594
1950.000000	0.157245
1951.000000	0.156324
1952.000000	0.155190
1953.000000	0.154599
1954.000000	0.154388
1955.000000	0.154415
1956.000000	0.154360
1957.000000	0.154575
1958.000000	0.154244
1959.000000	0.153734
1960.000000	0.152880
1961.000000	0.151739
1962.000000	0.151298
1963.000000	0.151236
1964.000000	0.151196
1965.000000	0.151807
1966.000000	0.152572
1967.000000	0.152570
1968.000000	0.152855
1969.000000	0.152243
1970.000000	0.151461
1971.000000	0.151240
1972.000000	0.150699
1973.000000	0.150638
1974.000000	0.151582
1975.000000	0.152061
1976.000000	0.152454
1977.000000	0.152854
1978.000000	0.153409
1979.000000	0.153558
1980.000000	0.154298
1981.000000	0.155409
1982.000000	0.155696
1983.000000	0.156169
1984.000000	0.156311
1985.000000	0.155454
1986.000000	0.155333
1987.000000	0.155666
1988.000000	0.155756
1989.000000	0.155858
1990.000000	0.156775
1991.000000	0.156906
1992.000000	0.157118
1993.000000	0.157872
1994.000000	0.158076
1995.000000	0.158974
1996.000000	0.160282
1997.000000	0.161348
1998.000000	0.162678
1999.000000	0.163761
2000.000000	0.164698
2001.000000	0.165467
2002.000000	0.166199
2003.000000	0.166618
2004.000000	0.167207
2005.000000	0.167481
2006.000000	0.168136
2007.000000	0.168842
2008.000000	0.169628
2009.000000	0.170699
2010.000000	0.171707
2011.000000	0.172662
2012.000000	0.173574
2013.000000	0.174426
2014.000000	0.175144
2015.000000	0.176166
2016.000000	0.176948
2017.000000	0.178019
2018.000000	0.178741
2019.000000	0.179084
2020.000000	0.179845
2021.000000	0.180633
2022.000000	0.181535
2023.000000	0.182375
2024.000000	0.183312
2025.000000	0.184190
2026.000000	0.184913
2027.000000	0.185453
2028.000000	0.186420
2029.000000	0.187457
2030.000000	0.188409
2031.000000	0.189315
2032.000000	0.190352
2033.000000	0.191270
2034.000000	0.192100
2035.000000	0.193014
2036.000000	0.194061
2037.000000	0.195197
2038.000000	0.196091
2039.000000	0.197223
2040.000000	0.197872
2041.000000	0.198315
2042.000000	0.199234
2043.000000	0.200391
2044.000000	0.201408
2045.000000	0.202288
2046.000000	0.202783
2047.000000	0.203403
2048.000000	0.203966
2049.000000	0.204534
2050.000000	0.204757
2051.000000	0.205187
2052.000000	0.205439
2053.000000	0.205733
2054.000000	0.206263
2055.000000	0.207075
2056.000000	0.207419
2057.000000	0.208107
2058.000000	0.208817
2059.000000	0.209789
2060.000000	0.210593
2061.000000	0.211546
2062.000000	0.212325
2063.000000	0.212872
2064.000000	0.213461
2065.000000	0.214077
2066.000000	0.214939
2067.000000	0.216336
2068.000000	0.217575
2069.000000	0.217871
2070.000000	0.218281
2071.000000	0.218032
2072.000000	0.217538
2073.000000	0.218095
2074.000000	0.219031
2075.000000	0.219878
2076.000000	0.221010
2077.000000	0.222001
2078.000000	0.223124
2079.000000	0.223803
2080.000000	0.224224
2081.000000	0.224907
2082.000000	0.225318
2083.000000	0.226006
2084.000000	0.227382
2085.000000	0.228294
2086.000000	0.228787
2087.000000	0.229786
2088.000000	0.230489
2089.000000	0.231042
2090.000000	0.231538
2091.000000	0.231678
2092.000000	0.232511
2093.000000	0.233810
2094.000000	0.234735
2095.000000	0.236645
2096.000000	0.237304
2097.000000	0.236874
2098.000000	0.236211
2099.000000	0.235887
2100.000000	0.236071
2101.000000	0.237497
2102.000000	0.239185
2103.000000	0.240709
2104.000000	0.242133
2105.000000	0.243011
2106.000000	0.243285
2107.000000	0.243755
2108.000000	0.243863
2109.000000	0.244093
2110.000000	0.244248
2111.000000	0.244366
2112.000000	0.244176
2113.000000	0.244215
2114.000000	0.244492
2115.000000	0.244703
2116.000000	0.245137
2117.000000	0.245890
2118.000000	0.246575
2119.000000	0.247172
2120.000000	0.247547
2121.000000	0.247744
2122.000000	0.247983
2123.000000	0.247692
2124.000000	0.248141
2125.000000	0.249032
2126.000000	0.249671
2127.000000	0.250960
2128.000000	0.251758
2129.000000	0.251923
2130.000000	0.252598
2131.000000	0.253093
2132.000000	0.252852
2133.000000	0.252690
2134.000000	0.252648
2135.000000	0.251932
2136.000000	0.251630
2137.000000	0.251669
2138.000000	0.252059
2139.000000	0.252272
2140.000000	0.252670
2141.000000	0.253190
2142.000000	0.253594
2143.000000	0.253909
2144.000000	0.255099
2145.000000	0.255619
2146.000000	0.255796
2147.000000	0.255888
2148.000000	0.255795
2149.000000	0.255784
2150.000000	0.255697
2151.000000	0.255655
2152.000000	0.255771
2153.000000	0.254970
2154.000000	0.254914
2155.000000	0.255448
2156.000000	0.255349
2157.000000	0.255302
2158.000000	0.255132
2159.000000	0.254324
2160.000000	0.253931
2161.000000	0.253424
2162.000000	0.253712
2163.000000	0.254659
2164.000000	0.254939
2165.000000	0.255136
2166.000000	0.256206
2167.000000	0.256229
2168.000000	0.256280
2169.000000	0.257106
2170.000000	0.257169
2171.000000	0.257521
2172.000000	0.258054
2173.000000	0.257974
2174.000000	0.257493
2175.000000	0.257310
2176.000000	0.256378
2177.000000	0.256477
2178.000000	0.257569
2179.000000	0.258552
2180.000000	0.260618
2181.000000	0.261451
2182.000000	0.261389
2183.000000	0.260661
2184.000000	0.259793
2185.000000	0.258896
2186.000000	0.259202
2187.000000	0.260100
2188.000000	0.260595
2189.000000	0.260959
2190.000000	0.260029
2191.000000	0.260140
2192.000000	0.260363
2193.000000	0.260671
2194.000000	0.260330
2195.000000	0.260343
2196.000000	0.259866
2197.000000	0.257365
2198.000000	0.257795
2199.000000	0.261734
2200.000000	0.262881
2201.000000	0.264259
2202.000000	0.264926
2203.000000	0.263575
2204.000000	0.260265
2205.000000	0.259763
2206.000000	0.258948
2207.000000	0.257154
2208.000000	0.255517
2209.000000	0.254279
2210.000000	0.253775
2211.000000	0.254306
2212.000000	0.257621
2213.000000	0.259474
2214.000000	0.262419
2215.000000	0.262854
2216.000000	0.261380
2217.000000	0.260466
2218.000000	0.256834
2219.000000	0.257772
2220.000000	0.262373
2221.000000	0.264498
2222.000000	0.269073
2223.000000	0.270195
2224.000000	0.267589
2225.000000	0.266265
2226.000000	0.266399
2227.000000	0.265220
2228.000000	0.264504
2229.000000	0.263846
2230.000000	0.262120
2231.000000	0.261284
2232.000000	0.262381
2233.000000	0.263331
2234.000000	0.262152
2235.000000	0.263228
2236.000000	0.263310
2237.000000	0.261832
2238.000000	0.261376
2239.000000	0.261818
2240.000000	0.261563
2241.000000	0.262097
2242.000000	0.261953
2243.000000	0.261531
2244.000000	0.260398
2245.000000	0.256749
2246.000000	0.255632
2247.000000	0.255237
2248.000000	0.255007
2249.000000	0.256137
2250.000000	0.258485
2251.000000	0.257859
2252.000000	0.258104
2253.000000	0.258262
2254.000000	0.257016
2255.000000	0.258452
2256.000000	0.258991
2257.000000	0.259747
2258.000000	0.262691
2259.000000	0.261762
2260.000000	0.261969
2261.000000	0.261539
2262.000000	0.259141
2263.000000	0.258582
2264.000000	0.259425
2265.000000	0.259078
2266.000000	0.258386
2267.000000	0.258484
2268.000000	0.258356
2269.000000	0.259118
2270.000000	0.262450
2271.000000	0.263228
2272.000000	0.263354
2273.000000	0.261946
2274.000000	0.256695
2275.000000	0.253990
2276.000000	0.251366
2277.000000	0.250233
2278.000000	0.249491
2279.000000	0.251247
2280.000000	0.253495
2281.000000	0.255533
2282.000000	0.258422
2283.000000	0.260386
2284.000000	0.259860
2285.000000	0.257547
2286.000000	0.254792
2287.000000	0.252715
2288.000000	0.251860
2289.000000	0.250779
2290.000000	0.249893
2291.000000	0.248850
2292.000000	0.246171
2293.000000	0.243953
2294.000000	0.241713
2295.000000	0.238318
2296.000000	0.236664
2297.000000	0.235556
2298.000000	0.236020
2299.000000	0.238571
2300.000000	0.239372
2301.000000	0.241338
2302.000000	0.241412
2303.000000	0.239414
2304.000000	0.238460
2305.000000	0.237369
2306.000000	0.235758
2307.000000	0.234133
2308.000000	0.231448
2309.000000	0.229512
2310.000000	0.228883
2311.000000	0.229577
2312.000000	0.231361
2313.000000	0.232626
2314.000000	0.231230
2315.000000	0.229081
2316.000000	0.228290
2317.000000	0.226314
2318.000000	0.227560
2319.000000	0.228867
2320.000000	0.225235
2321.000000	0.222570
2322.000000	0.220708
2323.000000	0.218852
2324.000000	0.219136
2325.000000	0.219042
2326.000000	0.218419
2327.000000	0.216983
2328.000000	0.217191
2329.000000	0.219194
2330.000000	0.217527
2331.000000	0.215283
2332.000000	0.213187
2333.000000	0.210722
2334.000000	0.208237
2335.000000	0.207122
2336.000000	0.207064
2337.000000	0.206862
2338.000000	0.207760
2339.000000	0.208544
2340.000000	0.209138
2341.000000	0.209982
2342.000000	0.210859
2343.000000	0.211498
2344.000000	0.213420
2345.000000	0.212215
2346.000000	0.209266
2347.000000	0.206047
2348.000000	0.199823
2349.000000	0.197386
2350.000000	0.195993
2351.000000	0.195267
2352.000000	0.196956
2353.000000	0.197057
2354.000000	0.197278
2355.000000	0.197373
2356.000000	0.197049
2357.000000	0.196449
2358.000000	0.193835
2359.000000	0.193426
2360.000000	0.192037
2361.000000	0.189842
2362.000000	0.188915
2363.000000	0.186857
2364.000000	0.186584
2365.000000	0.187863
2366.000000	0.190550
2367.000000	0.191322
2368.000000	0.193959
2369.000000	0.194112
2370.000000	0.185848
2371.000000	0.181886
2372.000000	0.177334
2373.000000	0.174748
2374.000000	0.176800
2375.000000	0.174337
2376.000000	0.171313
2377.000000	0.166803
2378.000000	0.163548
2379.000000	0.167143
2380.000000	0.171281
2381.000000	0.171040
2382.000000	0.169251
2383.000000	0.165091
2384.000000	0.159250
2385.000000	0.161102
2386.000000	0.163517
2387.000000	0.164775
2388.000000	0.169714
2389.000000	0.168353
2390.000000	0.167314
2391.000000	0.168350
2392.000000	0.168467
2393.000000	0.170533
2394.000000	0.170102
2395.000000	0.170043
2396.000000	0.171375
2397.000000	0.169803
2398.000000	0.169585
2399.000000	0.172921
2400.000000	0.171471
2401.000000	0.166430
2402.000000	0.164671
2403.000000	0.163035
2404.000000	0.159239
2405.000000	0.159664
2406.000000	0.160525
2407.000000	0.156179
2408.000000	0.153592
2409.000000	0.147819
2410.000000	0.141811
2411.000000	0.143242
2412.000000	0.140343
2413.000000	0.145850
2414.000000	0.157802
2415.000000	0.157086
2416.000000	0.161068
2417.000000	0.167705
2418.000000	0.162109
2419.000000	0.155247
2420.000000	0.148972
2421.000000	0.139329
2422.000000	0.134854
2423.000000	0.135366
2424.000000	0.136323
2425.000000	0.139847
2426.000000	0.141486
2427.000000	0.144804
2428.000000	0.160582
2429.000000	0.169787
2430.000000	0.173505
2431.000000	0.176604
2432.000000	0.167304
2433.000000	0.165698
2434.000000	0.155454
2435.000000	0.139875
2436.000000	0.140968
2437.000000	0.137547
2438.000000	0.144760
2439.000000	0.159664
2440.000000	0.155291
2441.000000	0.149403
2442.000000	0.143553
2443.000000	0.141682
2444.000000	0.156191
2445.000000	0.162420
2446.000000	0.151918
2447.000000	0.142795
2448.000000	0.134118
2449.000000	0.127124
2450.000000	0.142618
2451.000000	0.162690
2452.000000	0.164211
2453.000000	0.164343
2454.000000	0.173465
2455.000000	0.171549
2456.000000	0.156378
2457.000000	0.156353
2458.000000	0.140547
2459.000000	0.109403
2460.000000	0.118247
2461.000000	0.118085
2462.000000	0.113964
2463.000000	0.125848
2464.000000	0.132435
2465.000000	0.145651
2466.000000	0.141261
2467.000000	0.129940
2468.000000	0.104280
2469.000000	0.083943
2470.000000	0.088092
2471.000000	0.092227
2472.000000	0.127935
2473.000000	0.155215
2474.000000	0.148295
2475.000000	0.165211
2476.000000	0.161659
2477.000000	0.117102
2478.000000	0.104269
2479.000000	0.091724
2480.000000	0.086824
2481.000000	0.126259
2482.000000	0.152743
2483.000000	0.183986
2484.000000	0.197920
2485.000000	0.156294
2486.000000	0.144240
2487.000000	0.133144
2488.000000	0.104686
2489.000000	0.091443
2490.000000	0.067892
2491.000000	0.025213
2492.000000	0.032115
2493.000000	0.134221
2494.000000	0.182876
2495.000000	0.223499
2496.000000	0.224145
2497.000000	0.148605
2498.000000	0.101799
2499.000000	0.048590
2500.000000	0.022510
