# Wavelength	SM1200H-60_FV7-40_00001.asd.rts.txt
350.000000	0.307084
351.000000	0.303219
352.000000	0.293627
353.000000	0.288637
354.000000	0.293278
355.000000	0.296213
356.000000	0.297117
357.000000	0.297545
358.000000	0.295348
359.000000	0.296552
360.000000	0.298373
361.000000	0.296798
362.000000	0.297995
363.000000	0.301187
364.000000	0.304256
365.000000	0.306630
366.000000	0.305847
367.000000	0.302998
368.000000	0.303159
369.000000	0.304055
370.000000	0.304780
371.000000	0.304907
372.000000	0.305730
373.000000	0.304713
374.000000	0.302173
375.000000	0.304653
376.000000	0.305835
377.000000	0.305251
378.000000	0.308594
379.000000	0.308838
380.000000	0.307514
381.000000	0.309300
382.000000	0.309343
383.000000	0.309138
384.000000	0.310207
385.000000	0.311006
386.000000	0.311250
387.000000	0.311341
388.000000	0.312041
389.000000	0.312072
390.000000	0.312109
391.000000	0.312973
392.000000	0.313348
393.000000	0.313813
394.000000	0.314715
395.000000	0.314743
396.000000	0.314988
397.000000	0.315701
398.000000	0.316190
399.000000	0.316732
400.000000	0.317227
401.000000	0.317297
402.000000	0.317733
403.000000	0.318149
404.000000	0.318319
405.000000	0.318503
406.000000	0.318984
407.000000	0.319745
408.000000	0.320122
409.000000	0.320301
410.000000	0.320396
411.000000	0.320471
412.000000	0.320940
413.000000	0.321353
414.000000	0.321335
415.000000	0.322052
416.000000	0.322520
417.000000	0.322357
418.000000	0.322812
419.000000	0.323069
420.000000	0.323143
421.000000	0.323722
422.000000	0.324037
423.000000	0.324108
424.000000	0.324306
425.000000	0.324667
426.000000	0.325019
427.000000	0.325238
428.000000	0.325576
429.000000	0.325792
430.000000	0.325906
431.000000	0.326275
432.000000	0.326656
433.000000	0.326878
434.000000	0.326951
435.000000	0.327170
436.000000	0.327431
437.000000	0.327585
438.000000	0.327843
439.000000	0.327956
440.000000	0.327982
441.000000	0.328149
442.000000	0.328422
443.000000	0.328595
444.000000	0.328540
445.000000	0.328690
446.000000	0.329106
447.000000	0.329494
448.000000	0.329916
449.000000	0.330254
450.000000	0.330455
451.000000	0.330561
452.000000	0.330855
453.000000	0.331208
454.000000	0.331303
455.000000	0.331458
456.000000	0.331773
457.000000	0.332016
458.000000	0.332170
459.000000	0.332336
460.000000	0.332653
461.000000	0.332972
462.000000	0.333240
463.000000	0.333276
464.000000	0.333327
465.000000	0.333549
466.000000	0.333838
467.000000	0.334083
468.000000	0.334259
469.000000	0.334327
470.000000	0.334488
471.000000	0.334789
472.000000	0.334966
473.000000	0.334967
474.000000	0.335227
475.000000	0.335382
476.000000	0.335553
477.000000	0.335939
478.000000	0.335982
479.000000	0.336047
480.000000	0.336364
481.000000	0.336444
482.000000	0.336628
483.000000	0.336945
484.000000	0.337171
485.000000	0.337312
486.000000	0.337582
487.000000	0.337778
488.000000	0.337897
489.000000	0.338049
490.000000	0.338403
491.000000	0.338636
492.000000	0.338851
493.000000	0.339069
494.000000	0.339337
495.000000	0.339597
496.000000	0.339784
497.000000	0.340112
498.000000	0.340422
499.000000	0.340731
500.000000	0.341024
501.000000	0.341168
502.000000	0.341327
503.000000	0.341664
504.000000	0.341915
505.000000	0.342140
506.000000	0.342415
507.000000	0.342526
508.000000	0.342690
509.000000	0.342956
510.000000	0.343188
511.000000	0.343464
512.000000	0.343791
513.000000	0.344050
514.000000	0.344294
515.000000	0.344570
516.000000	0.344837
517.000000	0.345123
518.000000	0.345417
519.000000	0.345631
520.000000	0.345993
521.000000	0.346308
522.000000	0.346512
523.000000	0.346698
524.000000	0.346928
525.000000	0.347175
526.000000	0.347423
527.000000	0.347681
528.000000	0.347949
529.000000	0.348274
530.000000	0.348537
531.000000	0.348811
532.000000	0.349052
533.000000	0.349345
534.000000	0.349636
535.000000	0.349887
536.000000	0.350122
537.000000	0.350333
538.000000	0.350543
539.000000	0.350761
540.000000	0.350955
541.000000	0.351149
542.000000	0.351405
543.000000	0.351652
544.000000	0.351925
545.000000	0.352167
546.000000	0.352452
547.000000	0.352735
548.000000	0.353024
549.000000	0.353233
550.000000	0.353487
551.000000	0.353800
552.000000	0.354081
553.000000	0.354324
554.000000	0.354590
555.000000	0.354917
556.000000	0.355240
557.000000	0.355486
558.000000	0.355787
559.000000	0.356056
560.000000	0.356308
561.000000	0.356616
562.000000	0.356889
563.000000	0.357165
564.000000	0.357459
565.000000	0.357664
566.000000	0.357974
567.000000	0.358282
568.000000	0.358512
569.000000	0.358795
570.000000	0.359089
571.000000	0.359359
572.000000	0.359608
573.000000	0.359854
574.000000	0.360080
575.000000	0.360333
576.000000	0.360545
577.000000	0.360740
578.000000	0.361021
579.000000	0.361303
580.000000	0.361606
581.000000	0.361927
582.000000	0.362223
583.000000	0.362477
584.000000	0.362706
585.000000	0.362960
586.000000	0.363201
587.000000	0.363436
588.000000	0.363675
589.000000	0.363884
590.000000	0.364072
591.000000	0.364249
592.000000	0.364404
593.000000	0.364553
594.000000	0.364704
595.000000	0.364873
596.000000	0.365065
597.000000	0.365333
598.000000	0.365611
599.000000	0.365833
600.000000	0.366050
601.000000	0.366226
602.000000	0.366450
603.000000	0.366634
604.000000	0.366774
605.000000	0.366980
606.000000	0.367162
607.000000	0.367318
608.000000	0.367492
609.000000	0.367687
610.000000	0.367910
611.000000	0.368148
612.000000	0.368268
613.000000	0.368355
614.000000	0.368500
615.000000	0.368574
616.000000	0.368647
617.000000	0.368706
618.000000	0.368784
619.000000	0.368868
620.000000	0.368933
621.000000	0.369035
622.000000	0.369210
623.000000	0.369366
624.000000	0.369440
625.000000	0.369550
626.000000	0.369646
627.000000	0.369700
628.000000	0.369709
629.000000	0.369787
630.000000	0.369809
631.000000	0.369879
632.000000	0.369984
633.000000	0.370107
634.000000	0.370217
635.000000	0.370344
636.000000	0.370516
637.000000	0.370702
638.000000	0.370815
639.000000	0.370908
640.000000	0.371042
641.000000	0.371087
642.000000	0.371141
643.000000	0.371244
644.000000	0.371404
645.000000	0.371529
646.000000	0.371623
647.000000	0.371676
648.000000	0.371759
649.000000	0.371871
650.000000	0.371965
651.000000	0.372005
652.000000	0.372028
653.000000	0.372092
654.000000	0.372163
655.000000	0.372323
656.000000	0.372539
657.000000	0.372695
658.000000	0.372842
659.000000	0.372994
660.000000	0.373148
661.000000	0.373352
662.000000	0.373477
663.000000	0.373592
664.000000	0.373746
665.000000	0.373864
666.000000	0.373968
667.000000	0.374059
668.000000	0.374164
669.000000	0.374248
670.000000	0.374301
671.000000	0.374346
672.000000	0.374441
673.000000	0.374563
674.000000	0.374653
675.000000	0.374735
676.000000	0.374816
677.000000	0.374913
678.000000	0.374995
679.000000	0.375084
680.000000	0.375204
681.000000	0.375307
682.000000	0.375480
683.000000	0.375651
684.000000	0.375869
685.000000	0.376005
686.000000	0.376097
687.000000	0.376170
688.000000	0.376211
689.000000	0.376274
690.000000	0.376431
691.000000	0.376599
692.000000	0.376725
693.000000	0.376880
694.000000	0.377054
695.000000	0.377186
696.000000	0.377307
697.000000	0.377483
698.000000	0.377646
699.000000	0.377796
700.000000	0.377937
701.000000	0.378010
702.000000	0.378102
703.000000	0.378198
704.000000	0.378218
705.000000	0.378295
706.000000	0.378391
707.000000	0.378509
708.000000	0.378672
709.000000	0.378809
710.000000	0.378896
711.000000	0.379024
712.000000	0.379140
713.000000	0.379259
714.000000	0.379417
715.000000	0.379550
716.000000	0.379688
717.000000	0.379864
718.000000	0.380006
719.000000	0.380095
720.000000	0.380148
721.000000	0.380201
722.000000	0.380219
723.000000	0.380260
724.000000	0.380274
725.000000	0.380287
726.000000	0.380409
727.000000	0.380562
728.000000	0.380655
729.000000	0.380741
730.000000	0.380810
731.000000	0.380879
732.000000	0.380914
733.000000	0.380967
734.000000	0.381056
735.000000	0.381103
736.000000	0.381214
737.000000	0.381247
738.000000	0.381208
739.000000	0.381280
740.000000	0.381369
741.000000	0.381471
742.000000	0.381539
743.000000	0.381557
744.000000	0.381642
745.000000	0.381707
746.000000	0.381792
747.000000	0.381852
748.000000	0.381976
749.000000	0.382127
750.000000	0.382229
751.000000	0.382292
752.000000	0.382315
753.000000	0.382337
754.000000	0.382405
755.000000	0.382480
756.000000	0.382539
757.000000	0.382514
758.000000	0.382490
759.000000	0.382539
760.000000	0.382592
761.000000	0.382647
762.000000	0.382686
763.000000	0.382697
764.000000	0.382767
765.000000	0.382788
766.000000	0.382794
767.000000	0.382821
768.000000	0.382826
769.000000	0.382847
770.000000	0.382887
771.000000	0.382867
772.000000	0.382939
773.000000	0.383028
774.000000	0.383122
775.000000	0.383130
776.000000	0.383135
777.000000	0.383181
778.000000	0.383216
779.000000	0.383250
780.000000	0.383290
781.000000	0.383312
782.000000	0.383338
783.000000	0.383431
784.000000	0.383430
785.000000	0.383387
786.000000	0.383368
787.000000	0.383374
788.000000	0.383295
789.000000	0.383283
790.000000	0.383317
791.000000	0.383350
792.000000	0.383397
793.000000	0.383443
794.000000	0.383482
795.000000	0.383517
796.000000	0.383503
797.000000	0.383450
798.000000	0.383448
799.000000	0.383482
800.000000	0.383539
801.000000	0.383596
802.000000	0.383539
803.000000	0.383421
804.000000	0.383335
805.000000	0.383261
806.000000	0.383193
807.000000	0.383208
808.000000	0.383225
809.000000	0.383228
810.000000	0.383247
811.000000	0.383275
812.000000	0.383239
813.000000	0.383172
814.000000	0.383105
815.000000	0.383102
816.000000	0.383083
817.000000	0.383069
818.000000	0.383008
819.000000	0.383050
820.000000	0.383176
821.000000	0.383279
822.000000	0.383329
823.000000	0.383344
824.000000	0.383255
825.000000	0.383131
826.000000	0.383000
827.000000	0.382855
828.000000	0.382761
829.000000	0.382739
830.000000	0.382766
831.000000	0.382833
832.000000	0.382730
833.000000	0.382596
834.000000	0.382465
835.000000	0.382381
836.000000	0.382298
837.000000	0.382201
838.000000	0.382123
839.000000	0.382077
840.000000	0.382027
841.000000	0.381975
842.000000	0.381878
843.000000	0.381750
844.000000	0.381715
845.000000	0.381748
846.000000	0.381760
847.000000	0.381807
848.000000	0.381798
849.000000	0.381690
850.000000	0.381570
851.000000	0.381545
852.000000	0.381661
853.000000	0.381746
854.000000	0.381653
855.000000	0.381513
856.000000	0.381302
857.000000	0.381000
858.000000	0.380850
859.000000	0.380818
860.000000	0.380701
861.000000	0.380620
862.000000	0.380579
863.000000	0.380456
864.000000	0.380312
865.000000	0.380174
866.000000	0.380063
867.000000	0.379880
868.000000	0.379778
869.000000	0.379696
870.000000	0.379642
871.000000	0.379644
872.000000	0.379615
873.000000	0.379450
874.000000	0.379305
875.000000	0.379113
876.000000	0.378910
877.000000	0.378684
878.000000	0.378450
879.000000	0.378266
880.000000	0.378013
881.000000	0.377875
882.000000	0.377670
883.000000	0.377450
884.000000	0.377264
885.000000	0.377082
886.000000	0.376899
887.000000	0.376743
888.000000	0.376585
889.000000	0.376425
890.000000	0.376221
891.000000	0.376174
892.000000	0.376103
893.000000	0.375916
894.000000	0.375726
895.000000	0.375457
896.000000	0.375215
897.000000	0.374990
898.000000	0.374741
899.000000	0.374499
900.000000	0.374323
901.000000	0.374176
902.000000	0.374056
903.000000	0.373880
904.000000	0.373700
905.000000	0.373484
906.000000	0.373403
907.000000	0.373334
908.000000	0.373209
909.000000	0.372820
910.000000	0.372403
911.000000	0.372060
912.000000	0.371835
913.000000	0.371597
914.000000	0.371386
915.000000	0.371273
916.000000	0.371130
917.000000	0.370863
918.000000	0.370678
919.000000	0.370636
920.000000	0.370420
921.000000	0.370093
922.000000	0.369744
923.000000	0.369443
924.000000	0.369174
925.000000	0.368955
926.000000	0.368808
927.000000	0.368621
928.000000	0.368407
929.000000	0.368183
930.000000	0.367979
931.000000	0.367813
932.000000	0.367577
933.000000	0.367275
934.000000	0.366912
935.000000	0.366548
936.000000	0.366303
937.000000	0.366088
938.000000	0.365690
939.000000	0.365358
940.000000	0.365061
941.000000	0.364794
942.000000	0.364573
943.000000	0.364287
944.000000	0.363819
945.000000	0.363598
946.000000	0.363272
947.000000	0.362938
948.000000	0.362699
949.000000	0.362426
950.000000	0.362224
951.000000	0.362069
952.000000	0.361954
953.000000	0.361892
954.000000	0.361710
955.000000	0.361294
956.000000	0.361100
957.000000	0.360984
958.000000	0.360887
959.000000	0.360876
960.000000	0.360585
961.000000	0.360237
962.000000	0.359948
963.000000	0.359723
964.000000	0.359400
965.000000	0.359153
966.000000	0.358977
967.000000	0.358770
968.000000	0.358526
969.000000	0.358207
970.000000	0.357927
971.000000	0.357651
972.000000	0.357475
973.000000	0.357348
974.000000	0.357261
975.000000	0.356989
976.000000	0.356646
977.000000	0.356352
978.000000	0.356010
979.000000	0.355927
980.000000	0.355766
981.000000	0.355538
982.000000	0.355289
983.000000	0.355078
984.000000	0.354970
985.000000	0.354836
986.000000	0.354517
987.000000	0.354288
988.000000	0.354151
989.000000	0.353810
990.000000	0.353553
991.000000	0.353329
992.000000	0.353091
993.000000	0.353132
994.000000	0.352953
995.000000	0.352687
996.000000	0.352476
997.000000	0.352498
998.000000	0.352618
999.000000	0.352711
1000.000000	0.352443
1001.000000	0.352727
1002.000000	0.352628
1003.000000	0.352416
1004.000000	0.352256
1005.000000	0.352446
1006.000000	0.352229
1007.000000	0.351718
1008.000000	0.351449
1009.000000	0.351330
1010.000000	0.350820
1011.000000	0.350641
1012.000000	0.350678
1013.000000	0.350625
1014.000000	0.350626
1015.000000	0.350273
1016.000000	0.349839
1017.000000	0.349656
1018.000000	0.349628
1019.000000	0.349672
1020.000000	0.350475
1021.000000	0.350323
1022.000000	0.349742
1023.000000	0.349816
1024.000000	0.349762
1025.000000	0.349934
1026.000000	0.350187
1027.000000	0.350156
1028.000000	0.349966
1029.000000	0.349739
1030.000000	0.349782
1031.000000	0.349835
1032.000000	0.349815
1033.000000	0.349808
1034.000000	0.349900
1035.000000	0.350135
1036.000000	0.350148
1037.000000	0.350109
1038.000000	0.350078
1039.000000	0.350022
1040.000000	0.350044
1041.000000	0.350053
1042.000000	0.350065
1043.000000	0.350144
1044.000000	0.350237
1045.000000	0.350381
1046.000000	0.350439
1047.000000	0.350596
1048.000000	0.350640
1049.000000	0.350661
1050.000000	0.350851
1051.000000	0.350918
1052.000000	0.350704
1053.000000	0.350699
1054.000000	0.350881
1055.000000	0.351220
1056.000000	0.351869
1057.000000	0.352432
1058.000000	0.352496
1059.000000	0.352165
1060.000000	0.352187
1061.000000	0.352143
1062.000000	0.352201
1063.000000	0.352845
1064.000000	0.353066
1065.000000	0.352895
1066.000000	0.352931
1067.000000	0.352898
1068.000000	0.353007
1069.000000	0.353157
1070.000000	0.353256
1071.000000	0.353535
1072.000000	0.353761
1073.000000	0.353871
1074.000000	0.354257
1075.000000	0.354445
1076.000000	0.354516
1077.000000	0.354554
1078.000000	0.354443
1079.000000	0.354651
1080.000000	0.355213
1081.000000	0.355438
1082.000000	0.355757
1083.000000	0.356020
1084.000000	0.356064
1085.000000	0.356320
1086.000000	0.356836
1087.000000	0.357079
1088.000000	0.357069
1089.000000	0.357177
1090.000000	0.357225
1091.000000	0.357185
1092.000000	0.357137
1093.000000	0.357258
1094.000000	0.357405
1095.000000	0.357371
1096.000000	0.357635
1097.000000	0.358249
1098.000000	0.358582
1099.000000	0.358832
1100.000000	0.359127
1101.000000	0.359329
1102.000000	0.359455
1103.000000	0.359350
1104.000000	0.359600
1105.000000	0.360085
1106.000000	0.360351
1107.000000	0.360731
1108.000000	0.360980
1109.000000	0.361130
1110.000000	0.360970
1111.000000	0.361173
1112.000000	0.361554
1113.000000	0.361847
1114.000000	0.362234
1115.000000	0.362521
1116.000000	0.362812
1117.000000	0.362975
1118.000000	0.363085
1119.000000	0.363056
1120.000000	0.362724
1121.000000	0.362695
1122.000000	0.362863
1123.000000	0.363161
1124.000000	0.363500
1125.000000	0.363717
1126.000000	0.363706
1127.000000	0.363733
1128.000000	0.363742
1129.000000	0.363710
1130.000000	0.363837
1131.000000	0.364087
1132.000000	0.364190
1133.000000	0.364387
1134.000000	0.364528
1135.000000	0.364557
1136.000000	0.364532
1137.000000	0.364494
1138.000000	0.364374
1139.000000	0.364105
1140.000000	0.364136
1141.000000	0.364251
1142.000000	0.364362
1143.000000	0.364627
1144.000000	0.364846
1145.000000	0.364784
1146.000000	0.364669
1147.000000	0.364678
1148.000000	0.364570
1149.000000	0.364558
1150.000000	0.364649
1151.000000	0.364761
1152.000000	0.364813
1153.000000	0.364916
1154.000000	0.365089
1155.000000	0.365178
1156.000000	0.365280
1157.000000	0.365284
1158.000000	0.365097
1159.000000	0.365042
1160.000000	0.364913
1161.000000	0.364890
1162.000000	0.365059
1163.000000	0.365377
1164.000000	0.365546
1165.000000	0.365619
1166.000000	0.365687
1167.000000	0.365630
1168.000000	0.365562
1169.000000	0.365467
1170.000000	0.365474
1171.000000	0.365504
1172.000000	0.365615
1173.000000	0.365833
1174.000000	0.365932
1175.000000	0.366008
1176.000000	0.365988
1177.000000	0.365903
1178.000000	0.365909
1179.000000	0.365926
1180.000000	0.365871
1181.000000	0.365917
1182.000000	0.365977
1183.000000	0.366037
1184.000000	0.366116
1185.000000	0.366169
1186.000000	0.366292
1187.000000	0.366255
1188.000000	0.366085
1189.000000	0.366015
1190.000000	0.365939
1191.000000	0.365949
1192.000000	0.366233
1193.000000	0.366407
1194.000000	0.366407
1195.000000	0.366439
1196.000000	0.366347
1197.000000	0.366300
1198.000000	0.366308
1199.000000	0.366327
1200.000000	0.366353
1201.000000	0.366353
1202.000000	0.366349
1203.000000	0.366337
1204.000000	0.366318
1205.000000	0.366354
1206.000000	0.366345
1207.000000	0.366471
1208.000000	0.366459
1209.000000	0.366420
1210.000000	0.366449
1211.000000	0.366533
1212.000000	0.366489
1213.000000	0.366426
1214.000000	0.366455
1215.000000	0.366407
1216.000000	0.366377
1217.000000	0.366449
1218.000000	0.366449
1219.000000	0.366368
1220.000000	0.366368
1221.000000	0.366522
1222.000000	0.366459
1223.000000	0.366420
1224.000000	0.366468
1225.000000	0.366371
1226.000000	0.366410
1227.000000	0.366482
1228.000000	0.366505
1229.000000	0.366424
1230.000000	0.366243
1231.000000	0.366087
1232.000000	0.365974
1233.000000	0.365969
1234.000000	0.366062
1235.000000	0.366031
1236.000000	0.365822
1237.000000	0.365781
1238.000000	0.365635
1239.000000	0.365619
1240.000000	0.365758
1241.000000	0.365912
1242.000000	0.365932
1243.000000	0.366009
1244.000000	0.366014
1245.000000	0.366066
1246.000000	0.366158
1247.000000	0.366250
1248.000000	0.366258
1249.000000	0.366214
1250.000000	0.366262
1251.000000	0.366310
1252.000000	0.366271
1253.000000	0.366305
1254.000000	0.366225
1255.000000	0.365943
1256.000000	0.365805
1257.000000	0.365747
1258.000000	0.365703
1259.000000	0.365612
1260.000000	0.365623
1261.000000	0.365630
1262.000000	0.365599
1263.000000	0.365617
1264.000000	0.365598
1265.000000	0.365568
1266.000000	0.365548
1267.000000	0.365565
1268.000000	0.365591
1269.000000	0.365495
1270.000000	0.365509
1271.000000	0.365523
1272.000000	0.365522
1273.000000	0.365572
1274.000000	0.365507
1275.000000	0.365447
1276.000000	0.365344
1277.000000	0.365348
1278.000000	0.365316
1279.000000	0.365266
1280.000000	0.365111
1281.000000	0.365042
1282.000000	0.365089
1283.000000	0.365135
1284.000000	0.365162
1285.000000	0.365182
1286.000000	0.365160
1287.000000	0.365093
1288.000000	0.365092
1289.000000	0.365009
1290.000000	0.364814
1291.000000	0.364722
1292.000000	0.364689
1293.000000	0.364689
1294.000000	0.364731
1295.000000	0.364693
1296.000000	0.364603
1297.000000	0.364538
1298.000000	0.364516
1299.000000	0.364553
1300.000000	0.364690
1301.000000	0.364709
1302.000000	0.364625
1303.000000	0.364596
1304.000000	0.364522
1305.000000	0.364416
1306.000000	0.364395
1307.000000	0.364525
1308.000000	0.364546
1309.000000	0.364527
1310.000000	0.364488
1311.000000	0.364427
1312.000000	0.364328
1313.000000	0.364289
1314.000000	0.364313
1315.000000	0.364208
1316.000000	0.364210
1317.000000	0.364208
1318.000000	0.364205
1319.000000	0.364247
1320.000000	0.364270
1321.000000	0.364307
1322.000000	0.364261
1323.000000	0.364249
1324.000000	0.364326
1325.000000	0.364240
1326.000000	0.364119
1327.000000	0.364071
1328.000000	0.364054
1329.000000	0.363949
1330.000000	0.363862
1331.000000	0.363789
1332.000000	0.363728
1333.000000	0.363631
1334.000000	0.363651
1335.000000	0.363623
1336.000000	0.363482
1337.000000	0.363386
1338.000000	0.363265
1339.000000	0.363125
1340.000000	0.362957
1341.000000	0.362855
1342.000000	0.362706
1343.000000	0.362502
1344.000000	0.362378
1345.000000	0.362240
1346.000000	0.362205
1347.000000	0.362123
1348.000000	0.362047
1349.000000	0.361901
1350.000000	0.361824
1351.000000	0.361773
1352.000000	0.361588
1353.000000	0.361443
1354.000000	0.361391
1355.000000	0.361278
1356.000000	0.361340
1357.000000	0.361372
1358.000000	0.361304
1359.000000	0.361251
1360.000000	0.361211
1361.000000	0.361285
1362.000000	0.361191
1363.000000	0.360942
1364.000000	0.360853
1365.000000	0.360728
1366.000000	0.360552
1367.000000	0.360430
1368.000000	0.360324
1369.000000	0.360142
1370.000000	0.359817
1371.000000	0.359533
1372.000000	0.359149
1373.000000	0.358619
1374.000000	0.358129
1375.000000	0.357522
1376.000000	0.356888
1377.000000	0.356122
1378.000000	0.355147
1379.000000	0.354022
1380.000000	0.352689
1381.000000	0.351069
1382.000000	0.349172
1383.000000	0.347160
1384.000000	0.345035
1385.000000	0.342991
1386.000000	0.341299
1387.000000	0.339839
1388.000000	0.338519
1389.000000	0.337549
1390.000000	0.336921
1391.000000	0.336525
1392.000000	0.336495
1393.000000	0.336678
1394.000000	0.337341
1395.000000	0.337864
1396.000000	0.338617
1397.000000	0.339083
1398.000000	0.339461
1399.000000	0.339637
1400.000000	0.339607
1401.000000	0.339555
1402.000000	0.339451
1403.000000	0.339205
1404.000000	0.338993
1405.000000	0.338708
1406.000000	0.338370
1407.000000	0.338115
1408.000000	0.337840
1409.000000	0.337604
1410.000000	0.337439
1411.000000	0.337282
1412.000000	0.337148
1413.000000	0.337174
1414.000000	0.337316
1415.000000	0.337430
1416.000000	0.337591
1417.000000	0.337839
1418.000000	0.337957
1419.000000	0.338161
1420.000000	0.338398
1421.000000	0.338678
1422.000000	0.339030
1423.000000	0.339458
1424.000000	0.339748
1425.000000	0.340017
1426.000000	0.340263
1427.000000	0.340518
1428.000000	0.340827
1429.000000	0.341166
1430.000000	0.341525
1431.000000	0.341881
1432.000000	0.342194
1433.000000	0.342532
1434.000000	0.342825
1435.000000	0.343203
1436.000000	0.343455
1437.000000	0.343612
1438.000000	0.343804
1439.000000	0.343978
1440.000000	0.344164
1441.000000	0.344426
1442.000000	0.344646
1443.000000	0.344751
1444.000000	0.344908
1445.000000	0.345028
1446.000000	0.345105
1447.000000	0.345224
1448.000000	0.345283
1449.000000	0.345350
1450.000000	0.345456
1451.000000	0.345492
1452.000000	0.345461
1453.000000	0.345444
1454.000000	0.345399
1455.000000	0.345364
1456.000000	0.345400
1457.000000	0.345415
1458.000000	0.345461
1459.000000	0.345548
1460.000000	0.345593
1461.000000	0.345621
1462.000000	0.345649
1463.000000	0.345591
1464.000000	0.345616
1465.000000	0.345797
1466.000000	0.345883
1467.000000	0.346000
1468.000000	0.346149
1469.000000	0.346269
1470.000000	0.346381
1471.000000	0.346598
1472.000000	0.346810
1473.000000	0.347077
1474.000000	0.347315
1475.000000	0.347487
1476.000000	0.347682
1477.000000	0.347951
1478.000000	0.348246
1479.000000	0.348508
1480.000000	0.348746
1481.000000	0.348920
1482.000000	0.349007
1483.000000	0.349197
1484.000000	0.349429
1485.000000	0.349650
1486.000000	0.349870
1487.000000	0.350116
1488.000000	0.350401
1489.000000	0.350648
1490.000000	0.350786
1491.000000	0.350969
1492.000000	0.351074
1493.000000	0.351218
1494.000000	0.351335
1495.000000	0.351444
1496.000000	0.351550
1497.000000	0.351666
1498.000000	0.351816
1499.000000	0.351924
1500.000000	0.352053
1501.000000	0.352151
1502.000000	0.352220
1503.000000	0.352386
1504.000000	0.352544
1505.000000	0.352664
1506.000000	0.352805
1507.000000	0.352862
1508.000000	0.352956
1509.000000	0.353051
1510.000000	0.353071
1511.000000	0.353178
1512.000000	0.353234
1513.000000	0.353218
1514.000000	0.353286
1515.000000	0.353281
1516.000000	0.353247
1517.000000	0.353232
1518.000000	0.353269
1519.000000	0.353280
1520.000000	0.353308
1521.000000	0.353408
1522.000000	0.353582
1523.000000	0.353760
1524.000000	0.353906
1525.000000	0.354057
1526.000000	0.354124
1527.000000	0.354212
1528.000000	0.354408
1529.000000	0.354554
1530.000000	0.354534
1531.000000	0.354566
1532.000000	0.354606
1533.000000	0.354563
1534.000000	0.354588
1535.000000	0.354673
1536.000000	0.354631
1537.000000	0.354658
1538.000000	0.354761
1539.000000	0.354705
1540.000000	0.354628
1541.000000	0.354659
1542.000000	0.354656
1543.000000	0.354665
1544.000000	0.354738
1545.000000	0.354852
1546.000000	0.354968
1547.000000	0.355079
1548.000000	0.355183
1549.000000	0.355246
1550.000000	0.355324
1551.000000	0.355444
1552.000000	0.355552
1553.000000	0.355605
1554.000000	0.355657
1555.000000	0.355725
1556.000000	0.355811
1557.000000	0.355914
1558.000000	0.356003
1559.000000	0.356010
1560.000000	0.356013
1561.000000	0.356045
1562.000000	0.356039
1563.000000	0.356042
1564.000000	0.356061
1565.000000	0.356061
1566.000000	0.356021
1567.000000	0.356094
1568.000000	0.356117
1569.000000	0.356210
1570.000000	0.356227
1571.000000	0.356155
1572.000000	0.356166
1573.000000	0.356190
1574.000000	0.356200
1575.000000	0.356305
1576.000000	0.356344
1577.000000	0.356277
1578.000000	0.356286
1579.000000	0.356399
1580.000000	0.356445
1581.000000	0.356577
1582.000000	0.356627
1583.000000	0.356619
1584.000000	0.356571
1585.000000	0.356571
1586.000000	0.356573
1587.000000	0.356518
1588.000000	0.356509
1589.000000	0.356546
1590.000000	0.356553
1591.000000	0.356602
1592.000000	0.356645
1593.000000	0.356688
1594.000000	0.356726
1595.000000	0.356832
1596.000000	0.356898
1597.000000	0.357002
1598.000000	0.357030
1599.000000	0.357047
1600.000000	0.357020
1601.000000	0.356995
1602.000000	0.356985
1603.000000	0.357005
1604.000000	0.357007
1605.000000	0.357082
1606.000000	0.357060
1607.000000	0.357045
1608.000000	0.356988
1609.000000	0.356901
1610.000000	0.356805
1611.000000	0.356719
1612.000000	0.356636
1613.000000	0.356665
1614.000000	0.356585
1615.000000	0.356548
1616.000000	0.356495
1617.000000	0.356314
1618.000000	0.356187
1619.000000	0.356060
1620.000000	0.355918
1621.000000	0.355796
1622.000000	0.355739
1623.000000	0.355676
1624.000000	0.355608
1625.000000	0.355416
1626.000000	0.355233
1627.000000	0.355016
1628.000000	0.354933
1629.000000	0.354909
1630.000000	0.354924
1631.000000	0.354968
1632.000000	0.354952
1633.000000	0.354922
1634.000000	0.354951
1635.000000	0.355047
1636.000000	0.355069
1637.000000	0.355123
1638.000000	0.355137
1639.000000	0.355140
1640.000000	0.355166
1641.000000	0.355287
1642.000000	0.355371
1643.000000	0.355503
1644.000000	0.355551
1645.000000	0.355561
1646.000000	0.355527
1647.000000	0.355460
1648.000000	0.355372
1649.000000	0.355359
1650.000000	0.355344
1651.000000	0.355310
1652.000000	0.355381
1653.000000	0.355491
1654.000000	0.355558
1655.000000	0.355617
1656.000000	0.355515
1657.000000	0.355403
1658.000000	0.355264
1659.000000	0.355129
1660.000000	0.355085
1661.000000	0.354962
1662.000000	0.354881
1663.000000	0.354814
1664.000000	0.354775
1665.000000	0.354734
1666.000000	0.354808
1667.000000	0.354882
1668.000000	0.354929
1669.000000	0.354994
1670.000000	0.354962
1671.000000	0.354976
1672.000000	0.355066
1673.000000	0.355111
1674.000000	0.355211
1675.000000	0.355397
1676.000000	0.355467
1677.000000	0.355506
1678.000000	0.355466
1679.000000	0.355429
1680.000000	0.355406
1681.000000	0.355327
1682.000000	0.355267
1683.000000	0.355278
1684.000000	0.355235
1685.000000	0.355219
1686.000000	0.355223
1687.000000	0.355135
1688.000000	0.355022
1689.000000	0.354986
1690.000000	0.354879
1691.000000	0.354894
1692.000000	0.354869
1693.000000	0.354750
1694.000000	0.354669
1695.000000	0.354652
1696.000000	0.354638
1697.000000	0.354546
1698.000000	0.354439
1699.000000	0.354415
1700.000000	0.354413
1701.000000	0.354486
1702.000000	0.354512
1703.000000	0.354426
1704.000000	0.354344
1705.000000	0.354265
1706.000000	0.354155
1707.000000	0.354097
1708.000000	0.354063
1709.000000	0.353944
1710.000000	0.353850
1711.000000	0.353876
1712.000000	0.353996
1713.000000	0.354042
1714.000000	0.354229
1715.000000	0.354308
1716.000000	0.354317
1717.000000	0.354269
1718.000000	0.354089
1719.000000	0.353999
1720.000000	0.353938
1721.000000	0.353871
1722.000000	0.353900
1723.000000	0.353880
1724.000000	0.353799
1725.000000	0.353815
1726.000000	0.353834
1727.000000	0.353786
1728.000000	0.353645
1729.000000	0.353510
1730.000000	0.353466
1731.000000	0.353418
1732.000000	0.353462
1733.000000	0.353442
1734.000000	0.353196
1735.000000	0.353104
1736.000000	0.352975
1737.000000	0.352934
1738.000000	0.353072
1739.000000	0.352995
1740.000000	0.352816
1741.000000	0.352695
1742.000000	0.352499
1743.000000	0.352444
1744.000000	0.352496
1745.000000	0.352384
1746.000000	0.352186
1747.000000	0.352168
1748.000000	0.352069
1749.000000	0.352072
1750.000000	0.352005
1751.000000	0.351967
1752.000000	0.352016
1753.000000	0.351933
1754.000000	0.351903
1755.000000	0.351840
1756.000000	0.351792
1757.000000	0.351781
1758.000000	0.351798
1759.000000	0.351835
1760.000000	0.351837
1761.000000	0.351789
1762.000000	0.351764
1763.000000	0.351737
1764.000000	0.351734
1765.000000	0.351730
1766.000000	0.351748
1767.000000	0.351708
1768.000000	0.351614
1769.000000	0.351599
1770.000000	0.351631
1771.000000	0.351605
1772.000000	0.351582
1773.000000	0.351520
1774.000000	0.351532
1775.000000	0.351610
1776.000000	0.351694
1777.000000	0.351843
1778.000000	0.351879
1779.000000	0.351853
1780.000000	0.351801
1781.000000	0.351645
1782.000000	0.351563
1783.000000	0.351525
1784.000000	0.351485
1785.000000	0.351366
1786.000000	0.351352
1787.000000	0.351417
1788.000000	0.351384
1789.000000	0.351323
1790.000000	0.351043
1791.000000	0.350833
1792.000000	0.350757
1793.000000	0.350684
1794.000000	0.350730
1795.000000	0.350703
1796.000000	0.350584
1797.000000	0.350563
1798.000000	0.350524
1799.000000	0.350532
1800.000000	0.350723
1801.000000	0.350367
1802.000000	0.350535
1803.000000	0.350877
1804.000000	0.350837
1805.000000	0.350415
1806.000000	0.350247
1807.000000	0.349868
1808.000000	0.349707
1809.000000	0.349725
1810.000000	0.349916
1811.000000	0.349717
1812.000000	0.349251
1813.000000	0.349357
1814.000000	0.349543
1815.000000	0.349720
1816.000000	0.350484
1817.000000	0.350663
1818.000000	0.350598
1819.000000	0.350553
1820.000000	0.350393
1821.000000	0.350077
1822.000000	0.349539
1823.000000	0.348241
1824.000000	0.347780
1825.000000	0.347155
1826.000000	0.347283
1827.000000	0.348191
1828.000000	0.349061
1829.000000	0.349257
1830.000000	0.349128
1831.000000	0.349250
1832.000000	0.348821
1833.000000	0.348806
1834.000000	0.349532
1835.000000	0.349588
1836.000000	0.349038
1837.000000	0.348782
1838.000000	0.348379
1839.000000	0.347859
1840.000000	0.347740
1841.000000	0.347683
1842.000000	0.347395
1843.000000	0.346838
1844.000000	0.346758
1845.000000	0.346577
1846.000000	0.346638
1847.000000	0.346940
1848.000000	0.347323
1849.000000	0.347475
1850.000000	0.347515
1851.000000	0.347622
1852.000000	0.347683
1853.000000	0.347688
1854.000000	0.347507
1855.000000	0.347145
1856.000000	0.346352
1857.000000	0.346064
1858.000000	0.345439
1859.000000	0.344961
1860.000000	0.344936
1861.000000	0.344623
1862.000000	0.344040
1863.000000	0.343241
1864.000000	0.342845
1865.000000	0.342413
1866.000000	0.341890
1867.000000	0.341515
1868.000000	0.341441
1869.000000	0.340628
1870.000000	0.339380
1871.000000	0.338776
1872.000000	0.338274
1873.000000	0.337342
1874.000000	0.336441
1875.000000	0.335248
1876.000000	0.333356
1877.000000	0.331141
1878.000000	0.329732
1879.000000	0.328103
1880.000000	0.326609
1881.000000	0.325073
1882.000000	0.322717
1883.000000	0.320296
1884.000000	0.317977
1885.000000	0.315486
1886.000000	0.312617
1887.000000	0.309558
1888.000000	0.306378
1889.000000	0.302773
1890.000000	0.299749
1891.000000	0.296764
1892.000000	0.293703
1893.000000	0.290647
1894.000000	0.287321
1895.000000	0.284176
1896.000000	0.281181
1897.000000	0.278243
1898.000000	0.275694
1899.000000	0.273600
1900.000000	0.271721
1901.000000	0.270425
1902.000000	0.269239
1903.000000	0.268282
1904.000000	0.267366
1905.000000	0.266499
1906.000000	0.265846
1907.000000	0.265178
1908.000000	0.265075
1909.000000	0.265859
1910.000000	0.266521
1911.000000	0.267811
1912.000000	0.269236
1913.000000	0.270139
1914.000000	0.271535
1915.000000	0.272607
1916.000000	0.273534
1917.000000	0.274472
1918.000000	0.275535
1919.000000	0.276377
1920.000000	0.277412
1921.000000	0.278093
1922.000000	0.278594
1923.000000	0.279605
1924.000000	0.280424
1925.000000	0.281353
1926.000000	0.282567
1927.000000	0.283666
1928.000000	0.284531
1929.000000	0.285276
1930.000000	0.286036
1931.000000	0.286738
1932.000000	0.287371
1933.000000	0.288183
1934.000000	0.288819
1935.000000	0.289355
1936.000000	0.290000
1937.000000	0.290294
1938.000000	0.290510
1939.000000	0.290939
1940.000000	0.291564
1941.000000	0.291845
1942.000000	0.292433
1943.000000	0.293098
1944.000000	0.293293
1945.000000	0.293684
1946.000000	0.293893
1947.000000	0.294186
1948.000000	0.294863
1949.000000	0.295447
1950.000000	0.295763
1951.000000	0.295977
1952.000000	0.296166
1953.000000	0.296060
1954.000000	0.295972
1955.000000	0.296398
1956.000000	0.296792
1957.000000	0.297387
1958.000000	0.298127
1959.000000	0.298680
1960.000000	0.299208
1961.000000	0.299383
1962.000000	0.299544
1963.000000	0.299571
1964.000000	0.299776
1965.000000	0.299817
1966.000000	0.300020
1967.000000	0.300413
1968.000000	0.300896
1969.000000	0.301327
1970.000000	0.301895
1971.000000	0.302470
1972.000000	0.302477
1973.000000	0.302563
1974.000000	0.302832
1975.000000	0.302985
1976.000000	0.302914
1977.000000	0.303227
1978.000000	0.303506
1979.000000	0.303544
1980.000000	0.304206
1981.000000	0.305127
1982.000000	0.305881
1983.000000	0.306735
1984.000000	0.307304
1985.000000	0.307600
1986.000000	0.307838
1987.000000	0.308045
1988.000000	0.308215
1989.000000	0.308209
1990.000000	0.308627
1991.000000	0.308976
1992.000000	0.309578
1993.000000	0.310390
1994.000000	0.310617
1995.000000	0.310682
1996.000000	0.310693
1997.000000	0.310959
1998.000000	0.311437
1999.000000	0.311930
2000.000000	0.312673
2001.000000	0.313253
2002.000000	0.313712
2003.000000	0.314067
2004.000000	0.314361
2005.000000	0.314520
2006.000000	0.314687
2007.000000	0.314889
2008.000000	0.315252
2009.000000	0.315905
2010.000000	0.316354
2011.000000	0.316494
2012.000000	0.316800
2013.000000	0.317011
2014.000000	0.317113
2015.000000	0.317793
2016.000000	0.318625
2017.000000	0.319248
2018.000000	0.319643
2019.000000	0.319546
2020.000000	0.319401
2021.000000	0.319534
2022.000000	0.319754
2023.000000	0.319951
2024.000000	0.320534
2025.000000	0.320782
2026.000000	0.320821
2027.000000	0.320279
2028.000000	0.319968
2029.000000	0.319960
2030.000000	0.320272
2031.000000	0.320831
2032.000000	0.321526
2033.000000	0.322204
2034.000000	0.322727
2035.000000	0.323296
2036.000000	0.323621
2037.000000	0.323844
2038.000000	0.324165
2039.000000	0.324405
2040.000000	0.324963
2041.000000	0.325150
2042.000000	0.325459
2043.000000	0.325707
2044.000000	0.325231
2045.000000	0.325112
2046.000000	0.325375
2047.000000	0.325490
2048.000000	0.325576
2049.000000	0.325926
2050.000000	0.325919
2051.000000	0.325912
2052.000000	0.325747
2053.000000	0.325806
2054.000000	0.326030
2055.000000	0.326935
2056.000000	0.327533
2057.000000	0.328216
2058.000000	0.328338
2059.000000	0.328047
2060.000000	0.327946
2061.000000	0.327650
2062.000000	0.327531
2063.000000	0.327632
2064.000000	0.327433
2065.000000	0.327446
2066.000000	0.327321
2067.000000	0.327249
2068.000000	0.327296
2069.000000	0.327657
2070.000000	0.328066
2071.000000	0.327692
2072.000000	0.327569
2073.000000	0.327303
2074.000000	0.326574
2075.000000	0.326383
2076.000000	0.326739
2077.000000	0.326660
2078.000000	0.326299
2079.000000	0.326307
2080.000000	0.326550
2081.000000	0.326728
2082.000000	0.327105
2083.000000	0.327664
2084.000000	0.327473
2085.000000	0.326924
2086.000000	0.326669
2087.000000	0.326629
2088.000000	0.327155
2089.000000	0.328005
2090.000000	0.328584
2091.000000	0.329411
2092.000000	0.329750
2093.000000	0.329841
2094.000000	0.329834
2095.000000	0.329376
2096.000000	0.329362
2097.000000	0.329428
2098.000000	0.329297
2099.000000	0.329657
2100.000000	0.329986
2101.000000	0.330004
2102.000000	0.330176
2103.000000	0.330337
2104.000000	0.330156
2105.000000	0.330045
2106.000000	0.329867
2107.000000	0.329866
2108.000000	0.329803
2109.000000	0.329908
2110.000000	0.330229
2111.000000	0.330157
2112.000000	0.329881
2113.000000	0.329144
2114.000000	0.328828
2115.000000	0.328981
2116.000000	0.329226
2117.000000	0.330048
2118.000000	0.330437
2119.000000	0.330227
2120.000000	0.330193
2121.000000	0.329949
2122.000000	0.329737
2123.000000	0.329305
2124.000000	0.329293
2125.000000	0.329535
2126.000000	0.329682
2127.000000	0.330196
2128.000000	0.330598
2129.000000	0.330821
2130.000000	0.330925
2131.000000	0.331042
2132.000000	0.330791
2133.000000	0.330512
2134.000000	0.330252
2135.000000	0.330108
2136.000000	0.329959
2137.000000	0.329894
2138.000000	0.329961
2139.000000	0.330035
2140.000000	0.330234
2141.000000	0.330334
2142.000000	0.330377
2143.000000	0.330248
2144.000000	0.330165
2145.000000	0.330204
2146.000000	0.330376
2147.000000	0.330899
2148.000000	0.330961
2149.000000	0.330851
2150.000000	0.330501
2151.000000	0.329775
2152.000000	0.329814
2153.000000	0.330087
2154.000000	0.330142
2155.000000	0.330586
2156.000000	0.330897
2157.000000	0.330750
2158.000000	0.331035
2159.000000	0.331943
2160.000000	0.332303
2161.000000	0.332730
2162.000000	0.332874
2163.000000	0.332115
2164.000000	0.331882
2165.000000	0.331807
2166.000000	0.331635
2167.000000	0.331602
2168.000000	0.332139
2169.000000	0.331597
2170.000000	0.331017
2171.000000	0.330560
2172.000000	0.329784
2173.000000	0.329301
2174.000000	0.328996
2175.000000	0.328820
2176.000000	0.328570
2177.000000	0.328878
2178.000000	0.330374
2179.000000	0.330645
2180.000000	0.330095
2181.000000	0.330486
2182.000000	0.330210
2183.000000	0.329720
2184.000000	0.329988
2185.000000	0.330744
2186.000000	0.330233
2187.000000	0.329770
2188.000000	0.329531
2189.000000	0.328532
2190.000000	0.327882
2191.000000	0.327844
2192.000000	0.327793
2193.000000	0.328229
2194.000000	0.328169
2195.000000	0.328024
2196.000000	0.328278
2197.000000	0.328764
2198.000000	0.328713
2199.000000	0.328974
2200.000000	0.328597
2201.000000	0.326603
2202.000000	0.326074
2203.000000	0.326189
2204.000000	0.325810
2205.000000	0.326522
2206.000000	0.326987
2207.000000	0.326268
2208.000000	0.326527
2209.000000	0.326869
2210.000000	0.326604
2211.000000	0.326745
2212.000000	0.326580
2213.000000	0.326309
2214.000000	0.325438
2215.000000	0.325139
2216.000000	0.325517
2217.000000	0.325088
2218.000000	0.323953
2219.000000	0.323733
2220.000000	0.323398
2221.000000	0.323405
2222.000000	0.324423
2223.000000	0.324820
2224.000000	0.324709
2225.000000	0.325021
2226.000000	0.325847
2227.000000	0.325985
2228.000000	0.326615
2229.000000	0.326943
2230.000000	0.326238
2231.000000	0.325208
2232.000000	0.324348
2233.000000	0.323417
2234.000000	0.322279
2235.000000	0.323648
2236.000000	0.323673
2237.000000	0.323398
2238.000000	0.323427
2239.000000	0.322987
2240.000000	0.322814
2241.000000	0.323189
2242.000000	0.323226
2243.000000	0.323256
2244.000000	0.323360
2245.000000	0.323318
2246.000000	0.323694
2247.000000	0.324202
2248.000000	0.324595
2249.000000	0.326152
2250.000000	0.325267
2251.000000	0.324448
2252.000000	0.324351
2253.000000	0.323687
2254.000000	0.324277
2255.000000	0.324559
2256.000000	0.323764
2257.000000	0.324111
2258.000000	0.324800
2259.000000	0.324755
2260.000000	0.326139
2261.000000	0.325820
2262.000000	0.324024
2263.000000	0.322888
2264.000000	0.321447
2265.000000	0.320218
2266.000000	0.318865
2267.000000	0.318173
2268.000000	0.317843
2269.000000	0.317466
2270.000000	0.317966
2271.000000	0.317183
2272.000000	0.314735
2273.000000	0.314411
2274.000000	0.315394
2275.000000	0.315322
2276.000000	0.316406
2277.000000	0.315974
2278.000000	0.313635
2279.000000	0.310863
2280.000000	0.308893
2281.000000	0.308382
2282.000000	0.307734
2283.000000	0.306132
2284.000000	0.304337
2285.000000	0.302339
2286.000000	0.301163
2287.000000	0.300526
2288.000000	0.300361
2289.000000	0.299755
2290.000000	0.298250
2291.000000	0.297376
2292.000000	0.296652
2293.000000	0.296384
2294.000000	0.296274
2295.000000	0.297323
2296.000000	0.296757
2297.000000	0.294922
2298.000000	0.294084
2299.000000	0.292921
2300.000000	0.292234
2301.000000	0.293051
2302.000000	0.292404
2303.000000	0.291081
2304.000000	0.289384
2305.000000	0.286759
2306.000000	0.284130
2307.000000	0.280908
2308.000000	0.278268
2309.000000	0.275617
2310.000000	0.274533
2311.000000	0.274378
2312.000000	0.274302
2313.000000	0.275454
2314.000000	0.276512
2315.000000	0.278069
2316.000000	0.278701
2317.000000	0.277079
2318.000000	0.276396
2319.000000	0.276859
2320.000000	0.278136
2321.000000	0.282276
2322.000000	0.286351
2323.000000	0.288792
2324.000000	0.291972
2325.000000	0.293618
2326.000000	0.294727
2327.000000	0.296988
2328.000000	0.298833
2329.000000	0.300513
2330.000000	0.301050
2331.000000	0.301475
2332.000000	0.301502
2333.000000	0.301246
2334.000000	0.303702
2335.000000	0.304773
2336.000000	0.304651
2337.000000	0.304060
2338.000000	0.302255
2339.000000	0.300876
2340.000000	0.299469
2341.000000	0.299450
2342.000000	0.300565
2343.000000	0.300822
2344.000000	0.300627
2345.000000	0.300971
2346.000000	0.301796
2347.000000	0.302686
2348.000000	0.304572
2349.000000	0.304994
2350.000000	0.304904
2351.000000	0.303035
2352.000000	0.301221
2353.000000	0.302909
2354.000000	0.303302
2355.000000	0.303847
2356.000000	0.305402
2357.000000	0.303472
2358.000000	0.301391
2359.000000	0.299982
2360.000000	0.298305
2361.000000	0.297284
2362.000000	0.296073
2363.000000	0.296845
2364.000000	0.294632
2365.000000	0.291921
2366.000000	0.293659
2367.000000	0.291545
2368.000000	0.288879
2369.000000	0.290155
2370.000000	0.288017
2371.000000	0.286431
2372.000000	0.287608
2373.000000	0.286958
2374.000000	0.285792
2375.000000	0.284409
2376.000000	0.286329
2377.000000	0.288006
2378.000000	0.288361
2379.000000	0.290538
2380.000000	0.289290
2381.000000	0.286604
2382.000000	0.283500
2383.000000	0.280401
2384.000000	0.280298
2385.000000	0.281476
2386.000000	0.280686
2387.000000	0.278878
2388.000000	0.275019
2389.000000	0.270715
2390.000000	0.273249
2391.000000	0.275572
2392.000000	0.275528
2393.000000	0.274462
2394.000000	0.272268
2395.000000	0.275279
2396.000000	0.279263
2397.000000	0.283156
2398.000000	0.286018
2399.000000	0.281901
2400.000000	0.276331
2401.000000	0.277178
2402.000000	0.277063
2403.000000	0.276033
2404.000000	0.278240
2405.000000	0.275230
2406.000000	0.273487
2407.000000	0.274113
2408.000000	0.275351
2409.000000	0.280918
2410.000000	0.284187
2411.000000	0.287103
2412.000000	0.292706
2413.000000	0.292979
2414.000000	0.287614
2415.000000	0.282229
2416.000000	0.273695
2417.000000	0.271287
2418.000000	0.275469
2419.000000	0.278356
2420.000000	0.283433
2421.000000	0.279353
2422.000000	0.275513
2423.000000	0.277710
2424.000000	0.275593
2425.000000	0.275319
2426.000000	0.271581
2427.000000	0.267063
2428.000000	0.269565
2429.000000	0.273802
2430.000000	0.278041
2431.000000	0.279472
2432.000000	0.273935
2433.000000	0.266308
2434.000000	0.260443
2435.000000	0.258785
2436.000000	0.260482
2437.000000	0.261244
2438.000000	0.267789
2439.000000	0.272074
2440.000000	0.274851
2441.000000	0.280009
2442.000000	0.280575
2443.000000	0.279437
2444.000000	0.272451
2445.000000	0.267280
2446.000000	0.257414
2447.000000	0.248776
2448.000000	0.252796
2449.000000	0.252219
2450.000000	0.255275
2451.000000	0.260490
2452.000000	0.257963
2453.000000	0.259338
2454.000000	0.260682
2455.000000	0.261898
2456.000000	0.271520
2457.000000	0.268876
2458.000000	0.262659
2459.000000	0.263196
2460.000000	0.244303
2461.000000	0.233714
2462.000000	0.236466
2463.000000	0.228948
2464.000000	0.235376
2465.000000	0.242660
2466.000000	0.242149
2467.000000	0.251790
2468.000000	0.246848
2469.000000	0.236524
2470.000000	0.231201
2471.000000	0.217044
2472.000000	0.207081
2473.000000	0.208298
2474.000000	0.216930
2475.000000	0.227654
2476.000000	0.243767
2477.000000	0.247281
2478.000000	0.235635
2479.000000	0.214510
2480.000000	0.200168
2481.000000	0.210056
2482.000000	0.221635
2483.000000	0.234701
2484.000000	0.234584
2485.000000	0.213491
2486.000000	0.203901
2487.000000	0.209075
2488.000000	0.218740
2489.000000	0.223261
2490.000000	0.232376
2491.000000	0.248081
2492.000000	0.245484
2493.000000	0.241434
2494.000000	0.237218
2495.000000	0.204055
2496.000000	0.191440
2497.000000	0.199422
2498.000000	0.195201
2499.000000	0.196060
2500.000000	0.197651
