# Wavelength	SM1200H-10_HEX-60_FV7-30_00002.asd.rts.txt
350.000000	0.259094
351.000000	0.253156
352.000000	0.259300
353.000000	0.254000
354.000000	0.237973
355.000000	0.255009
356.000000	0.261023
357.000000	0.252757
358.000000	0.249928
359.000000	0.248107
360.000000	0.246801
361.000000	0.246786
362.000000	0.259035
363.000000	0.263845
364.000000	0.253104
365.000000	0.250725
366.000000	0.253180
367.000000	0.256636
368.000000	0.257482
369.000000	0.253419
370.000000	0.250577
371.000000	0.255455
372.000000	0.253496
373.000000	0.253148
374.000000	0.259643
375.000000	0.262331
376.000000	0.260685
377.000000	0.257965
378.000000	0.261853
379.000000	0.264783
380.000000	0.264590
381.000000	0.262356
382.000000	0.261263
383.000000	0.262210
384.000000	0.264294
385.000000	0.261132
386.000000	0.260468
387.000000	0.264056
388.000000	0.267449
389.000000	0.268146
390.000000	0.267861
391.000000	0.269343
392.000000	0.270077
393.000000	0.269880
394.000000	0.269291
395.000000	0.270265
396.000000	0.270030
397.000000	0.268642
398.000000	0.270330
399.000000	0.270925
400.000000	0.270696
401.000000	0.271441
402.000000	0.272226
403.000000	0.272640
404.000000	0.272671
405.000000	0.272539
406.000000	0.272893
407.000000	0.273790
408.000000	0.274067
409.000000	0.275217
410.000000	0.276585
411.000000	0.276259
412.000000	0.275972
413.000000	0.275962
414.000000	0.276176
415.000000	0.276904
416.000000	0.277288
417.000000	0.277117
418.000000	0.277790
419.000000	0.277862
420.000000	0.277577
421.000000	0.278635
422.000000	0.279212
423.000000	0.279479
424.000000	0.280180
425.000000	0.280300
426.000000	0.280230
427.000000	0.280341
428.000000	0.280398
429.000000	0.281154
430.000000	0.282311
431.000000	0.281995
432.000000	0.282415
433.000000	0.283142
434.000000	0.282788
435.000000	0.282816
436.000000	0.283303
437.000000	0.283938
438.000000	0.284103
439.000000	0.284194
440.000000	0.284492
441.000000	0.284590
442.000000	0.284615
443.000000	0.284671
444.000000	0.285070
445.000000	0.285326
446.000000	0.285566
447.000000	0.285830
448.000000	0.285924
449.000000	0.286125
450.000000	0.286598
451.000000	0.287066
452.000000	0.287350
453.000000	0.287460
454.000000	0.287908
455.000000	0.288193
456.000000	0.288312
457.000000	0.288280
458.000000	0.288579
459.000000	0.288995
460.000000	0.289296
461.000000	0.289345
462.000000	0.289722
463.000000	0.290359
464.000000	0.290595
465.000000	0.290857
466.000000	0.291141
467.000000	0.291361
468.000000	0.291533
469.000000	0.291662
470.000000	0.291935
471.000000	0.292244
472.000000	0.292428
473.000000	0.292518
474.000000	0.292953
475.000000	0.293122
476.000000	0.293180
477.000000	0.293748
478.000000	0.294018
479.000000	0.294196
480.000000	0.294453
481.000000	0.294591
482.000000	0.294855
483.000000	0.295185
484.000000	0.295423
485.000000	0.295557
486.000000	0.295799
487.000000	0.296081
488.000000	0.296317
489.000000	0.296552
490.000000	0.296897
491.000000	0.296996
492.000000	0.297182
493.000000	0.297692
494.000000	0.297926
495.000000	0.298199
496.000000	0.298658
497.000000	0.298936
498.000000	0.299131
499.000000	0.299408
500.000000	0.299833
501.000000	0.300007
502.000000	0.300067
503.000000	0.300289
504.000000	0.300654
505.000000	0.301016
506.000000	0.301254
507.000000	0.301447
508.000000	0.301749
509.000000	0.302159
510.000000	0.302546
511.000000	0.302955
512.000000	0.303367
513.000000	0.303639
514.000000	0.304023
515.000000	0.304423
516.000000	0.304598
517.000000	0.304915
518.000000	0.305361
519.000000	0.305757
520.000000	0.306035
521.000000	0.306281
522.000000	0.306579
523.000000	0.307054
524.000000	0.307287
525.000000	0.307356
526.000000	0.307669
527.000000	0.308042
528.000000	0.308368
529.000000	0.308646
530.000000	0.308970
531.000000	0.309308
532.000000	0.309551
533.000000	0.309828
534.000000	0.310088
535.000000	0.310302
536.000000	0.310507
537.000000	0.310778
538.000000	0.311125
539.000000	0.311500
540.000000	0.311808
541.000000	0.312036
542.000000	0.312255
543.000000	0.312576
544.000000	0.312904
545.000000	0.313145
546.000000	0.313498
547.000000	0.313852
548.000000	0.314195
549.000000	0.314468
550.000000	0.314755
551.000000	0.315088
552.000000	0.315426
553.000000	0.315772
554.000000	0.316120
555.000000	0.316468
556.000000	0.316818
557.000000	0.317086
558.000000	0.317412
559.000000	0.317809
560.000000	0.318140
561.000000	0.318431
562.000000	0.318618
563.000000	0.318930
564.000000	0.319357
565.000000	0.319716
566.000000	0.320088
567.000000	0.320454
568.000000	0.320768
569.000000	0.321005
570.000000	0.321352
571.000000	0.321779
572.000000	0.322088
573.000000	0.322389
574.000000	0.322688
575.000000	0.323029
576.000000	0.323334
577.000000	0.323664
578.000000	0.324109
579.000000	0.324420
580.000000	0.324695
581.000000	0.324996
582.000000	0.325351
583.000000	0.325631
584.000000	0.325864
585.000000	0.326174
586.000000	0.326573
587.000000	0.326924
588.000000	0.327113
589.000000	0.327361
590.000000	0.327690
591.000000	0.328065
592.000000	0.328341
593.000000	0.328633
594.000000	0.328953
595.000000	0.329223
596.000000	0.329374
597.000000	0.329545
598.000000	0.329827
599.000000	0.330029
600.000000	0.330233
601.000000	0.330436
602.000000	0.330603
603.000000	0.330804
604.000000	0.331072
605.000000	0.331349
606.000000	0.331529
607.000000	0.331632
608.000000	0.331764
609.000000	0.331967
610.000000	0.332200
611.000000	0.332407
612.000000	0.332667
613.000000	0.332859
614.000000	0.332971
615.000000	0.333116
616.000000	0.333282
617.000000	0.333407
618.000000	0.333490
619.000000	0.333666
620.000000	0.333875
621.000000	0.334052
622.000000	0.334229
623.000000	0.334401
624.000000	0.334549
625.000000	0.334627
626.000000	0.334734
627.000000	0.334915
628.000000	0.335122
629.000000	0.335410
630.000000	0.335588
631.000000	0.335665
632.000000	0.335865
633.000000	0.336105
634.000000	0.336236
635.000000	0.336332
636.000000	0.336470
637.000000	0.336648
638.000000	0.336772
639.000000	0.336941
640.000000	0.337188
641.000000	0.337304
642.000000	0.337431
643.000000	0.337582
644.000000	0.337742
645.000000	0.337929
646.000000	0.338140
647.000000	0.338338
648.000000	0.338524
649.000000	0.338686
650.000000	0.338829
651.000000	0.339064
652.000000	0.339208
653.000000	0.339366
654.000000	0.339659
655.000000	0.339851
656.000000	0.340025
657.000000	0.340215
658.000000	0.340350
659.000000	0.340501
660.000000	0.340680
661.000000	0.340840
662.000000	0.340965
663.000000	0.341104
664.000000	0.341235
665.000000	0.341367
666.000000	0.341522
667.000000	0.341686
668.000000	0.341889
669.000000	0.342091
670.000000	0.342276
671.000000	0.342436
672.000000	0.342631
673.000000	0.342840
674.000000	0.342999
675.000000	0.343120
676.000000	0.343265
677.000000	0.343499
678.000000	0.343641
679.000000	0.343778
680.000000	0.343969
681.000000	0.344077
682.000000	0.344256
683.000000	0.344449
684.000000	0.344656
685.000000	0.344804
686.000000	0.344975
687.000000	0.345228
688.000000	0.345453
689.000000	0.345610
690.000000	0.345748
691.000000	0.345987
692.000000	0.346137
693.000000	0.346243
694.000000	0.346428
695.000000	0.346609
696.000000	0.346773
697.000000	0.346929
698.000000	0.347102
699.000000	0.347307
700.000000	0.347541
701.000000	0.347697
702.000000	0.347852
703.000000	0.348022
704.000000	0.348207
705.000000	0.348402
706.000000	0.348605
707.000000	0.348903
708.000000	0.349102
709.000000	0.349254
710.000000	0.349444
711.000000	0.349584
712.000000	0.349725
713.000000	0.349889
714.000000	0.349980
715.000000	0.350098
716.000000	0.350237
717.000000	0.350321
718.000000	0.350468
719.000000	0.350611
720.000000	0.350716
721.000000	0.350914
722.000000	0.351093
723.000000	0.351255
724.000000	0.351350
725.000000	0.351378
726.000000	0.351456
727.000000	0.351559
728.000000	0.351666
729.000000	0.351816
730.000000	0.351975
731.000000	0.352154
732.000000	0.352312
733.000000	0.352473
734.000000	0.352610
735.000000	0.352712
736.000000	0.352878
737.000000	0.352969
738.000000	0.353096
739.000000	0.353224
740.000000	0.353171
741.000000	0.353324
742.000000	0.353460
743.000000	0.353498
744.000000	0.353608
745.000000	0.353684
746.000000	0.353783
747.000000	0.353886
748.000000	0.353972
749.000000	0.354078
750.000000	0.354177
751.000000	0.354212
752.000000	0.354285
753.000000	0.354421
754.000000	0.354550
755.000000	0.354656
756.000000	0.354769
757.000000	0.354868
758.000000	0.354905
759.000000	0.354964
760.000000	0.355027
761.000000	0.355200
762.000000	0.355309
763.000000	0.355328
764.000000	0.355418
765.000000	0.355516
766.000000	0.355594
767.000000	0.355642
768.000000	0.355735
769.000000	0.355859
770.000000	0.355973
771.000000	0.355980
772.000000	0.356116
773.000000	0.356233
774.000000	0.356211
775.000000	0.356303
776.000000	0.356371
777.000000	0.356314
778.000000	0.356382
779.000000	0.356404
780.000000	0.356378
781.000000	0.356431
782.000000	0.356515
783.000000	0.356664
784.000000	0.356725
785.000000	0.356845
786.000000	0.356899
787.000000	0.356840
788.000000	0.356816
789.000000	0.356831
790.000000	0.356853
791.000000	0.356882
792.000000	0.356961
793.000000	0.357074
794.000000	0.357192
795.000000	0.357245
796.000000	0.357226
797.000000	0.357188
798.000000	0.357267
799.000000	0.357305
800.000000	0.357331
801.000000	0.357405
802.000000	0.357417
803.000000	0.357379
804.000000	0.357353
805.000000	0.357335
806.000000	0.357330
807.000000	0.357402
808.000000	0.357451
809.000000	0.357417
810.000000	0.357361
811.000000	0.357331
812.000000	0.357323
813.000000	0.357362
814.000000	0.357400
815.000000	0.357356
816.000000	0.357402
817.000000	0.357480
818.000000	0.357427
819.000000	0.357511
820.000000	0.357580
821.000000	0.357511
822.000000	0.357416
823.000000	0.357403
824.000000	0.357352
825.000000	0.357229
826.000000	0.357193
827.000000	0.357142
828.000000	0.357088
829.000000	0.357166
830.000000	0.357197
831.000000	0.357240
832.000000	0.357278
833.000000	0.357270
834.000000	0.357229
835.000000	0.357206
836.000000	0.357170
837.000000	0.357105
838.000000	0.357063
839.000000	0.357097
840.000000	0.357195
841.000000	0.357239
842.000000	0.357125
843.000000	0.357127
844.000000	0.357188
845.000000	0.357197
846.000000	0.357080
847.000000	0.357021
848.000000	0.356986
849.000000	0.356916
850.000000	0.356728
851.000000	0.356624
852.000000	0.356688
853.000000	0.356698
854.000000	0.356641
855.000000	0.356690
856.000000	0.356815
857.000000	0.356869
858.000000	0.356825
859.000000	0.356635
860.000000	0.356484
861.000000	0.356363
862.000000	0.356275
863.000000	0.356139
864.000000	0.356090
865.000000	0.356084
866.000000	0.356089
867.000000	0.356021
868.000000	0.356024
869.000000	0.355971
870.000000	0.355787
871.000000	0.355627
872.000000	0.355538
873.000000	0.355436
874.000000	0.355265
875.000000	0.355030
876.000000	0.354807
877.000000	0.354613
878.000000	0.354438
879.000000	0.354359
880.000000	0.354246
881.000000	0.354151
882.000000	0.354049
883.000000	0.353948
884.000000	0.353798
885.000000	0.353681
886.000000	0.353568
887.000000	0.353439
888.000000	0.353195
889.000000	0.353083
890.000000	0.352997
891.000000	0.352947
892.000000	0.352772
893.000000	0.352510
894.000000	0.352361
895.000000	0.352309
896.000000	0.352073
897.000000	0.351752
898.000000	0.351563
899.000000	0.351504
900.000000	0.351342
901.000000	0.351011
902.000000	0.350843
903.000000	0.350757
904.000000	0.350704
905.000000	0.350525
906.000000	0.350330
907.000000	0.350048
908.000000	0.349788
909.000000	0.349647
910.000000	0.349559
911.000000	0.349419
912.000000	0.349183
913.000000	0.348963
914.000000	0.348719
915.000000	0.348527
916.000000	0.348360
917.000000	0.348263
918.000000	0.348179
919.000000	0.348024
920.000000	0.347792
921.000000	0.347522
922.000000	0.347312
923.000000	0.347217
924.000000	0.346930
925.000000	0.346662
926.000000	0.346548
927.000000	0.346362
928.000000	0.346082
929.000000	0.345772
930.000000	0.345521
931.000000	0.345306
932.000000	0.345081
933.000000	0.344843
934.000000	0.344519
935.000000	0.344169
936.000000	0.343943
937.000000	0.343760
938.000000	0.343290
939.000000	0.342977
940.000000	0.342814
941.000000	0.342680
942.000000	0.342379
943.000000	0.342160
944.000000	0.342008
945.000000	0.341830
946.000000	0.341423
947.000000	0.341012
948.000000	0.340820
949.000000	0.340740
950.000000	0.340658
951.000000	0.340441
952.000000	0.340098
953.000000	0.339803
954.000000	0.339582
955.000000	0.339343
956.000000	0.339131
957.000000	0.338855
958.000000	0.338494
959.000000	0.338214
960.000000	0.338066
961.000000	0.337874
962.000000	0.337596
963.000000	0.337433
964.000000	0.337557
965.000000	0.337499
966.000000	0.336899
967.000000	0.336735
968.000000	0.336438
969.000000	0.335982
970.000000	0.335726
971.000000	0.335563
972.000000	0.335582
973.000000	0.335553
974.000000	0.335086
975.000000	0.334679
976.000000	0.334585
977.000000	0.334728
978.000000	0.334306
979.000000	0.334117
980.000000	0.333980
981.000000	0.333847
982.000000	0.333640
983.000000	0.333373
984.000000	0.333151
985.000000	0.332976
986.000000	0.332795
987.000000	0.332619
988.000000	0.332307
989.000000	0.331791
990.000000	0.331687
991.000000	0.331742
992.000000	0.331541
993.000000	0.331274
994.000000	0.331095
995.000000	0.331157
996.000000	0.331143
997.000000	0.331049
998.000000	0.330899
999.000000	0.330775
1000.000000	0.330537
1001.000000	0.332023
1002.000000	0.330487
1003.000000	0.329701
1004.000000	0.329732
1005.000000	0.330249
1006.000000	0.330218
1007.000000	0.330756
1008.000000	0.331547
1009.000000	0.331038
1010.000000	0.330695
1011.000000	0.331110
1012.000000	0.330707
1013.000000	0.330229
1014.000000	0.330364
1015.000000	0.330081
1016.000000	0.330043
1017.000000	0.330382
1018.000000	0.330191
1019.000000	0.330022
1020.000000	0.330054
1021.000000	0.329792
1022.000000	0.329409
1023.000000	0.329436
1024.000000	0.329507
1025.000000	0.329472
1026.000000	0.329940
1027.000000	0.329949
1028.000000	0.329745
1029.000000	0.330221
1030.000000	0.330297
1031.000000	0.329908
1032.000000	0.330205
1033.000000	0.330476
1034.000000	0.330746
1035.000000	0.331394
1036.000000	0.331609
1037.000000	0.331576
1038.000000	0.331436
1039.000000	0.331016
1040.000000	0.330848
1041.000000	0.331153
1042.000000	0.331194
1043.000000	0.331608
1044.000000	0.331974
1045.000000	0.331691
1046.000000	0.332003
1047.000000	0.332063
1048.000000	0.331668
1049.000000	0.331762
1050.000000	0.332154
1051.000000	0.332365
1052.000000	0.333064
1053.000000	0.333158
1054.000000	0.332807
1055.000000	0.332733
1056.000000	0.332544
1057.000000	0.332331
1058.000000	0.332641
1059.000000	0.333100
1060.000000	0.333234
1061.000000	0.333450
1062.000000	0.333528
1063.000000	0.333825
1064.000000	0.334086
1065.000000	0.334463
1066.000000	0.334738
1067.000000	0.334973
1068.000000	0.335087
1069.000000	0.334985
1070.000000	0.335121
1071.000000	0.335406
1072.000000	0.335528
1073.000000	0.335552
1074.000000	0.336066
1075.000000	0.336572
1076.000000	0.336661
1077.000000	0.336765
1078.000000	0.336906
1079.000000	0.336886
1080.000000	0.336323
1081.000000	0.336544
1082.000000	0.337376
1083.000000	0.337755
1084.000000	0.338390
1085.000000	0.338834
1086.000000	0.338994
1087.000000	0.339095
1088.000000	0.339116
1089.000000	0.339033
1090.000000	0.338400
1091.000000	0.338229
1092.000000	0.338319
1093.000000	0.338821
1094.000000	0.339296
1095.000000	0.340153
1096.000000	0.340555
1097.000000	0.340778
1098.000000	0.341113
1099.000000	0.341322
1100.000000	0.341611
1101.000000	0.342151
1102.000000	0.342169
1103.000000	0.341530
1104.000000	0.341536
1105.000000	0.341519
1106.000000	0.341691
1107.000000	0.342462
1108.000000	0.342919
1109.000000	0.343498
1110.000000	0.343629
1111.000000	0.343716
1112.000000	0.343482
1113.000000	0.343817
1114.000000	0.344421
1115.000000	0.344509
1116.000000	0.344774
1117.000000	0.344806
1118.000000	0.343983
1119.000000	0.343904
1120.000000	0.344373
1121.000000	0.344594
1122.000000	0.345100
1123.000000	0.345540
1124.000000	0.345649
1125.000000	0.345782
1126.000000	0.345609
1127.000000	0.345656
1128.000000	0.345776
1129.000000	0.345975
1130.000000	0.346220
1131.000000	0.346716
1132.000000	0.346888
1133.000000	0.346997
1134.000000	0.347098
1135.000000	0.347008
1136.000000	0.347013
1137.000000	0.347096
1138.000000	0.347023
1139.000000	0.346861
1140.000000	0.346946
1141.000000	0.346963
1142.000000	0.347103
1143.000000	0.347594
1144.000000	0.347865
1145.000000	0.347911
1146.000000	0.347695
1147.000000	0.347630
1148.000000	0.347248
1149.000000	0.347229
1150.000000	0.347489
1151.000000	0.347586
1152.000000	0.347606
1153.000000	0.347726
1154.000000	0.347886
1155.000000	0.347877
1156.000000	0.347862
1157.000000	0.347838
1158.000000	0.347650
1159.000000	0.347459
1160.000000	0.347119
1161.000000	0.347042
1162.000000	0.347179
1163.000000	0.347350
1164.000000	0.347346
1165.000000	0.347377
1166.000000	0.347475
1167.000000	0.347370
1168.000000	0.347324
1169.000000	0.347525
1170.000000	0.347558
1171.000000	0.347407
1172.000000	0.347397
1173.000000	0.347451
1174.000000	0.347484
1175.000000	0.347466
1176.000000	0.347423
1177.000000	0.347510
1178.000000	0.347527
1179.000000	0.347485
1180.000000	0.347379
1181.000000	0.347292
1182.000000	0.347210
1183.000000	0.347224
1184.000000	0.347234
1185.000000	0.347278
1186.000000	0.347418
1187.000000	0.347450
1188.000000	0.347526
1189.000000	0.347378
1190.000000	0.347073
1191.000000	0.346955
1192.000000	0.346816
1193.000000	0.346917
1194.000000	0.347239
1195.000000	0.347316
1196.000000	0.347268
1197.000000	0.347211
1198.000000	0.346960
1199.000000	0.346950
1200.000000	0.347104
1201.000000	0.347216
1202.000000	0.347236
1203.000000	0.347096
1204.000000	0.346932
1205.000000	0.346846
1206.000000	0.346729
1207.000000	0.346873
1208.000000	0.346808
1209.000000	0.346621
1210.000000	0.346547
1211.000000	0.346519
1212.000000	0.346457
1213.000000	0.346414
1214.000000	0.346460
1215.000000	0.346558
1216.000000	0.346571
1217.000000	0.346635
1218.000000	0.346594
1219.000000	0.346408
1220.000000	0.346339
1221.000000	0.346380
1222.000000	0.346279
1223.000000	0.346414
1224.000000	0.346670
1225.000000	0.346664
1226.000000	0.346687
1227.000000	0.346613
1228.000000	0.346514
1229.000000	0.346432
1230.000000	0.346406
1231.000000	0.346268
1232.000000	0.346144
1233.000000	0.346204
1234.000000	0.346333
1235.000000	0.346374
1236.000000	0.346349
1237.000000	0.346390
1238.000000	0.346367
1239.000000	0.346351
1240.000000	0.346353
1241.000000	0.346422
1242.000000	0.346550
1243.000000	0.346558
1244.000000	0.346506
1245.000000	0.346605
1246.000000	0.346562
1247.000000	0.346535
1248.000000	0.346633
1249.000000	0.346725
1250.000000	0.346788
1251.000000	0.346817
1252.000000	0.346845
1253.000000	0.346895
1254.000000	0.346980
1255.000000	0.347109
1256.000000	0.347124
1257.000000	0.347172
1258.000000	0.347264
1259.000000	0.347206
1260.000000	0.347208
1261.000000	0.347218
1262.000000	0.347187
1263.000000	0.347136
1264.000000	0.347055
1265.000000	0.346903
1266.000000	0.346843
1267.000000	0.346702
1268.000000	0.346525
1269.000000	0.346543
1270.000000	0.346651
1271.000000	0.346651
1272.000000	0.346613
1273.000000	0.346686
1274.000000	0.346717
1275.000000	0.346679
1276.000000	0.346669
1277.000000	0.346780
1278.000000	0.346746
1279.000000	0.346714
1280.000000	0.346753
1281.000000	0.346724
1282.000000	0.346624
1283.000000	0.346627
1284.000000	0.346670
1285.000000	0.346630
1286.000000	0.346496
1287.000000	0.346382
1288.000000	0.346374
1289.000000	0.346262
1290.000000	0.346038
1291.000000	0.345963
1292.000000	0.346062
1293.000000	0.346053
1294.000000	0.346122
1295.000000	0.346240
1296.000000	0.346084
1297.000000	0.346044
1298.000000	0.346084
1299.000000	0.346097
1300.000000	0.346291
1301.000000	0.346338
1302.000000	0.346254
1303.000000	0.346195
1304.000000	0.346032
1305.000000	0.345779
1306.000000	0.345650
1307.000000	0.345578
1308.000000	0.345543
1309.000000	0.345662
1310.000000	0.345578
1311.000000	0.345432
1312.000000	0.345222
1313.000000	0.344963
1314.000000	0.344724
1315.000000	0.344535
1316.000000	0.344417
1317.000000	0.344291
1318.000000	0.344127
1319.000000	0.343909
1320.000000	0.343884
1321.000000	0.343955
1322.000000	0.343954
1323.000000	0.343885
1324.000000	0.343737
1325.000000	0.343539
1326.000000	0.343385
1327.000000	0.343385
1328.000000	0.343400
1329.000000	0.343248
1330.000000	0.343016
1331.000000	0.342847
1332.000000	0.342635
1333.000000	0.342475
1334.000000	0.342475
1335.000000	0.342376
1336.000000	0.342232
1337.000000	0.342049
1338.000000	0.341770
1339.000000	0.341501
1340.000000	0.341221
1341.000000	0.341044
1342.000000	0.341046
1343.000000	0.341014
1344.000000	0.340869
1345.000000	0.340683
1346.000000	0.340498
1347.000000	0.340225
1348.000000	0.340099
1349.000000	0.339994
1350.000000	0.339885
1351.000000	0.339723
1352.000000	0.339537
1353.000000	0.339235
1354.000000	0.339039
1355.000000	0.338901
1356.000000	0.338729
1357.000000	0.338617
1358.000000	0.338397
1359.000000	0.338194
1360.000000	0.338022
1361.000000	0.337906
1362.000000	0.337755
1363.000000	0.337641
1364.000000	0.337452
1365.000000	0.337153
1366.000000	0.336982
1367.000000	0.336880
1368.000000	0.336599
1369.000000	0.336443
1370.000000	0.336298
1371.000000	0.335938
1372.000000	0.335598
1373.000000	0.335203
1374.000000	0.334692
1375.000000	0.334272
1376.000000	0.334060
1377.000000	0.333904
1378.000000	0.333494
1379.000000	0.332797
1380.000000	0.332130
1381.000000	0.331416
1382.000000	0.330642
1383.000000	0.330112
1384.000000	0.329460
1385.000000	0.328683
1386.000000	0.328124
1387.000000	0.327430
1388.000000	0.326664
1389.000000	0.326042
1390.000000	0.325419
1391.000000	0.324801
1392.000000	0.324298
1393.000000	0.323811
1394.000000	0.323341
1395.000000	0.322915
1396.000000	0.322673
1397.000000	0.322198
1398.000000	0.321579
1399.000000	0.320938
1400.000000	0.320161
1401.000000	0.319387
1402.000000	0.318628
1403.000000	0.317836
1404.000000	0.317047
1405.000000	0.316212
1406.000000	0.315299
1407.000000	0.314463
1408.000000	0.313543
1409.000000	0.312557
1410.000000	0.311643
1411.000000	0.310592
1412.000000	0.309544
1413.000000	0.308626
1414.000000	0.307610
1415.000000	0.306618
1416.000000	0.305593
1417.000000	0.304594
1418.000000	0.303648
1419.000000	0.302615
1420.000000	0.301601
1421.000000	0.300811
1422.000000	0.299923
1423.000000	0.299038
1424.000000	0.298004
1425.000000	0.296839
1426.000000	0.295787
1427.000000	0.294853
1428.000000	0.294110
1429.000000	0.293402
1430.000000	0.292580
1431.000000	0.291828
1432.000000	0.291079
1433.000000	0.290381
1434.000000	0.289628
1435.000000	0.288888
1436.000000	0.288216
1437.000000	0.287543
1438.000000	0.286878
1439.000000	0.286369
1440.000000	0.285835
1441.000000	0.285278
1442.000000	0.284716
1443.000000	0.284114
1444.000000	0.283511
1445.000000	0.282936
1446.000000	0.282327
1447.000000	0.281764
1448.000000	0.281349
1449.000000	0.280964
1450.000000	0.280544
1451.000000	0.280241
1452.000000	0.279946
1453.000000	0.279544
1454.000000	0.279173
1455.000000	0.278835
1456.000000	0.278536
1457.000000	0.278316
1458.000000	0.278170
1459.000000	0.278009
1460.000000	0.277884
1461.000000	0.277855
1462.000000	0.277694
1463.000000	0.277424
1464.000000	0.277151
1465.000000	0.276803
1466.000000	0.276535
1467.000000	0.276433
1468.000000	0.276365
1469.000000	0.276330
1470.000000	0.276213
1471.000000	0.276151
1472.000000	0.276127
1473.000000	0.276123
1474.000000	0.276226
1475.000000	0.276474
1476.000000	0.276774
1477.000000	0.277167
1478.000000	0.277487
1479.000000	0.277653
1480.000000	0.277818
1481.000000	0.277995
1482.000000	0.278122
1483.000000	0.278428
1484.000000	0.278897
1485.000000	0.279232
1486.000000	0.279530
1487.000000	0.279853
1488.000000	0.280165
1489.000000	0.280479
1490.000000	0.280709
1491.000000	0.281087
1492.000000	0.281411
1493.000000	0.281834
1494.000000	0.282417
1495.000000	0.282826
1496.000000	0.283139
1497.000000	0.283580
1498.000000	0.284041
1499.000000	0.284515
1500.000000	0.285012
1501.000000	0.285355
1502.000000	0.285527
1503.000000	0.285702
1504.000000	0.285942
1505.000000	0.286198
1506.000000	0.286429
1507.000000	0.286662
1508.000000	0.287009
1509.000000	0.287333
1510.000000	0.287577
1511.000000	0.287830
1512.000000	0.288043
1513.000000	0.288222
1514.000000	0.288504
1515.000000	0.288821
1516.000000	0.289056
1517.000000	0.289204
1518.000000	0.289349
1519.000000	0.289402
1520.000000	0.289441
1521.000000	0.289460
1522.000000	0.289571
1523.000000	0.289774
1524.000000	0.289884
1525.000000	0.289966
1526.000000	0.289998
1527.000000	0.290074
1528.000000	0.290177
1529.000000	0.290323
1530.000000	0.290462
1531.000000	0.290555
1532.000000	0.290628
1533.000000	0.290697
1534.000000	0.290807
1535.000000	0.290794
1536.000000	0.290719
1537.000000	0.290755
1538.000000	0.290749
1539.000000	0.290778
1540.000000	0.290877
1541.000000	0.290981
1542.000000	0.291062
1543.000000	0.291099
1544.000000	0.291087
1545.000000	0.291157
1546.000000	0.291231
1547.000000	0.291190
1548.000000	0.291216
1549.000000	0.291234
1550.000000	0.291231
1551.000000	0.291288
1552.000000	0.291307
1553.000000	0.291377
1554.000000	0.291455
1555.000000	0.291434
1556.000000	0.291449
1557.000000	0.291387
1558.000000	0.291378
1559.000000	0.291352
1560.000000	0.291280
1561.000000	0.291198
1562.000000	0.291152
1563.000000	0.291055
1564.000000	0.291025
1565.000000	0.291137
1566.000000	0.291122
1567.000000	0.291143
1568.000000	0.291138
1569.000000	0.291120
1570.000000	0.291151
1571.000000	0.291200
1572.000000	0.291248
1573.000000	0.291364
1574.000000	0.291431
1575.000000	0.291428
1576.000000	0.291459
1577.000000	0.291578
1578.000000	0.291508
1579.000000	0.291359
1580.000000	0.291339
1581.000000	0.291291
1582.000000	0.291302
1583.000000	0.291511
1584.000000	0.291492
1585.000000	0.291418
1586.000000	0.291393
1587.000000	0.291284
1588.000000	0.291251
1589.000000	0.291283
1590.000000	0.291265
1591.000000	0.291278
1592.000000	0.291283
1593.000000	0.291313
1594.000000	0.291301
1595.000000	0.291281
1596.000000	0.291306
1597.000000	0.291374
1598.000000	0.291417
1599.000000	0.291541
1600.000000	0.291524
1601.000000	0.291456
1602.000000	0.291452
1603.000000	0.291449
1604.000000	0.291467
1605.000000	0.291606
1606.000000	0.291587
1607.000000	0.291505
1608.000000	0.291499
1609.000000	0.291515
1610.000000	0.291524
1611.000000	0.291581
1612.000000	0.291617
1613.000000	0.291703
1614.000000	0.291776
1615.000000	0.291919
1616.000000	0.292100
1617.000000	0.292281
1618.000000	0.292411
1619.000000	0.292554
1620.000000	0.292684
1621.000000	0.292743
1622.000000	0.292907
1623.000000	0.293051
1624.000000	0.293292
1625.000000	0.293561
1626.000000	0.293706
1627.000000	0.293892
1628.000000	0.294029
1629.000000	0.293946
1630.000000	0.294116
1631.000000	0.294424
1632.000000	0.294592
1633.000000	0.294838
1634.000000	0.294972
1635.000000	0.294925
1636.000000	0.295018
1637.000000	0.295165
1638.000000	0.295361
1639.000000	0.295764
1640.000000	0.295942
1641.000000	0.296089
1642.000000	0.296265
1643.000000	0.296390
1644.000000	0.296502
1645.000000	0.296628
1646.000000	0.296723
1647.000000	0.296736
1648.000000	0.296860
1649.000000	0.297218
1650.000000	0.297435
1651.000000	0.297654
1652.000000	0.297878
1653.000000	0.297952
1654.000000	0.298163
1655.000000	0.298434
1656.000000	0.298570
1657.000000	0.298777
1658.000000	0.298911
1659.000000	0.299025
1660.000000	0.299196
1661.000000	0.299294
1662.000000	0.299478
1663.000000	0.299713
1664.000000	0.299862
1665.000000	0.299980
1666.000000	0.300195
1667.000000	0.300309
1668.000000	0.300492
1669.000000	0.300759
1670.000000	0.300949
1671.000000	0.301180
1672.000000	0.301464
1673.000000	0.301778
1674.000000	0.301946
1675.000000	0.302249
1676.000000	0.302546
1677.000000	0.302625
1678.000000	0.302739
1679.000000	0.302839
1680.000000	0.302910
1681.000000	0.303098
1682.000000	0.303268
1683.000000	0.303409
1684.000000	0.303485
1685.000000	0.303563
1686.000000	0.303642
1687.000000	0.303786
1688.000000	0.303894
1689.000000	0.303840
1690.000000	0.303804
1691.000000	0.303910
1692.000000	0.303946
1693.000000	0.304105
1694.000000	0.304247
1695.000000	0.304300
1696.000000	0.304312
1697.000000	0.304316
1698.000000	0.304314
1699.000000	0.304449
1700.000000	0.304796
1701.000000	0.305004
1702.000000	0.305001
1703.000000	0.304999
1704.000000	0.304867
1705.000000	0.304875
1706.000000	0.305119
1707.000000	0.305234
1708.000000	0.305286
1709.000000	0.305291
1710.000000	0.305301
1711.000000	0.305338
1712.000000	0.305376
1713.000000	0.305448
1714.000000	0.305625
1715.000000	0.305726
1716.000000	0.305813
1717.000000	0.305929
1718.000000	0.305970
1719.000000	0.306039
1720.000000	0.306237
1721.000000	0.306361
1722.000000	0.306382
1723.000000	0.306547
1724.000000	0.306834
1725.000000	0.307061
1726.000000	0.307267
1727.000000	0.307451
1728.000000	0.307476
1729.000000	0.307581
1730.000000	0.307906
1731.000000	0.308068
1732.000000	0.308191
1733.000000	0.308388
1734.000000	0.308446
1735.000000	0.308479
1736.000000	0.308464
1737.000000	0.308537
1738.000000	0.308597
1739.000000	0.308657
1740.000000	0.308805
1741.000000	0.308881
1742.000000	0.308847
1743.000000	0.308993
1744.000000	0.309257
1745.000000	0.309332
1746.000000	0.309370
1747.000000	0.309361
1748.000000	0.309304
1749.000000	0.309153
1750.000000	0.309154
1751.000000	0.309371
1752.000000	0.309619
1753.000000	0.309952
1754.000000	0.310172
1755.000000	0.310198
1756.000000	0.310291
1757.000000	0.310435
1758.000000	0.310512
1759.000000	0.310508
1760.000000	0.310575
1761.000000	0.310564
1762.000000	0.310605
1763.000000	0.310846
1764.000000	0.310891
1765.000000	0.310755
1766.000000	0.310723
1767.000000	0.310480
1768.000000	0.310454
1769.000000	0.310780
1770.000000	0.310891
1771.000000	0.310892
1772.000000	0.311013
1773.000000	0.310968
1774.000000	0.311156
1775.000000	0.311760
1776.000000	0.311973
1777.000000	0.312030
1778.000000	0.312105
1779.000000	0.311956
1780.000000	0.312045
1781.000000	0.312240
1782.000000	0.312352
1783.000000	0.312552
1784.000000	0.312628
1785.000000	0.312636
1786.000000	0.312469
1787.000000	0.312543
1788.000000	0.312770
1789.000000	0.312853
1790.000000	0.313006
1791.000000	0.313117
1792.000000	0.313245
1793.000000	0.313300
1794.000000	0.313346
1795.000000	0.313445
1796.000000	0.313387
1797.000000	0.313488
1798.000000	0.313884
1799.000000	0.314008
1800.000000	0.313993
1801.000000	0.313655
1802.000000	0.313929
1803.000000	0.314300
1804.000000	0.314623
1805.000000	0.315100
1806.000000	0.315054
1807.000000	0.314666
1808.000000	0.314528
1809.000000	0.314088
1810.000000	0.313223
1811.000000	0.313740
1812.000000	0.315468
1813.000000	0.316063
1814.000000	0.317519
1815.000000	0.317692
1816.000000	0.316025
1817.000000	0.315624
1818.000000	0.315941
1819.000000	0.315315
1820.000000	0.315392
1821.000000	0.315550
1822.000000	0.315375
1823.000000	0.314670
1824.000000	0.314204
1825.000000	0.313540
1826.000000	0.313232
1827.000000	0.312567
1828.000000	0.312676
1829.000000	0.313012
1830.000000	0.313557
1831.000000	0.313731
1832.000000	0.314215
1833.000000	0.313656
1834.000000	0.311815
1835.000000	0.311402
1836.000000	0.310924
1837.000000	0.310754
1838.000000	0.311419
1839.000000	0.312165
1840.000000	0.312363
1841.000000	0.311718
1842.000000	0.311418
1843.000000	0.311058
1844.000000	0.310691
1845.000000	0.309996
1846.000000	0.309908
1847.000000	0.310287
1848.000000	0.309606
1849.000000	0.309809
1850.000000	0.309832
1851.000000	0.309585
1852.000000	0.309154
1853.000000	0.308824
1854.000000	0.308070
1855.000000	0.307404
1856.000000	0.306815
1857.000000	0.305703
1858.000000	0.304915
1859.000000	0.304673
1860.000000	0.303878
1861.000000	0.303446
1862.000000	0.302717
1863.000000	0.301903
1864.000000	0.300781
1865.000000	0.299428
1866.000000	0.298075
1867.000000	0.296514
1868.000000	0.294768
1869.000000	0.292774
1870.000000	0.291304
1871.000000	0.289900
1872.000000	0.288699
1873.000000	0.287489
1874.000000	0.286568
1875.000000	0.285384
1876.000000	0.284076
1877.000000	0.282212
1878.000000	0.279944
1879.000000	0.278174
1880.000000	0.275581
1881.000000	0.272304
1882.000000	0.269425
1883.000000	0.266389
1884.000000	0.263576
1885.000000	0.261120
1886.000000	0.258060
1887.000000	0.254701
1888.000000	0.251075
1889.000000	0.248039
1890.000000	0.244739
1891.000000	0.241581
1892.000000	0.239136
1893.000000	0.235974
1894.000000	0.232674
1895.000000	0.229177
1896.000000	0.225877
1897.000000	0.222158
1898.000000	0.218120
1899.000000	0.214403
1900.000000	0.211113
1901.000000	0.208065
1902.000000	0.205517
1903.000000	0.202853
1904.000000	0.199786
1905.000000	0.196543
1906.000000	0.193586
1907.000000	0.190484
1908.000000	0.187448
1909.000000	0.185278
1910.000000	0.183632
1911.000000	0.181500
1912.000000	0.179776
1913.000000	0.178116
1914.000000	0.176140
1915.000000	0.174132
1916.000000	0.171763
1917.000000	0.169762
1918.000000	0.167804
1919.000000	0.166255
1920.000000	0.164967
1921.000000	0.164600
1922.000000	0.163826
1923.000000	0.162877
1924.000000	0.162407
1925.000000	0.161220
1926.000000	0.160520
1927.000000	0.160286
1928.000000	0.159816
1929.000000	0.159102
1930.000000	0.159011
1931.000000	0.159127
1932.000000	0.159146
1933.000000	0.159568
1934.000000	0.160300
1935.000000	0.160539
1936.000000	0.160317
1937.000000	0.160123
1938.000000	0.159872
1939.000000	0.159712
1940.000000	0.159715
1941.000000	0.159567
1942.000000	0.159321
1943.000000	0.158891
1944.000000	0.158194
1945.000000	0.158316
1946.000000	0.158591
1947.000000	0.158531
1948.000000	0.158587
1949.000000	0.158461
1950.000000	0.158048
1951.000000	0.157577
1952.000000	0.157195
1953.000000	0.156272
1954.000000	0.155430
1955.000000	0.155094
1956.000000	0.154526
1957.000000	0.154593
1958.000000	0.154466
1959.000000	0.153625
1960.000000	0.153081
1961.000000	0.152297
1962.000000	0.151934
1963.000000	0.151786
1964.000000	0.152244
1965.000000	0.152208
1966.000000	0.152597
1967.000000	0.152628
1968.000000	0.152156
1969.000000	0.152299
1970.000000	0.152282
1971.000000	0.152251
1972.000000	0.152527
1973.000000	0.152595
1974.000000	0.152816
1975.000000	0.152690
1976.000000	0.152333
1977.000000	0.151771
1978.000000	0.151734
1979.000000	0.151738
1980.000000	0.152547
1981.000000	0.154166
1982.000000	0.154853
1983.000000	0.155590
1984.000000	0.156026
1985.000000	0.155646
1986.000000	0.155960
1987.000000	0.156649
1988.000000	0.157105
1989.000000	0.157577
1990.000000	0.157743
1991.000000	0.157498
1992.000000	0.157692
1993.000000	0.158291
1994.000000	0.158916
1995.000000	0.159656
1996.000000	0.160401
1997.000000	0.161086
1998.000000	0.161868
1999.000000	0.162516
2000.000000	0.163134
2001.000000	0.163477
2002.000000	0.163991
2003.000000	0.164965
2004.000000	0.165939
2005.000000	0.166869
2006.000000	0.167792
2007.000000	0.167944
2008.000000	0.168548
2009.000000	0.169160
2010.000000	0.170104
2011.000000	0.171421
2012.000000	0.172438
2013.000000	0.173436
2014.000000	0.174334
2015.000000	0.175217
2016.000000	0.175743
2017.000000	0.176438
2018.000000	0.177354
2019.000000	0.178205
2020.000000	0.178719
2021.000000	0.179639
2022.000000	0.180959
2023.000000	0.181926
2024.000000	0.183086
2025.000000	0.184134
2026.000000	0.185172
2027.000000	0.185251
2028.000000	0.185675
2029.000000	0.186407
2030.000000	0.187250
2031.000000	0.188514
2032.000000	0.189743
2033.000000	0.190733
2034.000000	0.191823
2035.000000	0.193077
2036.000000	0.193897
2037.000000	0.194809
2038.000000	0.195464
2039.000000	0.195784
2040.000000	0.195764
2041.000000	0.196395
2042.000000	0.197164
2043.000000	0.197630
2044.000000	0.198759
2045.000000	0.199893
2046.000000	0.200397
2047.000000	0.201323
2048.000000	0.202826
2049.000000	0.203627
2050.000000	0.203706
2051.000000	0.204282
2052.000000	0.204552
2053.000000	0.204960
2054.000000	0.205717
2055.000000	0.206907
2056.000000	0.207812
2057.000000	0.207792
2058.000000	0.208125
2059.000000	0.208832
2060.000000	0.209615
2061.000000	0.210873
2062.000000	0.211747
2063.000000	0.212599
2064.000000	0.213074
2065.000000	0.213163
2066.000000	0.213744
2067.000000	0.214540
2068.000000	0.215759
2069.000000	0.216720
2070.000000	0.217076
2071.000000	0.217239
2072.000000	0.217217
2073.000000	0.217399
2074.000000	0.218087
2075.000000	0.218967
2076.000000	0.220281
2077.000000	0.221153
2078.000000	0.222434
2079.000000	0.223046
2080.000000	0.222759
2081.000000	0.223057
2082.000000	0.223290
2083.000000	0.223797
2084.000000	0.224847
2085.000000	0.225798
2086.000000	0.226666
2087.000000	0.227590
2088.000000	0.227803
2089.000000	0.228387
2090.000000	0.229143
2091.000000	0.229873
2092.000000	0.230835
2093.000000	0.232684
2094.000000	0.233506
2095.000000	0.234109
2096.000000	0.234646
2097.000000	0.234396
2098.000000	0.234192
2099.000000	0.235130
2100.000000	0.235339
2101.000000	0.235982
2102.000000	0.236957
2103.000000	0.237515
2104.000000	0.238549
2105.000000	0.239451
2106.000000	0.240625
2107.000000	0.241251
2108.000000	0.241433
2109.000000	0.242003
2110.000000	0.242124
2111.000000	0.242706
2112.000000	0.243677
2113.000000	0.244754
2114.000000	0.245258
2115.000000	0.245683
2116.000000	0.245763
2117.000000	0.245111
2118.000000	0.244230
2119.000000	0.244028
2120.000000	0.244109
2121.000000	0.244388
2122.000000	0.244749
2123.000000	0.245495
2124.000000	0.246392
2125.000000	0.247741
2126.000000	0.248636
2127.000000	0.249852
2128.000000	0.250605
2129.000000	0.250998
2130.000000	0.250574
2131.000000	0.250319
2132.000000	0.249934
2133.000000	0.249313
2134.000000	0.249374
2135.000000	0.249494
2136.000000	0.249860
2137.000000	0.250399
2138.000000	0.251391
2139.000000	0.251902
2140.000000	0.252809
2141.000000	0.252769
2142.000000	0.251849
2143.000000	0.251115
2144.000000	0.249541
2145.000000	0.249050
2146.000000	0.249292
2147.000000	0.249648
2148.000000	0.250385
2149.000000	0.251612
2150.000000	0.251864
2151.000000	0.251782
2152.000000	0.251335
2153.000000	0.250825
2154.000000	0.250880
2155.000000	0.251283
2156.000000	0.251907
2157.000000	0.253129
2158.000000	0.253976
2159.000000	0.255149
2160.000000	0.255682
2161.000000	0.255769
2162.000000	0.255984
2163.000000	0.255927
2164.000000	0.255629
2165.000000	0.254921
2166.000000	0.254773
2167.000000	0.254142
2168.000000	0.254287
2169.000000	0.254592
2170.000000	0.254077
2171.000000	0.253997
2172.000000	0.253719
2173.000000	0.253466
2174.000000	0.253323
2175.000000	0.253421
2176.000000	0.253139
2177.000000	0.253790
2178.000000	0.255883
2179.000000	0.256928
2180.000000	0.258478
2181.000000	0.259004
2182.000000	0.258055
2183.000000	0.256472
2184.000000	0.255517
2185.000000	0.254677
2186.000000	0.253616
2187.000000	0.253554
2188.000000	0.253082
2189.000000	0.252499
2190.000000	0.254594
2191.000000	0.256684
2192.000000	0.257651
2193.000000	0.259677
2194.000000	0.258846
2195.000000	0.254580
2196.000000	0.252701
2197.000000	0.249164
2198.000000	0.248219
2199.000000	0.249682
2200.000000	0.250779
2201.000000	0.254778
2202.000000	0.256634
2203.000000	0.257083
2204.000000	0.258277
2205.000000	0.259201
2206.000000	0.256738
2207.000000	0.255882
2208.000000	0.257634
2209.000000	0.257169
2210.000000	0.257680
2211.000000	0.258830
2212.000000	0.257595
2213.000000	0.256515
2214.000000	0.254101
2215.000000	0.253553
2216.000000	0.253398
2217.000000	0.253094
2218.000000	0.254454
2219.000000	0.254564
2220.000000	0.252751
2221.000000	0.253323
2222.000000	0.255123
2223.000000	0.256017
2224.000000	0.258439
2225.000000	0.259009
2226.000000	0.257412
2227.000000	0.256713
2228.000000	0.255049
2229.000000	0.254470
2230.000000	0.254431
2231.000000	0.254028
2232.000000	0.255835
2233.000000	0.256612
2234.000000	0.257852
2235.000000	0.259020
2236.000000	0.259130
2237.000000	0.258372
2238.000000	0.257448
2239.000000	0.254788
2240.000000	0.254914
2241.000000	0.255928
2242.000000	0.256646
2243.000000	0.259625
2244.000000	0.260488
2245.000000	0.259606
2246.000000	0.259400
2247.000000	0.259009
2248.000000	0.258965
2249.000000	0.259026
2250.000000	0.259067
2251.000000	0.259502
2252.000000	0.258909
2253.000000	0.259618
2254.000000	0.260177
2255.000000	0.260718
2256.000000	0.262144
2257.000000	0.260652
2258.000000	0.259214
2259.000000	0.257577
2260.000000	0.254266
2261.000000	0.254277
2262.000000	0.256856
2263.000000	0.257682
2264.000000	0.261069
2265.000000	0.260631
2266.000000	0.256547
2267.000000	0.254553
2268.000000	0.250737
2269.000000	0.249628
2270.000000	0.251561
2271.000000	0.251965
2272.000000	0.252798
2273.000000	0.253582
2274.000000	0.253553
2275.000000	0.253299
2276.000000	0.253494
2277.000000	0.253069
2278.000000	0.250876
2279.000000	0.251604
2280.000000	0.254105
2281.000000	0.255059
2282.000000	0.256931
2283.000000	0.255898
2284.000000	0.250088
2285.000000	0.245385
2286.000000	0.241140
2287.000000	0.237020
2288.000000	0.237207
2289.000000	0.239132
2290.000000	0.239925
2291.000000	0.242601
2292.000000	0.242979
2293.000000	0.241750
2294.000000	0.241402
2295.000000	0.239750
2296.000000	0.239327
2297.000000	0.240903
2298.000000	0.240477
2299.000000	0.239876
2300.000000	0.239162
2301.000000	0.236913
2302.000000	0.235319
2303.000000	0.233858
2304.000000	0.233028
2305.000000	0.232355
2306.000000	0.232084
2307.000000	0.232798
2308.000000	0.232479
2309.000000	0.232592
2310.000000	0.232038
2311.000000	0.229914
2312.000000	0.227817
2313.000000	0.225995
2314.000000	0.222689
2315.000000	0.221103
2316.000000	0.221623
2317.000000	0.221803
2318.000000	0.223123
2319.000000	0.223672
2320.000000	0.223777
2321.000000	0.224111
2322.000000	0.223427
2323.000000	0.223899
2324.000000	0.224879
2325.000000	0.222833
2326.000000	0.221162
2327.000000	0.221377
2328.000000	0.218975
2329.000000	0.218364
2330.000000	0.220806
2331.000000	0.220711
2332.000000	0.219966
2333.000000	0.220337
2334.000000	0.218458
2335.000000	0.216776
2336.000000	0.214728
2337.000000	0.212968
2338.000000	0.210386
2339.000000	0.208266
2340.000000	0.204993
2341.000000	0.204140
2342.000000	0.205400
2343.000000	0.205957
2344.000000	0.209669
2345.000000	0.209802
2346.000000	0.207728
2347.000000	0.204816
2348.000000	0.199226
2349.000000	0.194780
2350.000000	0.192988
2351.000000	0.191476
2352.000000	0.193034
2353.000000	0.192991
2354.000000	0.193032
2355.000000	0.192423
2356.000000	0.189328
2357.000000	0.191185
2358.000000	0.192027
2359.000000	0.193593
2360.000000	0.198208
2361.000000	0.200245
2362.000000	0.198731
2363.000000	0.194550
2364.000000	0.190076
2365.000000	0.184417
2366.000000	0.179589
2367.000000	0.178015
2368.000000	0.177719
2369.000000	0.176738
2370.000000	0.179516
2371.000000	0.179518
2372.000000	0.175018
2373.000000	0.175082
2374.000000	0.173100
2375.000000	0.171183
2376.000000	0.172545
2377.000000	0.171798
2378.000000	0.168405
2379.000000	0.165779
2380.000000	0.164736
2381.000000	0.160457
2382.000000	0.159374
2383.000000	0.164354
2384.000000	0.167047
2385.000000	0.169885
2386.000000	0.170039
2387.000000	0.166376
2388.000000	0.167716
2389.000000	0.166005
2390.000000	0.164636
2391.000000	0.169155
2392.000000	0.164431
2393.000000	0.161439
2394.000000	0.167563
2395.000000	0.167239
2396.000000	0.167460
2397.000000	0.164794
2398.000000	0.156084
2399.000000	0.150938
2400.000000	0.143662
2401.000000	0.141541
2402.000000	0.145685
2403.000000	0.147952
2404.000000	0.150852
2405.000000	0.150828
2406.000000	0.146404
2407.000000	0.142155
2408.000000	0.133034
2409.000000	0.133259
2410.000000	0.141254
2411.000000	0.135356
2412.000000	0.134425
2413.000000	0.134157
2414.000000	0.126601
2415.000000	0.124656
2416.000000	0.130628
2417.000000	0.141651
2418.000000	0.151997
2419.000000	0.168253
2420.000000	0.177786
2421.000000	0.174855
2422.000000	0.168759
2423.000000	0.155334
2424.000000	0.144917
2425.000000	0.146265
2426.000000	0.153100
2427.000000	0.153055
2428.000000	0.158990
2429.000000	0.164081
2430.000000	0.150893
2431.000000	0.156256
2432.000000	0.172785
2433.000000	0.171287
2434.000000	0.171208
2435.000000	0.163579
2436.000000	0.149647
2437.000000	0.154200
2438.000000	0.159028
2439.000000	0.164637
2440.000000	0.173820
2441.000000	0.166945
2442.000000	0.161793
2443.000000	0.172351
2444.000000	0.167983
2445.000000	0.156179
2446.000000	0.154139
2447.000000	0.144181
2448.000000	0.141900
2449.000000	0.143067
2450.000000	0.143930
2451.000000	0.152360
2452.000000	0.140788
2453.000000	0.135003
2454.000000	0.142729
2455.000000	0.133011
2456.000000	0.134338
2457.000000	0.133629
2458.000000	0.123818
2459.000000	0.126521
2460.000000	0.131392
2461.000000	0.153853
2462.000000	0.163740
2463.000000	0.147302
2464.000000	0.145214
2465.000000	0.149793
2466.000000	0.153429
2467.000000	0.178767
2468.000000	0.198854
2469.000000	0.195937
2470.000000	0.203473
2471.000000	0.206576
2472.000000	0.193509
2473.000000	0.172636
2474.000000	0.139242
2475.000000	0.122583
2476.000000	0.116104
2477.000000	0.106760
2478.000000	0.119955
2479.000000	0.128267
2480.000000	0.123989
2481.000000	0.160895
2482.000000	0.208927
2483.000000	0.226906
2484.000000	0.241208
2485.000000	0.231205
2486.000000	0.183633
2487.000000	0.128197
2488.000000	0.087378
2489.000000	0.066622
2490.000000	0.041101
2491.000000	0.074911
2492.000000	0.078281
2493.000000	0.035218
2494.000000	0.030671
2495.000000	0.046774
2496.000000	0.049213
2497.000000	0.072207
2498.000000	0.098525
2499.000000	0.103540
2500.000000	0.134369
