# Wavelength	SM1200H-10_FV7-90_00001.asd.rts.txt
350.000000	0.211894
351.000000	0.213469
352.000000	0.222342
353.000000	0.223641
354.000000	0.216503
355.000000	0.218611
356.000000	0.218629
357.000000	0.216255
358.000000	0.214725
359.000000	0.216257
360.000000	0.218557
361.000000	0.218449
362.000000	0.217043
363.000000	0.216327
364.000000	0.217432
365.000000	0.222441
366.000000	0.223520
367.000000	0.220400
368.000000	0.219744
369.000000	0.221080
370.000000	0.222305
371.000000	0.221298
372.000000	0.221951
373.000000	0.222580
374.000000	0.222604
375.000000	0.224070
376.000000	0.225745
377.000000	0.226903
378.000000	0.227510
379.000000	0.227755
380.000000	0.228095
381.000000	0.229575
382.000000	0.229744
383.000000	0.229768
384.000000	0.230554
385.000000	0.230118
386.000000	0.230078
387.000000	0.230498
388.000000	0.229207
389.000000	0.230102
390.000000	0.231867
391.000000	0.231416
392.000000	0.231625
393.000000	0.232201
394.000000	0.232548
395.000000	0.232492
396.000000	0.232965
397.000000	0.234125
398.000000	0.235391
399.000000	0.235939
400.000000	0.236008
401.000000	0.236208
402.000000	0.236805
403.000000	0.237567
404.000000	0.238240
405.000000	0.238102
406.000000	0.238263
407.000000	0.238982
408.000000	0.238821
409.000000	0.239171
410.000000	0.239921
411.000000	0.240095
412.000000	0.240058
413.000000	0.240112
414.000000	0.240489
415.000000	0.240904
416.000000	0.241205
417.000000	0.241411
418.000000	0.241895
419.000000	0.242295
420.000000	0.242586
421.000000	0.243012
422.000000	0.243302
423.000000	0.243542
424.000000	0.243961
425.000000	0.244235
426.000000	0.244395
427.000000	0.244523
428.000000	0.244778
429.000000	0.245071
430.000000	0.245325
431.000000	0.245431
432.000000	0.245686
433.000000	0.245990
434.000000	0.246174
435.000000	0.246342
436.000000	0.246495
437.000000	0.246635
438.000000	0.246988
439.000000	0.247307
440.000000	0.247521
441.000000	0.247542
442.000000	0.247643
443.000000	0.247801
444.000000	0.247951
445.000000	0.248243
446.000000	0.248605
447.000000	0.248768
448.000000	0.249080
449.000000	0.249412
450.000000	0.249662
451.000000	0.249880
452.000000	0.250183
453.000000	0.250482
454.000000	0.250673
455.000000	0.250780
456.000000	0.251008
457.000000	0.251432
458.000000	0.251776
459.000000	0.251974
460.000000	0.252112
461.000000	0.252442
462.000000	0.252828
463.000000	0.253029
464.000000	0.253132
465.000000	0.253258
466.000000	0.253419
467.000000	0.253689
468.000000	0.253962
469.000000	0.254101
470.000000	0.254177
471.000000	0.254363
472.000000	0.254540
473.000000	0.254691
474.000000	0.255062
475.000000	0.255268
476.000000	0.255386
477.000000	0.255648
478.000000	0.255837
479.000000	0.256081
480.000000	0.256283
481.000000	0.256449
482.000000	0.256733
483.000000	0.257031
484.000000	0.257349
485.000000	0.257604
486.000000	0.257920
487.000000	0.258220
488.000000	0.258385
489.000000	0.258509
490.000000	0.258813
491.000000	0.259051
492.000000	0.259305
493.000000	0.259583
494.000000	0.259855
495.000000	0.260129
496.000000	0.260379
497.000000	0.260647
498.000000	0.260908
499.000000	0.261218
500.000000	0.261551
501.000000	0.261784
502.000000	0.261995
503.000000	0.262259
504.000000	0.262467
505.000000	0.262698
506.000000	0.263020
507.000000	0.263248
508.000000	0.263495
509.000000	0.263782
510.000000	0.264073
511.000000	0.264310
512.000000	0.264556
513.000000	0.264922
514.000000	0.265217
515.000000	0.265512
516.000000	0.265877
517.000000	0.266183
518.000000	0.266493
519.000000	0.266783
520.000000	0.267084
521.000000	0.267357
522.000000	0.267601
523.000000	0.267851
524.000000	0.268098
525.000000	0.268366
526.000000	0.268745
527.000000	0.269040
528.000000	0.269323
529.000000	0.269724
530.000000	0.269949
531.000000	0.270199
532.000000	0.270509
533.000000	0.270779
534.000000	0.271012
535.000000	0.271238
536.000000	0.271572
537.000000	0.271852
538.000000	0.272079
539.000000	0.272309
540.000000	0.272559
541.000000	0.272807
542.000000	0.273058
543.000000	0.273252
544.000000	0.273485
545.000000	0.273742
546.000000	0.274038
547.000000	0.274334
548.000000	0.274635
549.000000	0.274884
550.000000	0.275192
551.000000	0.275556
552.000000	0.275885
553.000000	0.276165
554.000000	0.276440
555.000000	0.276754
556.000000	0.277129
557.000000	0.277425
558.000000	0.277726
559.000000	0.278040
560.000000	0.278318
561.000000	0.278617
562.000000	0.278893
563.000000	0.279178
564.000000	0.279506
565.000000	0.279805
566.000000	0.280165
567.000000	0.280526
568.000000	0.280841
569.000000	0.281192
570.000000	0.281542
571.000000	0.281863
572.000000	0.282154
573.000000	0.282449
574.000000	0.282726
575.000000	0.283003
576.000000	0.283324
577.000000	0.283634
578.000000	0.283940
579.000000	0.284193
580.000000	0.284479
581.000000	0.284818
582.000000	0.285120
583.000000	0.285432
584.000000	0.285752
585.000000	0.286049
586.000000	0.286283
587.000000	0.286503
588.000000	0.286771
589.000000	0.287062
590.000000	0.287359
591.000000	0.287648
592.000000	0.287936
593.000000	0.288237
594.000000	0.288514
595.000000	0.288674
596.000000	0.288840
597.000000	0.289062
598.000000	0.289258
599.000000	0.289421
600.000000	0.289610
601.000000	0.289808
602.000000	0.290080
603.000000	0.290326
604.000000	0.290533
605.000000	0.290817
606.000000	0.291035
607.000000	0.291206
608.000000	0.291439
609.000000	0.291645
610.000000	0.291809
611.000000	0.291936
612.000000	0.292015
613.000000	0.292063
614.000000	0.292128
615.000000	0.292177
616.000000	0.292234
617.000000	0.292284
618.000000	0.292369
619.000000	0.292534
620.000000	0.292716
621.000000	0.292872
622.000000	0.293040
623.000000	0.293223
624.000000	0.293418
625.000000	0.293642
626.000000	0.293836
627.000000	0.293982
628.000000	0.294123
629.000000	0.294274
630.000000	0.294376
631.000000	0.294610
632.000000	0.294848
633.000000	0.295079
634.000000	0.295286
635.000000	0.295401
636.000000	0.295508
637.000000	0.295638
638.000000	0.295760
639.000000	0.295865
640.000000	0.295998
641.000000	0.296080
642.000000	0.296192
643.000000	0.296316
644.000000	0.296419
645.000000	0.296533
646.000000	0.296669
647.000000	0.296803
648.000000	0.296940
649.000000	0.297098
650.000000	0.297257
651.000000	0.297411
652.000000	0.297523
653.000000	0.297648
654.000000	0.297795
655.000000	0.297973
656.000000	0.298190
657.000000	0.298387
658.000000	0.298549
659.000000	0.298736
660.000000	0.298949
661.000000	0.299136
662.000000	0.299295
663.000000	0.299468
664.000000	0.299622
665.000000	0.299752
666.000000	0.299922
667.000000	0.300152
668.000000	0.300359
669.000000	0.300559
670.000000	0.300763
671.000000	0.300938
672.000000	0.301061
673.000000	0.301145
674.000000	0.301254
675.000000	0.301309
676.000000	0.301349
677.000000	0.301460
678.000000	0.301616
679.000000	0.301785
680.000000	0.301957
681.000000	0.302136
682.000000	0.302364
683.000000	0.302562
684.000000	0.302756
685.000000	0.302918
686.000000	0.303065
687.000000	0.303177
688.000000	0.303288
689.000000	0.303398
690.000000	0.303532
691.000000	0.303660
692.000000	0.303789
693.000000	0.303979
694.000000	0.304182
695.000000	0.304388
696.000000	0.304567
697.000000	0.304692
698.000000	0.304847
699.000000	0.305023
700.000000	0.305194
701.000000	0.305315
702.000000	0.305474
703.000000	0.305672
704.000000	0.305848
705.000000	0.305994
706.000000	0.306084
707.000000	0.306185
708.000000	0.306317
709.000000	0.306447
710.000000	0.306572
711.000000	0.306755
712.000000	0.306941
713.000000	0.307129
714.000000	0.307331
715.000000	0.307512
716.000000	0.307702
717.000000	0.307933
718.000000	0.308144
719.000000	0.308302
720.000000	0.308409
721.000000	0.308501
722.000000	0.308525
723.000000	0.308516
724.000000	0.308442
725.000000	0.308345
726.000000	0.308361
727.000000	0.308487
728.000000	0.308580
729.000000	0.308698
730.000000	0.308847
731.000000	0.309024
732.000000	0.309149
733.000000	0.309239
734.000000	0.309314
735.000000	0.309437
736.000000	0.309674
737.000000	0.309836
738.000000	0.309894
739.000000	0.309996
740.000000	0.310088
741.000000	0.310241
742.000000	0.310400
743.000000	0.310506
744.000000	0.310586
745.000000	0.310623
746.000000	0.310659
747.000000	0.310660
748.000000	0.310742
749.000000	0.310830
750.000000	0.310849
751.000000	0.310929
752.000000	0.310996
753.000000	0.311065
754.000000	0.311203
755.000000	0.311309
756.000000	0.311373
757.000000	0.311370
758.000000	0.311350
759.000000	0.311391
760.000000	0.311457
761.000000	0.311574
762.000000	0.311657
763.000000	0.311688
764.000000	0.311772
765.000000	0.311837
766.000000	0.311888
767.000000	0.311940
768.000000	0.312050
769.000000	0.312156
770.000000	0.312220
771.000000	0.312228
772.000000	0.312273
773.000000	0.312312
774.000000	0.312378
775.000000	0.312400
776.000000	0.312427
777.000000	0.312486
778.000000	0.312571
779.000000	0.312704
780.000000	0.312853
781.000000	0.312907
782.000000	0.312984
783.000000	0.313106
784.000000	0.313096
785.000000	0.313026
786.000000	0.312976
787.000000	0.312949
788.000000	0.312824
789.000000	0.312671
790.000000	0.312546
791.000000	0.312545
792.000000	0.312672
793.000000	0.312849
794.000000	0.313000
795.000000	0.313081
796.000000	0.313098
797.000000	0.313097
798.000000	0.313183
799.000000	0.313224
800.000000	0.313232
801.000000	0.313257
802.000000	0.313257
803.000000	0.313236
804.000000	0.313226
805.000000	0.313170
806.000000	0.313133
807.000000	0.313170
808.000000	0.313181
809.000000	0.313236
810.000000	0.313311
811.000000	0.313362
812.000000	0.313384
813.000000	0.313369
814.000000	0.313319
815.000000	0.313273
816.000000	0.313246
817.000000	0.313289
818.000000	0.313337
819.000000	0.313323
820.000000	0.313286
821.000000	0.313190
822.000000	0.313026
823.000000	0.312963
824.000000	0.312966
825.000000	0.313040
826.000000	0.313097
827.000000	0.313125
828.000000	0.313155
829.000000	0.313121
830.000000	0.313055
831.000000	0.313050
832.000000	0.313053
833.000000	0.313086
834.000000	0.313076
835.000000	0.312997
836.000000	0.312842
837.000000	0.312754
838.000000	0.312763
839.000000	0.312753
840.000000	0.312710
841.000000	0.312656
842.000000	0.312581
843.000000	0.312550
844.000000	0.312509
845.000000	0.312419
846.000000	0.312337
847.000000	0.312257
848.000000	0.312180
849.000000	0.312150
850.000000	0.312211
851.000000	0.312284
852.000000	0.312357
853.000000	0.312414
854.000000	0.312289
855.000000	0.312132
856.000000	0.311980
857.000000	0.311746
858.000000	0.311616
859.000000	0.311561
860.000000	0.311436
861.000000	0.311360
862.000000	0.311311
863.000000	0.311154
864.000000	0.311001
865.000000	0.310877
866.000000	0.310815
867.000000	0.310796
868.000000	0.310762
869.000000	0.310699
870.000000	0.310710
871.000000	0.310648
872.000000	0.310466
873.000000	0.310153
874.000000	0.309955
875.000000	0.309838
876.000000	0.309733
877.000000	0.309489
878.000000	0.309161
879.000000	0.308929
880.000000	0.308747
881.000000	0.308644
882.000000	0.308469
883.000000	0.308253
884.000000	0.308041
885.000000	0.307895
886.000000	0.307755
887.000000	0.307599
888.000000	0.307414
889.000000	0.307227
890.000000	0.306995
891.000000	0.306869
892.000000	0.306757
893.000000	0.306486
894.000000	0.306155
895.000000	0.305900
896.000000	0.305770
897.000000	0.305727
898.000000	0.305688
899.000000	0.305571
900.000000	0.305351
901.000000	0.305050
902.000000	0.304880
903.000000	0.304637
904.000000	0.304393
905.000000	0.304177
906.000000	0.304089
907.000000	0.303961
908.000000	0.303761
909.000000	0.303433
910.000000	0.303067
911.000000	0.302682
912.000000	0.302333
913.000000	0.302198
914.000000	0.302123
915.000000	0.302048
916.000000	0.301816
917.000000	0.301438
918.000000	0.301253
919.000000	0.301358
920.000000	0.301193
921.000000	0.300971
922.000000	0.300831
923.000000	0.300816
924.000000	0.300605
925.000000	0.300344
926.000000	0.300169
927.000000	0.299992
928.000000	0.299730
929.000000	0.299318
930.000000	0.298770
931.000000	0.298342
932.000000	0.298043
933.000000	0.297830
934.000000	0.297513
935.000000	0.297218
936.000000	0.297017
937.000000	0.296843
938.000000	0.296705
939.000000	0.296509
940.000000	0.296235
941.000000	0.296059
942.000000	0.295795
943.000000	0.295503
944.000000	0.295148
945.000000	0.294892
946.000000	0.294643
947.000000	0.294483
948.000000	0.294423
949.000000	0.294294
950.000000	0.294076
951.000000	0.293757
952.000000	0.293450
953.000000	0.293257
954.000000	0.292963
955.000000	0.292446
956.000000	0.292256
957.000000	0.292154
958.000000	0.292033
959.000000	0.291940
960.000000	0.291687
961.000000	0.291405
962.000000	0.291171
963.000000	0.291022
964.000000	0.290823
965.000000	0.290639
966.000000	0.290451
967.000000	0.290400
968.000000	0.290210
969.000000	0.289877
970.000000	0.289646
971.000000	0.289404
972.000000	0.289145
973.000000	0.288844
974.000000	0.288632
975.000000	0.288370
976.000000	0.288044
977.000000	0.287658
978.000000	0.287193
979.000000	0.287083
980.000000	0.286980
981.000000	0.286725
982.000000	0.286520
983.000000	0.286328
984.000000	0.286195
985.000000	0.286108
986.000000	0.285814
987.000000	0.285563
988.000000	0.285427
989.000000	0.285262
990.000000	0.284994
991.000000	0.284755
992.000000	0.284703
993.000000	0.284479
994.000000	0.284206
995.000000	0.284049
996.000000	0.283807
997.000000	0.283577
998.000000	0.283336
999.000000	0.283178
1000.000000	0.283139
1001.000000	0.283594
1002.000000	0.283333
1003.000000	0.282726
1004.000000	0.282347
1005.000000	0.281963
1006.000000	0.281650
1007.000000	0.281438
1008.000000	0.281301
1009.000000	0.281550
1010.000000	0.281658
1011.000000	0.281846
1012.000000	0.282223
1013.000000	0.281780
1014.000000	0.281360
1015.000000	0.280955
1016.000000	0.280389
1017.000000	0.280358
1018.000000	0.280427
1019.000000	0.280405
1020.000000	0.280732
1021.000000	0.280610
1022.000000	0.280462
1023.000000	0.280338
1024.000000	0.279896
1025.000000	0.279753
1026.000000	0.279860
1027.000000	0.279763
1028.000000	0.279893
1029.000000	0.280308
1030.000000	0.280105
1031.000000	0.279812
1032.000000	0.279969
1033.000000	0.280042
1034.000000	0.280191
1035.000000	0.280745
1036.000000	0.280768
1037.000000	0.280367
1038.000000	0.280274
1039.000000	0.280218
1040.000000	0.280265
1041.000000	0.280152
1042.000000	0.280159
1043.000000	0.280167
1044.000000	0.279981
1045.000000	0.279965
1046.000000	0.280025
1047.000000	0.280190
1048.000000	0.280273
1049.000000	0.280387
1050.000000	0.280764
1051.000000	0.280872
1052.000000	0.280553
1053.000000	0.280585
1054.000000	0.281085
1055.000000	0.281334
1056.000000	0.281612
1057.000000	0.281866
1058.000000	0.281858
1059.000000	0.281693
1060.000000	0.281916
1061.000000	0.282273
1062.000000	0.282627
1063.000000	0.282910
1064.000000	0.283088
1065.000000	0.282922
1066.000000	0.283120
1067.000000	0.283434
1068.000000	0.283695
1069.000000	0.284075
1070.000000	0.284382
1071.000000	0.284722
1072.000000	0.284896
1073.000000	0.284956
1074.000000	0.285190
1075.000000	0.285341
1076.000000	0.285667
1077.000000	0.285927
1078.000000	0.286044
1079.000000	0.286167
1080.000000	0.286081
1081.000000	0.286196
1082.000000	0.286508
1083.000000	0.286788
1084.000000	0.287182
1085.000000	0.287465
1086.000000	0.287759
1087.000000	0.287979
1088.000000	0.287877
1089.000000	0.288042
1090.000000	0.288433
1091.000000	0.288513
1092.000000	0.288680
1093.000000	0.289132
1094.000000	0.289304
1095.000000	0.289179
1096.000000	0.289387
1097.000000	0.289665
1098.000000	0.289968
1099.000000	0.290431
1100.000000	0.290747
1101.000000	0.290958
1102.000000	0.291164
1103.000000	0.291187
1104.000000	0.291433
1105.000000	0.291868
1106.000000	0.292156
1107.000000	0.292358
1108.000000	0.292637
1109.000000	0.293024
1110.000000	0.293228
1111.000000	0.293445
1112.000000	0.293731
1113.000000	0.294018
1114.000000	0.294160
1115.000000	0.294453
1116.000000	0.295020
1117.000000	0.295255
1118.000000	0.295342
1119.000000	0.295394
1120.000000	0.295254
1121.000000	0.295219
1122.000000	0.295205
1123.000000	0.295466
1124.000000	0.295740
1125.000000	0.295936
1126.000000	0.296087
1127.000000	0.296260
1128.000000	0.296407
1129.000000	0.296475
1130.000000	0.296661
1131.000000	0.297028
1132.000000	0.297122
1133.000000	0.297111
1134.000000	0.297230
1135.000000	0.297239
1136.000000	0.297304
1137.000000	0.297520
1138.000000	0.297566
1139.000000	0.297564
1140.000000	0.297649
1141.000000	0.297579
1142.000000	0.297699
1143.000000	0.297967
1144.000000	0.298210
1145.000000	0.298307
1146.000000	0.298448
1147.000000	0.298585
1148.000000	0.298548
1149.000000	0.298627
1150.000000	0.298863
1151.000000	0.298950
1152.000000	0.298871
1153.000000	0.298933
1154.000000	0.298936
1155.000000	0.299020
1156.000000	0.299276
1157.000000	0.299373
1158.000000	0.299355
1159.000000	0.299403
1160.000000	0.299424
1161.000000	0.299396
1162.000000	0.299408
1163.000000	0.299549
1164.000000	0.299560
1165.000000	0.299534
1166.000000	0.299588
1167.000000	0.299674
1168.000000	0.299672
1169.000000	0.299686
1170.000000	0.299699
1171.000000	0.299719
1172.000000	0.299736
1173.000000	0.299709
1174.000000	0.299699
1175.000000	0.299649
1176.000000	0.299604
1177.000000	0.299640
1178.000000	0.299659
1179.000000	0.299676
1180.000000	0.299634
1181.000000	0.299648
1182.000000	0.299663
1183.000000	0.299645
1184.000000	0.299672
1185.000000	0.299736
1186.000000	0.299825
1187.000000	0.299917
1188.000000	0.300091
1189.000000	0.300137
1190.000000	0.300172
1191.000000	0.300203
1192.000000	0.300254
1193.000000	0.300372
1194.000000	0.300425
1195.000000	0.300463
1196.000000	0.300466
1197.000000	0.300449
1198.000000	0.300402
1199.000000	0.300390
1200.000000	0.300389
1201.000000	0.300310
1202.000000	0.300354
1203.000000	0.300383
1204.000000	0.300331
1205.000000	0.300398
1206.000000	0.300363
1207.000000	0.300352
1208.000000	0.300324
1209.000000	0.300333
1210.000000	0.300308
1211.000000	0.300293
1212.000000	0.300229
1213.000000	0.300138
1214.000000	0.300115
1215.000000	0.300042
1216.000000	0.300010
1217.000000	0.300054
1218.000000	0.300038
1219.000000	0.299975
1220.000000	0.300053
1221.000000	0.300168
1222.000000	0.300157
1223.000000	0.300212
1224.000000	0.300288
1225.000000	0.300250
1226.000000	0.300272
1227.000000	0.300290
1228.000000	0.300339
1229.000000	0.300326
1230.000000	0.300247
1231.000000	0.300194
1232.000000	0.300217
1233.000000	0.300316
1234.000000	0.300523
1235.000000	0.300582
1236.000000	0.300493
1237.000000	0.300516
1238.000000	0.300475
1239.000000	0.300408
1240.000000	0.300376
1241.000000	0.300335
1242.000000	0.300241
1243.000000	0.300094
1244.000000	0.300007
1245.000000	0.300047
1246.000000	0.299984
1247.000000	0.299957
1248.000000	0.300008
1249.000000	0.300029
1250.000000	0.299978
1251.000000	0.299951
1252.000000	0.299903
1253.000000	0.299838
1254.000000	0.299737
1255.000000	0.299611
1256.000000	0.299539
1257.000000	0.299436
1258.000000	0.299421
1259.000000	0.299441
1260.000000	0.299518
1261.000000	0.299634
1262.000000	0.299673
1263.000000	0.299746
1264.000000	0.299720
1265.000000	0.299758
1266.000000	0.299742
1267.000000	0.299751
1268.000000	0.299880
1269.000000	0.299829
1270.000000	0.299867
1271.000000	0.300047
1272.000000	0.300076
1273.000000	0.300071
1274.000000	0.299998
1275.000000	0.299900
1276.000000	0.299683
1277.000000	0.299677
1278.000000	0.299667
1279.000000	0.299664
1280.000000	0.299700
1281.000000	0.299628
1282.000000	0.299541
1283.000000	0.299581
1284.000000	0.299538
1285.000000	0.299568
1286.000000	0.299689
1287.000000	0.299775
1288.000000	0.299790
1289.000000	0.299764
1290.000000	0.299664
1291.000000	0.299566
1292.000000	0.299568
1293.000000	0.299579
1294.000000	0.299573
1295.000000	0.299641
1296.000000	0.299592
1297.000000	0.299465
1298.000000	0.299443
1299.000000	0.299366
1300.000000	0.299397
1301.000000	0.299479
1302.000000	0.299422
1303.000000	0.299410
1304.000000	0.299335
1305.000000	0.299218
1306.000000	0.299179
1307.000000	0.299221
1308.000000	0.299259
1309.000000	0.299321
1310.000000	0.299352
1311.000000	0.299398
1312.000000	0.299412
1313.000000	0.299457
1314.000000	0.299536
1315.000000	0.299568
1316.000000	0.299623
1317.000000	0.299647
1318.000000	0.299651
1319.000000	0.299699
1320.000000	0.299855
1321.000000	0.299949
1322.000000	0.299930
1323.000000	0.299909
1324.000000	0.299849
1325.000000	0.299749
1326.000000	0.299721
1327.000000	0.299688
1328.000000	0.299678
1329.000000	0.299627
1330.000000	0.299575
1331.000000	0.299566
1332.000000	0.299642
1333.000000	0.299619
1334.000000	0.299634
1335.000000	0.299703
1336.000000	0.299699
1337.000000	0.299713
1338.000000	0.299764
1339.000000	0.299778
1340.000000	0.299642
1341.000000	0.299578
1342.000000	0.299540
1343.000000	0.299424
1344.000000	0.299403
1345.000000	0.299448
1346.000000	0.299457
1347.000000	0.299352
1348.000000	0.299327
1349.000000	0.299231
1350.000000	0.299150
1351.000000	0.299123
1352.000000	0.298994
1353.000000	0.298915
1354.000000	0.298930
1355.000000	0.298907
1356.000000	0.299030
1357.000000	0.299022
1358.000000	0.298970
1359.000000	0.299019
1360.000000	0.299006
1361.000000	0.299001
1362.000000	0.298977
1363.000000	0.298869
1364.000000	0.298837
1365.000000	0.298805
1366.000000	0.298767
1367.000000	0.298750
1368.000000	0.298750
1369.000000	0.298773
1370.000000	0.298702
1371.000000	0.298554
1372.000000	0.298395
1373.000000	0.298281
1374.000000	0.298229
1375.000000	0.298185
1376.000000	0.298238
1377.000000	0.298283
1378.000000	0.298232
1379.000000	0.298141
1380.000000	0.298081
1381.000000	0.297969
1382.000000	0.297717
1383.000000	0.297470
1384.000000	0.297159
1385.000000	0.296831
1386.000000	0.296667
1387.000000	0.296531
1388.000000	0.296417
1389.000000	0.296344
1390.000000	0.296262
1391.000000	0.296182
1392.000000	0.296117
1393.000000	0.296074
1394.000000	0.296085
1395.000000	0.296097
1396.000000	0.296144
1397.000000	0.296177
1398.000000	0.296181
1399.000000	0.296140
1400.000000	0.296026
1401.000000	0.295953
1402.000000	0.295898
1403.000000	0.295881
1404.000000	0.295899
1405.000000	0.295926
1406.000000	0.295917
1407.000000	0.295883
1408.000000	0.295870
1409.000000	0.295911
1410.000000	0.296016
1411.000000	0.296118
1412.000000	0.296164
1413.000000	0.296262
1414.000000	0.296340
1415.000000	0.296396
1416.000000	0.296521
1417.000000	0.296640
1418.000000	0.296673
1419.000000	0.296753
1420.000000	0.296749
1421.000000	0.296837
1422.000000	0.297001
1423.000000	0.297192
1424.000000	0.297290
1425.000000	0.297331
1426.000000	0.297306
1427.000000	0.297288
1428.000000	0.297314
1429.000000	0.297300
1430.000000	0.297256
1431.000000	0.297205
1432.000000	0.297161
1433.000000	0.297136
1434.000000	0.297136
1435.000000	0.297279
1436.000000	0.297307
1437.000000	0.297268
1438.000000	0.297207
1439.000000	0.297107
1440.000000	0.297098
1441.000000	0.297142
1442.000000	0.297209
1443.000000	0.297289
1444.000000	0.297331
1445.000000	0.297314
1446.000000	0.297358
1447.000000	0.297373
1448.000000	0.297324
1449.000000	0.297308
1450.000000	0.297270
1451.000000	0.297225
1452.000000	0.297170
1453.000000	0.297128
1454.000000	0.297048
1455.000000	0.296974
1456.000000	0.297021
1457.000000	0.297086
1458.000000	0.297133
1459.000000	0.297192
1460.000000	0.297203
1461.000000	0.297089
1462.000000	0.297020
1463.000000	0.296991
1464.000000	0.296940
1465.000000	0.297033
1466.000000	0.297145
1467.000000	0.297234
1468.000000	0.297322
1469.000000	0.297422
1470.000000	0.297417
1471.000000	0.297390
1472.000000	0.297415
1473.000000	0.297443
1474.000000	0.297398
1475.000000	0.297366
1476.000000	0.297298
1477.000000	0.297239
1478.000000	0.297245
1479.000000	0.297222
1480.000000	0.297157
1481.000000	0.297122
1482.000000	0.297141
1483.000000	0.297161
1484.000000	0.297200
1485.000000	0.297272
1486.000000	0.297333
1487.000000	0.297396
1488.000000	0.297531
1489.000000	0.297631
1490.000000	0.297562
1491.000000	0.297623
1492.000000	0.297714
1493.000000	0.297769
1494.000000	0.297800
1495.000000	0.297842
1496.000000	0.297868
1497.000000	0.297890
1498.000000	0.297949
1499.000000	0.297983
1500.000000	0.297987
1501.000000	0.297935
1502.000000	0.297921
1503.000000	0.297978
1504.000000	0.297997
1505.000000	0.298006
1506.000000	0.297990
1507.000000	0.297936
1508.000000	0.297949
1509.000000	0.297991
1510.000000	0.298014
1511.000000	0.298023
1512.000000	0.297976
1513.000000	0.297956
1514.000000	0.297966
1515.000000	0.297898
1516.000000	0.297886
1517.000000	0.297806
1518.000000	0.297676
1519.000000	0.297583
1520.000000	0.297538
1521.000000	0.297438
1522.000000	0.297457
1523.000000	0.297596
1524.000000	0.297541
1525.000000	0.297522
1526.000000	0.297507
1527.000000	0.297354
1528.000000	0.297341
1529.000000	0.297417
1530.000000	0.297302
1531.000000	0.297232
1532.000000	0.297196
1533.000000	0.297071
1534.000000	0.297064
1535.000000	0.297114
1536.000000	0.297120
1537.000000	0.297210
1538.000000	0.297238
1539.000000	0.297284
1540.000000	0.297404
1541.000000	0.297471
1542.000000	0.297560
1543.000000	0.297611
1544.000000	0.297619
1545.000000	0.297674
1546.000000	0.297732
1547.000000	0.297822
1548.000000	0.297823
1549.000000	0.297766
1550.000000	0.297772
1551.000000	0.297755
1552.000000	0.297793
1553.000000	0.297823
1554.000000	0.297750
1555.000000	0.297712
1556.000000	0.297708
1557.000000	0.297637
1558.000000	0.297647
1559.000000	0.297683
1560.000000	0.297682
1561.000000	0.297725
1562.000000	0.297745
1563.000000	0.297760
1564.000000	0.297794
1565.000000	0.297845
1566.000000	0.297828
1567.000000	0.297870
1568.000000	0.297937
1569.000000	0.298073
1570.000000	0.298139
1571.000000	0.298199
1572.000000	0.298263
1573.000000	0.298290
1574.000000	0.298308
1575.000000	0.298409
1576.000000	0.298399
1577.000000	0.298287
1578.000000	0.298171
1579.000000	0.298032
1580.000000	0.297923
1581.000000	0.297862
1582.000000	0.297804
1583.000000	0.297790
1584.000000	0.297699
1585.000000	0.297649
1586.000000	0.297586
1587.000000	0.297446
1588.000000	0.297375
1589.000000	0.297372
1590.000000	0.297344
1591.000000	0.297346
1592.000000	0.297386
1593.000000	0.297468
1594.000000	0.297468
1595.000000	0.297532
1596.000000	0.297536
1597.000000	0.297501
1598.000000	0.297438
1599.000000	0.297389
1600.000000	0.297263
1601.000000	0.297101
1602.000000	0.297003
1603.000000	0.296969
1604.000000	0.296847
1605.000000	0.296709
1606.000000	0.296622
1607.000000	0.296562
1608.000000	0.296491
1609.000000	0.296504
1610.000000	0.296474
1611.000000	0.296431
1612.000000	0.296386
1613.000000	0.296446
1614.000000	0.296473
1615.000000	0.296497
1616.000000	0.296554
1617.000000	0.296621
1618.000000	0.296676
1619.000000	0.296740
1620.000000	0.296734
1621.000000	0.296703
1622.000000	0.296745
1623.000000	0.296747
1624.000000	0.296714
1625.000000	0.296584
1626.000000	0.296468
1627.000000	0.296292
1628.000000	0.296235
1629.000000	0.296253
1630.000000	0.296265
1631.000000	0.296277
1632.000000	0.296215
1633.000000	0.296131
1634.000000	0.296076
1635.000000	0.296024
1636.000000	0.295944
1637.000000	0.295903
1638.000000	0.295825
1639.000000	0.295728
1640.000000	0.295665
1641.000000	0.295716
1642.000000	0.295676
1643.000000	0.295654
1644.000000	0.295552
1645.000000	0.295345
1646.000000	0.295186
1647.000000	0.295023
1648.000000	0.294913
1649.000000	0.294941
1650.000000	0.294936
1651.000000	0.295005
1652.000000	0.295007
1653.000000	0.294903
1654.000000	0.294897
1655.000000	0.294825
1656.000000	0.294768
1657.000000	0.294896
1658.000000	0.294857
1659.000000	0.294838
1660.000000	0.294815
1661.000000	0.294604
1662.000000	0.294566
1663.000000	0.294596
1664.000000	0.294564
1665.000000	0.294571
1666.000000	0.294594
1667.000000	0.294501
1668.000000	0.294472
1669.000000	0.294444
1670.000000	0.294450
1671.000000	0.294602
1672.000000	0.294637
1673.000000	0.294664
1674.000000	0.294525
1675.000000	0.294438
1676.000000	0.294399
1677.000000	0.294359
1678.000000	0.294341
1679.000000	0.294374
1680.000000	0.294346
1681.000000	0.294327
1682.000000	0.294358
1683.000000	0.294319
1684.000000	0.294301
1685.000000	0.294393
1686.000000	0.294435
1687.000000	0.294509
1688.000000	0.294523
1689.000000	0.294448
1690.000000	0.294331
1691.000000	0.294294
1692.000000	0.294259
1693.000000	0.294302
1694.000000	0.294367
1695.000000	0.294385
1696.000000	0.294329
1697.000000	0.294279
1698.000000	0.294274
1699.000000	0.294288
1700.000000	0.294359
1701.000000	0.294451
1702.000000	0.294353
1703.000000	0.294302
1704.000000	0.294378
1705.000000	0.294367
1706.000000	0.294356
1707.000000	0.294380
1708.000000	0.294354
1709.000000	0.294281
1710.000000	0.294295
1711.000000	0.294328
1712.000000	0.294373
1713.000000	0.294377
1714.000000	0.294478
1715.000000	0.294497
1716.000000	0.294425
1717.000000	0.294370
1718.000000	0.294258
1719.000000	0.294170
1720.000000	0.294150
1721.000000	0.294070
1722.000000	0.293953
1723.000000	0.293900
1724.000000	0.293908
1725.000000	0.293836
1726.000000	0.293669
1727.000000	0.293572
1728.000000	0.293354
1729.000000	0.293181
1730.000000	0.293213
1731.000000	0.293197
1732.000000	0.293167
1733.000000	0.293201
1734.000000	0.293172
1735.000000	0.293188
1736.000000	0.293184
1737.000000	0.293194
1738.000000	0.293274
1739.000000	0.293288
1740.000000	0.293254
1741.000000	0.293215
1742.000000	0.293170
1743.000000	0.293163
1744.000000	0.293144
1745.000000	0.293082
1746.000000	0.293000
1747.000000	0.292993
1748.000000	0.292882
1749.000000	0.292763
1750.000000	0.292615
1751.000000	0.292446
1752.000000	0.292422
1753.000000	0.292367
1754.000000	0.292324
1755.000000	0.292280
1756.000000	0.292249
1757.000000	0.292187
1758.000000	0.292232
1759.000000	0.292365
1760.000000	0.292463
1761.000000	0.292626
1762.000000	0.292675
1763.000000	0.292610
1764.000000	0.292642
1765.000000	0.292595
1766.000000	0.292667
1767.000000	0.292826
1768.000000	0.292873
1769.000000	0.293031
1770.000000	0.293101
1771.000000	0.293017
1772.000000	0.293002
1773.000000	0.292869
1774.000000	0.292918
1775.000000	0.293165
1776.000000	0.293272
1777.000000	0.293399
1778.000000	0.293449
1779.000000	0.293359
1780.000000	0.293378
1781.000000	0.293425
1782.000000	0.293402
1783.000000	0.293399
1784.000000	0.293431
1785.000000	0.293328
1786.000000	0.293295
1787.000000	0.293399
1788.000000	0.293428
1789.000000	0.293338
1790.000000	0.293261
1791.000000	0.293176
1792.000000	0.293141
1793.000000	0.293159
1794.000000	0.293284
1795.000000	0.293351
1796.000000	0.293401
1797.000000	0.293451
1798.000000	0.293386
1799.000000	0.293442
1800.000000	0.293708
1801.000000	0.293277
1802.000000	0.293474
1803.000000	0.293785
1804.000000	0.293503
1805.000000	0.292969
1806.000000	0.292735
1807.000000	0.291781
1808.000000	0.291422
1809.000000	0.291812
1810.000000	0.292041
1811.000000	0.291981
1812.000000	0.291815
1813.000000	0.291810
1814.000000	0.291730
1815.000000	0.291725
1816.000000	0.291924
1817.000000	0.291821
1818.000000	0.291657
1819.000000	0.291537
1820.000000	0.291061
1821.000000	0.290507
1822.000000	0.290405
1823.000000	0.290325
1824.000000	0.290323
1825.000000	0.290608
1826.000000	0.290952
1827.000000	0.291281
1828.000000	0.291548
1829.000000	0.291798
1830.000000	0.292356
1831.000000	0.292371
1832.000000	0.291819
1833.000000	0.291761
1834.000000	0.291674
1835.000000	0.291661
1836.000000	0.291997
1837.000000	0.291990
1838.000000	0.291725
1839.000000	0.291300
1840.000000	0.290817
1841.000000	0.290718
1842.000000	0.290562
1843.000000	0.290477
1844.000000	0.290436
1845.000000	0.290343
1846.000000	0.290314
1847.000000	0.290186
1848.000000	0.290120
1849.000000	0.290321
1850.000000	0.290424
1851.000000	0.290502
1852.000000	0.290464
1853.000000	0.290836
1854.000000	0.291334
1855.000000	0.291429
1856.000000	0.291542
1857.000000	0.291614
1858.000000	0.291111
1859.000000	0.290818
1860.000000	0.290843
1861.000000	0.290396
1862.000000	0.289962
1863.000000	0.289235
1864.000000	0.289155
1865.000000	0.289230
1866.000000	0.289524
1867.000000	0.290653
1868.000000	0.290901
1869.000000	0.290659
1870.000000	0.290540
1871.000000	0.290050
1872.000000	0.289710
1873.000000	0.289556
1874.000000	0.289640
1875.000000	0.289649
1876.000000	0.289566
1877.000000	0.289108
1878.000000	0.288878
1879.000000	0.288492
1880.000000	0.287901
1881.000000	0.287624
1882.000000	0.287413
1883.000000	0.287349
1884.000000	0.287223
1885.000000	0.287201
1886.000000	0.286746
1887.000000	0.286032
1888.000000	0.284969
1889.000000	0.284099
1890.000000	0.283999
1891.000000	0.284223
1892.000000	0.284169
1893.000000	0.284425
1894.000000	0.284601
1895.000000	0.284334
1896.000000	0.283806
1897.000000	0.283870
1898.000000	0.283532
1899.000000	0.282942
1900.000000	0.282869
1901.000000	0.282809
1902.000000	0.282580
1903.000000	0.282606
1904.000000	0.282538
1905.000000	0.282032
1906.000000	0.281774
1907.000000	0.281586
1908.000000	0.281371
1909.000000	0.281301
1910.000000	0.281692
1911.000000	0.281872
1912.000000	0.281847
1913.000000	0.282252
1914.000000	0.282600
1915.000000	0.282460
1916.000000	0.282883
1917.000000	0.282998
1918.000000	0.283038
1919.000000	0.282808
1920.000000	0.282933
1921.000000	0.282563
1922.000000	0.282193
1923.000000	0.282251
1924.000000	0.282472
1925.000000	0.282917
1926.000000	0.283355
1927.000000	0.283809
1928.000000	0.283847
1929.000000	0.283591
1930.000000	0.283187
1931.000000	0.283095
1932.000000	0.283041
1933.000000	0.283246
1934.000000	0.283542
1935.000000	0.283686
1936.000000	0.283497
1937.000000	0.283248
1938.000000	0.283348
1939.000000	0.283374
1940.000000	0.283321
1941.000000	0.283562
1942.000000	0.283926
1943.000000	0.283852
1944.000000	0.283821
1945.000000	0.283771
1946.000000	0.283832
1947.000000	0.284031
1948.000000	0.284276
1949.000000	0.284570
1950.000000	0.284661
1951.000000	0.284383
1952.000000	0.283831
1953.000000	0.283072
1954.000000	0.282608
1955.000000	0.282571
1956.000000	0.283188
1957.000000	0.284001
1958.000000	0.284497
1959.000000	0.284571
1960.000000	0.284206
1961.000000	0.284076
1962.000000	0.283973
1963.000000	0.283937
1964.000000	0.284109
1965.000000	0.284215
1966.000000	0.284238
1967.000000	0.284486
1968.000000	0.284401
1969.000000	0.284318
1970.000000	0.284183
1971.000000	0.283907
1972.000000	0.283725
1973.000000	0.283581
1974.000000	0.283863
1975.000000	0.283858
1976.000000	0.283762
1977.000000	0.283777
1978.000000	0.283347
1979.000000	0.283024
1980.000000	0.283379
1981.000000	0.283598
1982.000000	0.283825
1983.000000	0.284375
1984.000000	0.284469
1985.000000	0.283964
1986.000000	0.283718
1987.000000	0.283631
1988.000000	0.283430
1989.000000	0.283079
1990.000000	0.283391
1991.000000	0.283571
1992.000000	0.283506
1993.000000	0.283593
1994.000000	0.283763
1995.000000	0.283825
1996.000000	0.283872
1997.000000	0.283985
1998.000000	0.284246
1999.000000	0.284249
2000.000000	0.284114
2001.000000	0.284224
2002.000000	0.284137
2003.000000	0.283780
2004.000000	0.283733
2005.000000	0.283336
2006.000000	0.283003
2007.000000	0.282956
2008.000000	0.282911
2009.000000	0.282938
2010.000000	0.283101
2011.000000	0.283248
2012.000000	0.283432
2013.000000	0.283618
2014.000000	0.283876
2015.000000	0.284265
2016.000000	0.284207
2017.000000	0.284182
2018.000000	0.284069
2019.000000	0.283833
2020.000000	0.283693
2021.000000	0.283433
2022.000000	0.283088
2023.000000	0.282753
2024.000000	0.282144
2025.000000	0.282040
2026.000000	0.282117
2027.000000	0.282103
2028.000000	0.282240
2029.000000	0.282518
2030.000000	0.282594
2031.000000	0.282680
2032.000000	0.283074
2033.000000	0.283180
2034.000000	0.283333
2035.000000	0.283716
2036.000000	0.283686
2037.000000	0.283633
2038.000000	0.283566
2039.000000	0.283327
2040.000000	0.283088
2041.000000	0.283050
2042.000000	0.282990
2043.000000	0.282941
2044.000000	0.282901
2045.000000	0.282878
2046.000000	0.282765
2047.000000	0.282863
2048.000000	0.283055
2049.000000	0.283368
2050.000000	0.283631
2051.000000	0.283699
2052.000000	0.283650
2053.000000	0.283495
2054.000000	0.283295
2055.000000	0.283170
2056.000000	0.283462
2057.000000	0.283923
2058.000000	0.284131
2059.000000	0.284265
2060.000000	0.284199
2061.000000	0.283498
2062.000000	0.283343
2063.000000	0.283612
2064.000000	0.283535
2065.000000	0.283853
2066.000000	0.283712
2067.000000	0.283544
2068.000000	0.283059
2069.000000	0.282789
2070.000000	0.282817
2071.000000	0.282592
2072.000000	0.282301
2073.000000	0.281853
2074.000000	0.281420
2075.000000	0.281229
2076.000000	0.281318
2077.000000	0.281263
2078.000000	0.281168
2079.000000	0.281134
2080.000000	0.281237
2081.000000	0.281283
2082.000000	0.281385
2083.000000	0.281516
2084.000000	0.281517
2085.000000	0.281634
2086.000000	0.282075
2087.000000	0.282724
2088.000000	0.283118
2089.000000	0.283336
2090.000000	0.283408
2091.000000	0.283095
2092.000000	0.282988
2093.000000	0.282816
2094.000000	0.282848
2095.000000	0.283051
2096.000000	0.283275
2097.000000	0.283671
2098.000000	0.283918
2099.000000	0.283908
2100.000000	0.283702
2101.000000	0.283319
2102.000000	0.282813
2103.000000	0.282568
2104.000000	0.282400
2105.000000	0.282243
2106.000000	0.282276
2107.000000	0.282222
2108.000000	0.282002
2109.000000	0.281980
2110.000000	0.282028
2111.000000	0.281852
2112.000000	0.281473
2113.000000	0.281069
2114.000000	0.280917
2115.000000	0.280907
2116.000000	0.281346
2117.000000	0.282200
2118.000000	0.282449
2119.000000	0.282535
2120.000000	0.282623
2121.000000	0.282294
2122.000000	0.282165
2123.000000	0.282221
2124.000000	0.282106
2125.000000	0.282044
2126.000000	0.281814
2127.000000	0.281578
2128.000000	0.281237
2129.000000	0.280549
2130.000000	0.279723
2131.000000	0.279369
2132.000000	0.279338
2133.000000	0.279828
2134.000000	0.280639
2135.000000	0.281323
2136.000000	0.281297
2137.000000	0.281374
2138.000000	0.281163
2139.000000	0.281283
2140.000000	0.281634
2141.000000	0.281552
2142.000000	0.281262
2143.000000	0.280877
2144.000000	0.280160
2145.000000	0.279989
2146.000000	0.280079
2147.000000	0.280704
2148.000000	0.281486
2149.000000	0.281734
2150.000000	0.282148
2151.000000	0.282215
2152.000000	0.282280
2153.000000	0.282340
2154.000000	0.282242
2155.000000	0.282188
2156.000000	0.282079
2157.000000	0.281763
2158.000000	0.281594
2159.000000	0.281559
2160.000000	0.281375
2161.000000	0.281049
2162.000000	0.280885
2163.000000	0.280506
2164.000000	0.280277
2165.000000	0.280016
2166.000000	0.280311
2167.000000	0.280434
2168.000000	0.280972
2169.000000	0.280971
2170.000000	0.280588
2171.000000	0.280498
2172.000000	0.280160
2173.000000	0.279992
2174.000000	0.280133
2175.000000	0.280166
2176.000000	0.280004
2177.000000	0.280002
2178.000000	0.280141
2179.000000	0.280535
2180.000000	0.280993
2181.000000	0.281752
2182.000000	0.282606
2183.000000	0.283112
2184.000000	0.283604
2185.000000	0.283844
2186.000000	0.282956
2187.000000	0.282717
2188.000000	0.282685
2189.000000	0.281891
2190.000000	0.282093
2191.000000	0.282930
2192.000000	0.282691
2193.000000	0.281579
2194.000000	0.281216
2195.000000	0.280255
2196.000000	0.280152
2197.000000	0.281223
2198.000000	0.281804
2199.000000	0.283176
2200.000000	0.283639
2201.000000	0.283167
2202.000000	0.283036
2203.000000	0.282264
2204.000000	0.281454
2205.000000	0.281118
2206.000000	0.281308
2207.000000	0.281153
2208.000000	0.280714
2209.000000	0.279923
2210.000000	0.279598
2211.000000	0.278787
2212.000000	0.278940
2213.000000	0.278646
2214.000000	0.277931
2215.000000	0.277846
2216.000000	0.277984
2217.000000	0.278295
2218.000000	0.279417
2219.000000	0.280141
2220.000000	0.281188
2221.000000	0.281376
2222.000000	0.280528
2223.000000	0.280589
2224.000000	0.280908
2225.000000	0.280380
2226.000000	0.281056
2227.000000	0.281614
2228.000000	0.282580
2229.000000	0.283287
2230.000000	0.282427
2231.000000	0.282286
2232.000000	0.280468
2233.000000	0.278058
2234.000000	0.277112
2235.000000	0.276811
2236.000000	0.276785
2237.000000	0.277814
2238.000000	0.277998
2239.000000	0.277656
2240.000000	0.278260
2241.000000	0.279280
2242.000000	0.279766
2243.000000	0.281258
2244.000000	0.281657
2245.000000	0.280679
2246.000000	0.280349
2247.000000	0.279614
2248.000000	0.279033
2249.000000	0.278803
2250.000000	0.278194
2251.000000	0.277695
2252.000000	0.278636
2253.000000	0.279178
2254.000000	0.279493
2255.000000	0.278856
2256.000000	0.279474
2257.000000	0.280010
2258.000000	0.280756
2259.000000	0.282553
2260.000000	0.282972
2261.000000	0.283342
2262.000000	0.283492
2263.000000	0.282583
2264.000000	0.280622
2265.000000	0.279881
2266.000000	0.278854
2267.000000	0.278540
2268.000000	0.279419
2269.000000	0.279639
2270.000000	0.279318
2271.000000	0.279090
2272.000000	0.279453
2273.000000	0.279264
2274.000000	0.278090
2275.000000	0.277860
2276.000000	0.278091
2277.000000	0.277472
2278.000000	0.278377
2279.000000	0.280180
2280.000000	0.281068
2281.000000	0.282219
2282.000000	0.282155
2283.000000	0.281223
2284.000000	0.280125
2285.000000	0.278752
2286.000000	0.276805
2287.000000	0.275078
2288.000000	0.274459
2289.000000	0.273273
2290.000000	0.273254
2291.000000	0.274500
2292.000000	0.274356
2293.000000	0.273751
2294.000000	0.273532
2295.000000	0.272421
2296.000000	0.272485
2297.000000	0.274109
2298.000000	0.274228
2299.000000	0.274164
2300.000000	0.274052
2301.000000	0.272711
2302.000000	0.272520
2303.000000	0.273254
2304.000000	0.273012
2305.000000	0.272646
2306.000000	0.271708
2307.000000	0.269569
2308.000000	0.268947
2309.000000	0.268563
2310.000000	0.269576
2311.000000	0.271321
2312.000000	0.272482
2313.000000	0.273120
2314.000000	0.273572
2315.000000	0.273803
2316.000000	0.274698
2317.000000	0.274443
2318.000000	0.273596
2319.000000	0.274140
2320.000000	0.272914
2321.000000	0.272983
2322.000000	0.273864
2323.000000	0.273177
2324.000000	0.273947
2325.000000	0.274528
2326.000000	0.274513
2327.000000	0.275056
2328.000000	0.275378
2329.000000	0.275781
2330.000000	0.276148
2331.000000	0.274659
2332.000000	0.272895
2333.000000	0.271645
2334.000000	0.269728
2335.000000	0.269791
2336.000000	0.271645
2337.000000	0.272771
2338.000000	0.275539
2339.000000	0.276425
2340.000000	0.276238
2341.000000	0.276170
2342.000000	0.274340
2343.000000	0.273730
2344.000000	0.274095
2345.000000	0.274098
2346.000000	0.274347
2347.000000	0.274673
2348.000000	0.274588
2349.000000	0.275607
2350.000000	0.276703
2351.000000	0.277364
2352.000000	0.279000
2353.000000	0.279071
2354.000000	0.277955
2355.000000	0.277950
2356.000000	0.275821
2357.000000	0.273703
2358.000000	0.274464
2359.000000	0.275328
2360.000000	0.275976
2361.000000	0.277064
2362.000000	0.277223
2363.000000	0.275312
2364.000000	0.273286
2365.000000	0.272691
2366.000000	0.270494
2367.000000	0.267921
2368.000000	0.267867
2369.000000	0.268889
2370.000000	0.269233
2371.000000	0.270877
2372.000000	0.271296
2373.000000	0.269199
2374.000000	0.269262
2375.000000	0.268828
2376.000000	0.268362
2377.000000	0.269582
2378.000000	0.268469
2379.000000	0.267064
2380.000000	0.267722
2381.000000	0.266256
2382.000000	0.262402
2383.000000	0.262383
2384.000000	0.262974
2385.000000	0.260753
2386.000000	0.261866
2387.000000	0.261078
2388.000000	0.258590
2389.000000	0.261728
2390.000000	0.263510
2391.000000	0.267909
2392.000000	0.272159
2393.000000	0.270404
2394.000000	0.272352
2395.000000	0.270196
2396.000000	0.266537
2397.000000	0.266517
2398.000000	0.261781
2399.000000	0.259294
2400.000000	0.260715
2401.000000	0.260192
2402.000000	0.264223
2403.000000	0.271672
2404.000000	0.272721
2405.000000	0.273073
2406.000000	0.273553
2407.000000	0.269090
2408.000000	0.264474
2409.000000	0.262129
2410.000000	0.257700
2411.000000	0.254977
2412.000000	0.257749
2413.000000	0.259752
2414.000000	0.265091
2415.000000	0.267523
2416.000000	0.264845
2417.000000	0.268417
2418.000000	0.268082
2419.000000	0.265163
2420.000000	0.269794
2421.000000	0.272152
2422.000000	0.273947
2423.000000	0.280490
2424.000000	0.281871
2425.000000	0.278925
2426.000000	0.270576
2427.000000	0.258655
2428.000000	0.250524
2429.000000	0.245762
2430.000000	0.244528
2431.000000	0.243088
2432.000000	0.250134
2433.000000	0.255702
2434.000000	0.258930
2435.000000	0.271472
2436.000000	0.272264
2437.000000	0.269370
2438.000000	0.275172
2439.000000	0.276600
2440.000000	0.279175
2441.000000	0.287739
2442.000000	0.285582
2443.000000	0.281142
2444.000000	0.278569
2445.000000	0.265733
2446.000000	0.262112
2447.000000	0.260269
2448.000000	0.255236
2449.000000	0.258960
2450.000000	0.259497
2451.000000	0.262416
2452.000000	0.265208
2453.000000	0.260415
2454.000000	0.257762
2455.000000	0.254781
2456.000000	0.248751
2457.000000	0.246055
2458.000000	0.244266
2459.000000	0.236328
2460.000000	0.235694
2461.000000	0.242449
2462.000000	0.246566
2463.000000	0.250922
2464.000000	0.246126
2465.000000	0.240720
2466.000000	0.241143
2467.000000	0.247195
2468.000000	0.261561
2469.000000	0.266698
2470.000000	0.260959
2471.000000	0.249486
2472.000000	0.231913
2473.000000	0.223989
2474.000000	0.221626
2475.000000	0.218381
2476.000000	0.228655
2477.000000	0.232015
2478.000000	0.236747
2479.000000	0.247469
2480.000000	0.248628
2481.000000	0.249706
2482.000000	0.256936
2483.000000	0.272751
2484.000000	0.264319
2485.000000	0.255108
2486.000000	0.249931
2487.000000	0.256513
2488.000000	0.280465
2489.000000	0.278872
2490.000000	0.283771
2491.000000	0.234676
2492.000000	0.215789
2493.000000	0.245439
2494.000000	0.250046
2495.000000	0.248524
2496.000000	0.239754
2497.000000	0.202571
2498.000000	0.181206
2499.000000	0.169390
2500.000000	0.168792
