# Wavelength	SM1200H-20_HEX-50_FV7-30_00002.asd.rts.txt
350.000000	0.275427
351.000000	0.250015
352.000000	0.241009
353.000000	0.244872
354.000000	0.254290
355.000000	0.254952
356.000000	0.255128
357.000000	0.256822
358.000000	0.253498
359.000000	0.255256
360.000000	0.258491
361.000000	0.257663
362.000000	0.263891
363.000000	0.270154
364.000000	0.270795
365.000000	0.268128
366.000000	0.265173
367.000000	0.263871
368.000000	0.266143
369.000000	0.263141
370.000000	0.261341
371.000000	0.268482
372.000000	0.261819
373.000000	0.254816
374.000000	0.258344
375.000000	0.266439
376.000000	0.269684
377.000000	0.267711
378.000000	0.269065
379.000000	0.270913
380.000000	0.271509
381.000000	0.270663
382.000000	0.270775
383.000000	0.270127
384.000000	0.268467
385.000000	0.269762
386.000000	0.271908
387.000000	0.274043
388.000000	0.276343
389.000000	0.275744
390.000000	0.274183
391.000000	0.274831
392.000000	0.276802
393.000000	0.278117
394.000000	0.277814
395.000000	0.278388
396.000000	0.279340
397.000000	0.279958
398.000000	0.279281
399.000000	0.278535
400.000000	0.278405
401.000000	0.279144
402.000000	0.279665
403.000000	0.280215
404.000000	0.281135
405.000000	0.281108
406.000000	0.281521
407.000000	0.282680
408.000000	0.282722
409.000000	0.283328
410.000000	0.284214
411.000000	0.283983
412.000000	0.283838
413.000000	0.284252
414.000000	0.285302
415.000000	0.285852
416.000000	0.285623
417.000000	0.284996
418.000000	0.285694
419.000000	0.286078
420.000000	0.286116
421.000000	0.287119
422.000000	0.287500
423.000000	0.287570
424.000000	0.288205
425.000000	0.288641
426.000000	0.288703
427.000000	0.288545
428.000000	0.289233
429.000000	0.289787
430.000000	0.289929
431.000000	0.290238
432.000000	0.290686
433.000000	0.291067
434.000000	0.291200
435.000000	0.291305
436.000000	0.291512
437.000000	0.291803
438.000000	0.291704
439.000000	0.291664
440.000000	0.292033
441.000000	0.292569
442.000000	0.292952
443.000000	0.293137
444.000000	0.293482
445.000000	0.293603
446.000000	0.293788
447.000000	0.294167
448.000000	0.294009
449.000000	0.294094
450.000000	0.294863
451.000000	0.295428
452.000000	0.295855
453.000000	0.296070
454.000000	0.296085
455.000000	0.296304
456.000000	0.296586
457.000000	0.296393
458.000000	0.296556
459.000000	0.296992
460.000000	0.297496
461.000000	0.297777
462.000000	0.298049
463.000000	0.298206
464.000000	0.298084
465.000000	0.298445
466.000000	0.299102
467.000000	0.299397
468.000000	0.299737
469.000000	0.299958
470.000000	0.300036
471.000000	0.300276
472.000000	0.300367
473.000000	0.300289
474.000000	0.300876
475.000000	0.301065
476.000000	0.300981
477.000000	0.301687
478.000000	0.301749
479.000000	0.301696
480.000000	0.302318
481.000000	0.302470
482.000000	0.302613
483.000000	0.303015
484.000000	0.303460
485.000000	0.303747
486.000000	0.303993
487.000000	0.304159
488.000000	0.304267
489.000000	0.304444
490.000000	0.304869
491.000000	0.305213
492.000000	0.305404
493.000000	0.305344
494.000000	0.305545
495.000000	0.305916
496.000000	0.306288
497.000000	0.306713
498.000000	0.307077
499.000000	0.307412
500.000000	0.307680
501.000000	0.307942
502.000000	0.308240
503.000000	0.308509
504.000000	0.308859
505.000000	0.309158
506.000000	0.309300
507.000000	0.309453
508.000000	0.309749
509.000000	0.310152
510.000000	0.310487
511.000000	0.310804
512.000000	0.311156
513.000000	0.311539
514.000000	0.311928
515.000000	0.312282
516.000000	0.312498
517.000000	0.312725
518.000000	0.313062
519.000000	0.313422
520.000000	0.313637
521.000000	0.313867
522.000000	0.314177
523.000000	0.314479
524.000000	0.314739
525.000000	0.314991
526.000000	0.315369
527.000000	0.315698
528.000000	0.316001
529.000000	0.316380
530.000000	0.316609
531.000000	0.316877
532.000000	0.317196
533.000000	0.317497
534.000000	0.317719
535.000000	0.317882
536.000000	0.318150
537.000000	0.318371
538.000000	0.318615
539.000000	0.319005
540.000000	0.319345
541.000000	0.319628
542.000000	0.319907
543.000000	0.320103
544.000000	0.320323
545.000000	0.320564
546.000000	0.320913
547.000000	0.321260
548.000000	0.321590
549.000000	0.321844
550.000000	0.322145
551.000000	0.322488
552.000000	0.322773
553.000000	0.323038
554.000000	0.323346
555.000000	0.323740
556.000000	0.324231
557.000000	0.324520
558.000000	0.324729
559.000000	0.325117
560.000000	0.325439
561.000000	0.325737
562.000000	0.326003
563.000000	0.326319
564.000000	0.326685
565.000000	0.326982
566.000000	0.327400
567.000000	0.327786
568.000000	0.328045
569.000000	0.328344
570.000000	0.328691
571.000000	0.329046
572.000000	0.329340
573.000000	0.329671
574.000000	0.329983
575.000000	0.330255
576.000000	0.330602
577.000000	0.330945
578.000000	0.331277
579.000000	0.331588
580.000000	0.331887
581.000000	0.332188
582.000000	0.332530
583.000000	0.332821
584.000000	0.333095
585.000000	0.333460
586.000000	0.333816
587.000000	0.334064
588.000000	0.334168
589.000000	0.334429
590.000000	0.334785
591.000000	0.335137
592.000000	0.335356
593.000000	0.335571
594.000000	0.335817
595.000000	0.336061
596.000000	0.336272
597.000000	0.336505
598.000000	0.336731
599.000000	0.336928
600.000000	0.337137
601.000000	0.337318
602.000000	0.337559
603.000000	0.337772
604.000000	0.337941
605.000000	0.338134
606.000000	0.338355
607.000000	0.338565
608.000000	0.338687
609.000000	0.338815
610.000000	0.338976
611.000000	0.339169
612.000000	0.339369
613.000000	0.339555
614.000000	0.339743
615.000000	0.339853
616.000000	0.340033
617.000000	0.340242
618.000000	0.340365
619.000000	0.340544
620.000000	0.340725
621.000000	0.340861
622.000000	0.341079
623.000000	0.341283
624.000000	0.341396
625.000000	0.341541
626.000000	0.341753
627.000000	0.342006
628.000000	0.342169
629.000000	0.342393
630.000000	0.342536
631.000000	0.342640
632.000000	0.342818
633.000000	0.343024
634.000000	0.343173
635.000000	0.343293
636.000000	0.343399
637.000000	0.343496
638.000000	0.343658
639.000000	0.343821
640.000000	0.344000
641.000000	0.344080
642.000000	0.344191
643.000000	0.344348
644.000000	0.344529
645.000000	0.344654
646.000000	0.344779
647.000000	0.344921
648.000000	0.345073
649.000000	0.345251
650.000000	0.345433
651.000000	0.345622
652.000000	0.345750
653.000000	0.345905
654.000000	0.346135
655.000000	0.346375
656.000000	0.346574
657.000000	0.346660
658.000000	0.346820
659.000000	0.346996
660.000000	0.347135
661.000000	0.347263
662.000000	0.347372
663.000000	0.347540
664.000000	0.347770
665.000000	0.347975
666.000000	0.348144
667.000000	0.348271
668.000000	0.348480
669.000000	0.348687
670.000000	0.348843
671.000000	0.348983
672.000000	0.349128
673.000000	0.349279
674.000000	0.349441
675.000000	0.349579
676.000000	0.349710
677.000000	0.349873
678.000000	0.349982
679.000000	0.350139
680.000000	0.350377
681.000000	0.350430
682.000000	0.350570
683.000000	0.350762
684.000000	0.350934
685.000000	0.351024
686.000000	0.351149
687.000000	0.351399
688.000000	0.351606
689.000000	0.351769
690.000000	0.351949
691.000000	0.352157
692.000000	0.352297
693.000000	0.352435
694.000000	0.352621
695.000000	0.352805
696.000000	0.352974
697.000000	0.353134
698.000000	0.353367
699.000000	0.353627
700.000000	0.353851
701.000000	0.353936
702.000000	0.354037
703.000000	0.354180
704.000000	0.354270
705.000000	0.354439
706.000000	0.354646
707.000000	0.354881
708.000000	0.355065
709.000000	0.355231
710.000000	0.355426
711.000000	0.355550
712.000000	0.355680
713.000000	0.355851
714.000000	0.355956
715.000000	0.356071
716.000000	0.356215
717.000000	0.356354
718.000000	0.356521
719.000000	0.356675
720.000000	0.356806
721.000000	0.356989
722.000000	0.357118
723.000000	0.357225
724.000000	0.357312
725.000000	0.357359
726.000000	0.357461
727.000000	0.357560
728.000000	0.357660
729.000000	0.357793
730.000000	0.357924
731.000000	0.358115
732.000000	0.358235
733.000000	0.358313
734.000000	0.358451
735.000000	0.358532
736.000000	0.358693
737.000000	0.358864
738.000000	0.359023
739.000000	0.359161
740.000000	0.359122
741.000000	0.359228
742.000000	0.359362
743.000000	0.359438
744.000000	0.359494
745.000000	0.359540
746.000000	0.359620
747.000000	0.359671
748.000000	0.359776
749.000000	0.359901
750.000000	0.359974
751.000000	0.360026
752.000000	0.360109
753.000000	0.360233
754.000000	0.360333
755.000000	0.360473
756.000000	0.360641
757.000000	0.360751
758.000000	0.360818
759.000000	0.360874
760.000000	0.360897
761.000000	0.361106
762.000000	0.361202
763.000000	0.361165
764.000000	0.361230
765.000000	0.361275
766.000000	0.361284
767.000000	0.361269
768.000000	0.361345
769.000000	0.361477
770.000000	0.361614
771.000000	0.361663
772.000000	0.361797
773.000000	0.361886
774.000000	0.361858
775.000000	0.361899
776.000000	0.361940
777.000000	0.361910
778.000000	0.361926
779.000000	0.361974
780.000000	0.362043
781.000000	0.362103
782.000000	0.362169
783.000000	0.362298
784.000000	0.362349
785.000000	0.362431
786.000000	0.362535
787.000000	0.362637
788.000000	0.362723
789.000000	0.362775
790.000000	0.362776
791.000000	0.362775
792.000000	0.362792
793.000000	0.362851
794.000000	0.362952
795.000000	0.363018
796.000000	0.363000
797.000000	0.362933
798.000000	0.362949
799.000000	0.362960
800.000000	0.362985
801.000000	0.363054
802.000000	0.363080
803.000000	0.363048
804.000000	0.363006
805.000000	0.362944
806.000000	0.362916
807.000000	0.362957
808.000000	0.362922
809.000000	0.362976
810.000000	0.363033
811.000000	0.363014
812.000000	0.363069
813.000000	0.363115
814.000000	0.363117
815.000000	0.363107
816.000000	0.363105
817.000000	0.363118
818.000000	0.363058
819.000000	0.363065
820.000000	0.363109
821.000000	0.363095
822.000000	0.363021
823.000000	0.363026
824.000000	0.363003
825.000000	0.362930
826.000000	0.362975
827.000000	0.362964
828.000000	0.362889
829.000000	0.363005
830.000000	0.362971
831.000000	0.362850
832.000000	0.362723
833.000000	0.362671
834.000000	0.362666
835.000000	0.362697
836.000000	0.362688
837.000000	0.362682
838.000000	0.362687
839.000000	0.362637
840.000000	0.362655
841.000000	0.362673
842.000000	0.362580
843.000000	0.362528
844.000000	0.362502
845.000000	0.362454
846.000000	0.362399
847.000000	0.362370
848.000000	0.362341
849.000000	0.362311
850.000000	0.362258
851.000000	0.362180
852.000000	0.362135
853.000000	0.362131
854.000000	0.362016
855.000000	0.361957
856.000000	0.361966
857.000000	0.361947
858.000000	0.361988
859.000000	0.361988
860.000000	0.361800
861.000000	0.361636
862.000000	0.361577
863.000000	0.361535
864.000000	0.361437
865.000000	0.361322
866.000000	0.361233
867.000000	0.361103
868.000000	0.361039
869.000000	0.360956
870.000000	0.360838
871.000000	0.360757
872.000000	0.360686
873.000000	0.360536
874.000000	0.360359
875.000000	0.360203
876.000000	0.360079
877.000000	0.359897
878.000000	0.359649
879.000000	0.359476
880.000000	0.359305
881.000000	0.359238
882.000000	0.359150
883.000000	0.359089
884.000000	0.359076
885.000000	0.359051
886.000000	0.358954
887.000000	0.358770
888.000000	0.358429
889.000000	0.358276
890.000000	0.358213
891.000000	0.358216
892.000000	0.358090
893.000000	0.357888
894.000000	0.357777
895.000000	0.357598
896.000000	0.357243
897.000000	0.356946
898.000000	0.356966
899.000000	0.356929
900.000000	0.356858
901.000000	0.356727
902.000000	0.356573
903.000000	0.356415
904.000000	0.356278
905.000000	0.356057
906.000000	0.355821
907.000000	0.355574
908.000000	0.355373
909.000000	0.355122
910.000000	0.354868
911.000000	0.354663
912.000000	0.354538
913.000000	0.354356
914.000000	0.354176
915.000000	0.353998
916.000000	0.353604
917.000000	0.353379
918.000000	0.353203
919.000000	0.352909
920.000000	0.352521
921.000000	0.352349
922.000000	0.352363
923.000000	0.352307
924.000000	0.352084
925.000000	0.351952
926.000000	0.351948
927.000000	0.351503
928.000000	0.351070
929.000000	0.350705
930.000000	0.350359
931.000000	0.350129
932.000000	0.349914
933.000000	0.349693
934.000000	0.349422
935.000000	0.349160
936.000000	0.348945
937.000000	0.348685
938.000000	0.348434
939.000000	0.348296
940.000000	0.348144
941.000000	0.347905
942.000000	0.347498
943.000000	0.347157
944.000000	0.346895
945.000000	0.346771
946.000000	0.346358
947.000000	0.346005
948.000000	0.346047
949.000000	0.345832
950.000000	0.345600
951.000000	0.345407
952.000000	0.345239
953.000000	0.345047
954.000000	0.344853
955.000000	0.344629
956.000000	0.344531
957.000000	0.344284
958.000000	0.343896
959.000000	0.343638
960.000000	0.343462
961.000000	0.343070
962.000000	0.342543
963.000000	0.342475
964.000000	0.342355
965.000000	0.342160
966.000000	0.341852
967.000000	0.341643
968.000000	0.341225
969.000000	0.340754
970.000000	0.340679
971.000000	0.340553
972.000000	0.340440
973.000000	0.340303
974.000000	0.340152
975.000000	0.339932
976.000000	0.339746
977.000000	0.339625
978.000000	0.339330
979.000000	0.339177
980.000000	0.338913
981.000000	0.338649
982.000000	0.338582
983.000000	0.338431
984.000000	0.338201
985.000000	0.338046
986.000000	0.337997
987.000000	0.337894
988.000000	0.337526
989.000000	0.337112
990.000000	0.337046
991.000000	0.337068
992.000000	0.336834
993.000000	0.336551
994.000000	0.336458
995.000000	0.336676
996.000000	0.336746
997.000000	0.336505
998.000000	0.336248
999.000000	0.336189
1000.000000	0.336042
1001.000000	0.336007
1002.000000	0.336350
1003.000000	0.336121
1004.000000	0.336210
1005.000000	0.336514
1006.000000	0.336327
1007.000000	0.336133
1008.000000	0.335877
1009.000000	0.335435
1010.000000	0.334629
1011.000000	0.334404
1012.000000	0.334814
1013.000000	0.334202
1014.000000	0.333752
1015.000000	0.333853
1016.000000	0.333724
1017.000000	0.333845
1018.000000	0.334330
1019.000000	0.334430
1020.000000	0.334090
1021.000000	0.333968
1022.000000	0.334343
1023.000000	0.334353
1024.000000	0.333932
1025.000000	0.334393
1026.000000	0.334162
1027.000000	0.333544
1028.000000	0.334102
1029.000000	0.334682
1030.000000	0.334526
1031.000000	0.334698
1032.000000	0.335084
1033.000000	0.334820
1034.000000	0.334894
1035.000000	0.335584
1036.000000	0.335804
1037.000000	0.335712
1038.000000	0.335627
1039.000000	0.335662
1040.000000	0.335551
1041.000000	0.334952
1042.000000	0.334309
1043.000000	0.334445
1044.000000	0.334639
1045.000000	0.334908
1046.000000	0.335415
1047.000000	0.335673
1048.000000	0.335464
1049.000000	0.335488
1050.000000	0.335682
1051.000000	0.335857
1052.000000	0.335819
1053.000000	0.335839
1054.000000	0.336349
1055.000000	0.336573
1056.000000	0.336453
1057.000000	0.336757
1058.000000	0.337271
1059.000000	0.337639
1060.000000	0.338059
1061.000000	0.338170
1062.000000	0.338069
1063.000000	0.337873
1064.000000	0.338025
1065.000000	0.338477
1066.000000	0.338784
1067.000000	0.339415
1068.000000	0.339330
1069.000000	0.338342
1070.000000	0.338301
1071.000000	0.338500
1072.000000	0.338614
1073.000000	0.339129
1074.000000	0.340012
1075.000000	0.340376
1076.000000	0.340552
1077.000000	0.340559
1078.000000	0.340540
1079.000000	0.340492
1080.000000	0.339990
1081.000000	0.339973
1082.000000	0.340362
1083.000000	0.340669
1084.000000	0.341154
1085.000000	0.341550
1086.000000	0.341931
1087.000000	0.342401
1088.000000	0.343059
1089.000000	0.343239
1090.000000	0.343179
1091.000000	0.342900
1092.000000	0.343140
1093.000000	0.343405
1094.000000	0.343483
1095.000000	0.343916
1096.000000	0.344057
1097.000000	0.343515
1098.000000	0.343707
1099.000000	0.344512
1100.000000	0.344784
1101.000000	0.344867
1102.000000	0.345037
1103.000000	0.345032
1104.000000	0.345085
1105.000000	0.345378
1106.000000	0.345423
1107.000000	0.344835
1108.000000	0.344797
1109.000000	0.345173
1110.000000	0.345336
1111.000000	0.345713
1112.000000	0.346544
1113.000000	0.347004
1114.000000	0.347391
1115.000000	0.347547
1116.000000	0.347521
1117.000000	0.347605
1118.000000	0.347385
1119.000000	0.347450
1120.000000	0.347804
1121.000000	0.348006
1122.000000	0.348408
1123.000000	0.348790
1124.000000	0.348829
1125.000000	0.348974
1126.000000	0.348876
1127.000000	0.348962
1128.000000	0.349134
1129.000000	0.349501
1130.000000	0.349694
1131.000000	0.349959
1132.000000	0.350101
1133.000000	0.350180
1134.000000	0.350265
1135.000000	0.350282
1136.000000	0.350311
1137.000000	0.350218
1138.000000	0.350236
1139.000000	0.350503
1140.000000	0.350661
1141.000000	0.350806
1142.000000	0.350862
1143.000000	0.350650
1144.000000	0.350681
1145.000000	0.350568
1146.000000	0.350476
1147.000000	0.350428
1148.000000	0.350358
1149.000000	0.350329
1150.000000	0.350246
1151.000000	0.350405
1152.000000	0.350721
1153.000000	0.350859
1154.000000	0.350986
1155.000000	0.351129
1156.000000	0.351279
1157.000000	0.351269
1158.000000	0.351168
1159.000000	0.351099
1160.000000	0.350830
1161.000000	0.350619
1162.000000	0.350438
1163.000000	0.350608
1164.000000	0.350658
1165.000000	0.350689
1166.000000	0.350680
1167.000000	0.350673
1168.000000	0.350618
1169.000000	0.350472
1170.000000	0.350436
1171.000000	0.350559
1172.000000	0.350576
1173.000000	0.350441
1174.000000	0.350447
1175.000000	0.350449
1176.000000	0.350472
1177.000000	0.350780
1178.000000	0.350867
1179.000000	0.350799
1180.000000	0.350726
1181.000000	0.350708
1182.000000	0.350542
1183.000000	0.350414
1184.000000	0.350555
1185.000000	0.350560
1186.000000	0.350533
1187.000000	0.350491
1188.000000	0.350444
1189.000000	0.350389
1190.000000	0.350360
1191.000000	0.350347
1192.000000	0.350529
1193.000000	0.350626
1194.000000	0.350516
1195.000000	0.350461
1196.000000	0.350269
1197.000000	0.350186
1198.000000	0.350202
1199.000000	0.350217
1200.000000	0.350305
1201.000000	0.350300
1202.000000	0.350259
1203.000000	0.350345
1204.000000	0.350348
1205.000000	0.350331
1206.000000	0.350315
1207.000000	0.350387
1208.000000	0.350374
1209.000000	0.350427
1210.000000	0.350435
1211.000000	0.350372
1212.000000	0.350329
1213.000000	0.350346
1214.000000	0.350340
1215.000000	0.350266
1216.000000	0.350262
1217.000000	0.350267
1218.000000	0.350241
1219.000000	0.350269
1220.000000	0.350307
1221.000000	0.350320
1222.000000	0.350302
1223.000000	0.350294
1224.000000	0.350404
1225.000000	0.350368
1226.000000	0.350298
1227.000000	0.350206
1228.000000	0.350018
1229.000000	0.349947
1230.000000	0.349982
1231.000000	0.349847
1232.000000	0.349751
1233.000000	0.349850
1234.000000	0.349937
1235.000000	0.349977
1236.000000	0.350097
1237.000000	0.350180
1238.000000	0.350076
1239.000000	0.350049
1240.000000	0.350095
1241.000000	0.350100
1242.000000	0.350046
1243.000000	0.350040
1244.000000	0.350088
1245.000000	0.350173
1246.000000	0.350242
1247.000000	0.350296
1248.000000	0.350257
1249.000000	0.350261
1250.000000	0.350238
1251.000000	0.350129
1252.000000	0.350085
1253.000000	0.350092
1254.000000	0.350079
1255.000000	0.350125
1256.000000	0.350049
1257.000000	0.349836
1258.000000	0.349849
1259.000000	0.349826
1260.000000	0.349936
1261.000000	0.350248
1262.000000	0.350398
1263.000000	0.350529
1264.000000	0.350578
1265.000000	0.350647
1266.000000	0.350586
1267.000000	0.350474
1268.000000	0.350360
1269.000000	0.350287
1270.000000	0.350294
1271.000000	0.350303
1272.000000	0.350383
1273.000000	0.350442
1274.000000	0.350518
1275.000000	0.350461
1276.000000	0.350356
1277.000000	0.350332
1278.000000	0.350085
1279.000000	0.349993
1280.000000	0.349968
1281.000000	0.349887
1282.000000	0.349862
1283.000000	0.349918
1284.000000	0.349980
1285.000000	0.349958
1286.000000	0.349867
1287.000000	0.349854
1288.000000	0.349813
1289.000000	0.349705
1290.000000	0.349696
1291.000000	0.349643
1292.000000	0.349588
1293.000000	0.349642
1294.000000	0.349623
1295.000000	0.349604
1296.000000	0.349570
1297.000000	0.349506
1298.000000	0.349638
1299.000000	0.349860
1300.000000	0.349961
1301.000000	0.349922
1302.000000	0.349851
1303.000000	0.349786
1304.000000	0.349631
1305.000000	0.349537
1306.000000	0.349407
1307.000000	0.349197
1308.000000	0.349117
1309.000000	0.349096
1310.000000	0.349068
1311.000000	0.349160
1312.000000	0.349105
1313.000000	0.348979
1314.000000	0.348989
1315.000000	0.348914
1316.000000	0.348918
1317.000000	0.348917
1318.000000	0.348796
1319.000000	0.348683
1320.000000	0.348524
1321.000000	0.348422
1322.000000	0.348424
1323.000000	0.348307
1324.000000	0.348117
1325.000000	0.347978
1326.000000	0.347715
1327.000000	0.347293
1328.000000	0.347209
1329.000000	0.347023
1330.000000	0.346706
1331.000000	0.346565
1332.000000	0.346729
1333.000000	0.346523
1334.000000	0.346270
1335.000000	0.346160
1336.000000	0.345889
1337.000000	0.345710
1338.000000	0.345646
1339.000000	0.345446
1340.000000	0.345222
1341.000000	0.345146
1342.000000	0.345011
1343.000000	0.344773
1344.000000	0.344485
1345.000000	0.344203
1346.000000	0.344135
1347.000000	0.344068
1348.000000	0.343977
1349.000000	0.343807
1350.000000	0.343598
1351.000000	0.343293
1352.000000	0.342997
1353.000000	0.342707
1354.000000	0.342471
1355.000000	0.342296
1356.000000	0.342225
1357.000000	0.342164
1358.000000	0.342004
1359.000000	0.341723
1360.000000	0.341493
1361.000000	0.341269
1362.000000	0.341024
1363.000000	0.340743
1364.000000	0.340546
1365.000000	0.340324
1366.000000	0.340120
1367.000000	0.339950
1368.000000	0.339799
1369.000000	0.339743
1370.000000	0.339569
1371.000000	0.339347
1372.000000	0.339118
1373.000000	0.338694
1374.000000	0.338158
1375.000000	0.337646
1376.000000	0.337292
1377.000000	0.336943
1378.000000	0.336402
1379.000000	0.335619
1380.000000	0.334677
1381.000000	0.333441
1382.000000	0.332154
1383.000000	0.331168
1384.000000	0.329956
1385.000000	0.328805
1386.000000	0.327953
1387.000000	0.326927
1388.000000	0.325924
1389.000000	0.325071
1390.000000	0.324272
1391.000000	0.323608
1392.000000	0.323188
1393.000000	0.322817
1394.000000	0.322738
1395.000000	0.322520
1396.000000	0.322352
1397.000000	0.321986
1398.000000	0.321489
1399.000000	0.320948
1400.000000	0.320257
1401.000000	0.319596
1402.000000	0.319012
1403.000000	0.318230
1404.000000	0.317450
1405.000000	0.316695
1406.000000	0.315772
1407.000000	0.314942
1408.000000	0.314094
1409.000000	0.313189
1410.000000	0.312285
1411.000000	0.311306
1412.000000	0.310367
1413.000000	0.309520
1414.000000	0.308723
1415.000000	0.308087
1416.000000	0.307370
1417.000000	0.306621
1418.000000	0.305912
1419.000000	0.304988
1420.000000	0.304055
1421.000000	0.303475
1422.000000	0.302827
1423.000000	0.302195
1424.000000	0.301549
1425.000000	0.300740
1426.000000	0.299903
1427.000000	0.299241
1428.000000	0.298723
1429.000000	0.298109
1430.000000	0.297452
1431.000000	0.296850
1432.000000	0.296236
1433.000000	0.295643
1434.000000	0.295114
1435.000000	0.294683
1436.000000	0.294203
1437.000000	0.293705
1438.000000	0.293169
1439.000000	0.292682
1440.000000	0.292243
1441.000000	0.291832
1442.000000	0.291479
1443.000000	0.291124
1444.000000	0.290701
1445.000000	0.290424
1446.000000	0.290023
1447.000000	0.289626
1448.000000	0.289296
1449.000000	0.288777
1450.000000	0.288374
1451.000000	0.288213
1452.000000	0.287883
1453.000000	0.287576
1454.000000	0.287372
1455.000000	0.287001
1456.000000	0.286736
1457.000000	0.286598
1458.000000	0.286451
1459.000000	0.286357
1460.000000	0.286215
1461.000000	0.286109
1462.000000	0.286023
1463.000000	0.285874
1464.000000	0.285759
1465.000000	0.285644
1466.000000	0.285511
1467.000000	0.285381
1468.000000	0.285328
1469.000000	0.285315
1470.000000	0.285257
1471.000000	0.285285
1472.000000	0.285259
1473.000000	0.285299
1474.000000	0.285381
1475.000000	0.285646
1476.000000	0.286028
1477.000000	0.286399
1478.000000	0.286799
1479.000000	0.286993
1480.000000	0.287168
1481.000000	0.287449
1482.000000	0.287852
1483.000000	0.288231
1484.000000	0.288664
1485.000000	0.289082
1486.000000	0.289417
1487.000000	0.289881
1488.000000	0.290566
1489.000000	0.291023
1490.000000	0.291296
1491.000000	0.291653
1492.000000	0.291824
1493.000000	0.292143
1494.000000	0.292588
1495.000000	0.292934
1496.000000	0.293197
1497.000000	0.293516
1498.000000	0.293874
1499.000000	0.294210
1500.000000	0.294508
1501.000000	0.294908
1502.000000	0.295160
1503.000000	0.295351
1504.000000	0.295643
1505.000000	0.295864
1506.000000	0.296072
1507.000000	0.296325
1508.000000	0.296603
1509.000000	0.296875
1510.000000	0.297171
1511.000000	0.297422
1512.000000	0.297553
1513.000000	0.297663
1514.000000	0.297769
1515.000000	0.297904
1516.000000	0.298119
1517.000000	0.298285
1518.000000	0.298432
1519.000000	0.298523
1520.000000	0.298653
1521.000000	0.298766
1522.000000	0.298976
1523.000000	0.299348
1524.000000	0.299564
1525.000000	0.299682
1526.000000	0.299734
1527.000000	0.299748
1528.000000	0.299919
1529.000000	0.300091
1530.000000	0.300214
1531.000000	0.300438
1532.000000	0.300472
1533.000000	0.300477
1534.000000	0.300595
1535.000000	0.300525
1536.000000	0.300476
1537.000000	0.300633
1538.000000	0.300717
1539.000000	0.300829
1540.000000	0.300903
1541.000000	0.300827
1542.000000	0.300927
1543.000000	0.301101
1544.000000	0.301167
1545.000000	0.301415
1546.000000	0.301629
1547.000000	0.301565
1548.000000	0.301650
1549.000000	0.301702
1550.000000	0.301461
1551.000000	0.301388
1552.000000	0.301392
1553.000000	0.301370
1554.000000	0.301486
1555.000000	0.301600
1556.000000	0.301621
1557.000000	0.301594
1558.000000	0.301657
1559.000000	0.301707
1560.000000	0.301736
1561.000000	0.301864
1562.000000	0.301897
1563.000000	0.301900
1564.000000	0.301903
1565.000000	0.301879
1566.000000	0.301836
1567.000000	0.301859
1568.000000	0.301835
1569.000000	0.301835
1570.000000	0.301887
1571.000000	0.301980
1572.000000	0.301979
1573.000000	0.302021
1574.000000	0.301977
1575.000000	0.301758
1576.000000	0.301677
1577.000000	0.301646
1578.000000	0.301599
1579.000000	0.301683
1580.000000	0.301697
1581.000000	0.301704
1582.000000	0.301708
1583.000000	0.301659
1584.000000	0.301601
1585.000000	0.301700
1586.000000	0.301762
1587.000000	0.301782
1588.000000	0.301788
1589.000000	0.301704
1590.000000	0.301744
1591.000000	0.301915
1592.000000	0.301978
1593.000000	0.302109
1594.000000	0.302183
1595.000000	0.302178
1596.000000	0.302235
1597.000000	0.302396
1598.000000	0.302426
1599.000000	0.302405
1600.000000	0.302386
1601.000000	0.302430
1602.000000	0.302418
1603.000000	0.302332
1604.000000	0.302358
1605.000000	0.302459
1606.000000	0.302478
1607.000000	0.302694
1608.000000	0.302699
1609.000000	0.302476
1610.000000	0.302418
1611.000000	0.302395
1612.000000	0.302356
1613.000000	0.302540
1614.000000	0.302559
1615.000000	0.302465
1616.000000	0.302547
1617.000000	0.302604
1618.000000	0.302710
1619.000000	0.302890
1620.000000	0.303128
1621.000000	0.303488
1622.000000	0.303774
1623.000000	0.304094
1624.000000	0.304308
1625.000000	0.304199
1626.000000	0.304307
1627.000000	0.304568
1628.000000	0.304730
1629.000000	0.304902
1630.000000	0.305055
1631.000000	0.305056
1632.000000	0.305111
1633.000000	0.305232
1634.000000	0.305366
1635.000000	0.305478
1636.000000	0.305645
1637.000000	0.305961
1638.000000	0.306098
1639.000000	0.306226
1640.000000	0.306342
1641.000000	0.306445
1642.000000	0.306533
1643.000000	0.306608
1644.000000	0.306769
1645.000000	0.306950
1646.000000	0.307077
1647.000000	0.307351
1648.000000	0.307408
1649.000000	0.307337
1650.000000	0.307433
1651.000000	0.307593
1652.000000	0.307745
1653.000000	0.307895
1654.000000	0.308084
1655.000000	0.308193
1656.000000	0.308272
1657.000000	0.308502
1658.000000	0.308635
1659.000000	0.308739
1660.000000	0.308985
1661.000000	0.309262
1662.000000	0.309440
1663.000000	0.309557
1664.000000	0.309729
1665.000000	0.309893
1666.000000	0.310037
1667.000000	0.310158
1668.000000	0.310299
1669.000000	0.310292
1670.000000	0.310358
1671.000000	0.310667
1672.000000	0.310835
1673.000000	0.310898
1674.000000	0.310974
1675.000000	0.311079
1676.000000	0.311145
1677.000000	0.311273
1678.000000	0.311429
1679.000000	0.311516
1680.000000	0.311508
1681.000000	0.311519
1682.000000	0.311726
1683.000000	0.311870
1684.000000	0.311867
1685.000000	0.312032
1686.000000	0.312176
1687.000000	0.312155
1688.000000	0.312121
1689.000000	0.312274
1690.000000	0.312369
1691.000000	0.312432
1692.000000	0.312583
1693.000000	0.312650
1694.000000	0.312499
1695.000000	0.312536
1696.000000	0.312705
1697.000000	0.312675
1698.000000	0.312500
1699.000000	0.312540
1700.000000	0.312660
1701.000000	0.312778
1702.000000	0.312892
1703.000000	0.312930
1704.000000	0.312858
1705.000000	0.312904
1706.000000	0.313078
1707.000000	0.313239
1708.000000	0.313507
1709.000000	0.313539
1710.000000	0.313555
1711.000000	0.313562
1712.000000	0.313329
1713.000000	0.313312
1714.000000	0.313533
1715.000000	0.313629
1716.000000	0.313795
1717.000000	0.313879
1718.000000	0.313802
1719.000000	0.313777
1720.000000	0.313762
1721.000000	0.313857
1722.000000	0.314033
1723.000000	0.314178
1724.000000	0.314469
1725.000000	0.314640
1726.000000	0.314577
1727.000000	0.314693
1728.000000	0.314800
1729.000000	0.314866
1730.000000	0.315140
1731.000000	0.315301
1732.000000	0.315425
1733.000000	0.315550
1734.000000	0.315491
1735.000000	0.315572
1736.000000	0.315645
1737.000000	0.315708
1738.000000	0.315884
1739.000000	0.315915
1740.000000	0.315808
1741.000000	0.315790
1742.000000	0.315766
1743.000000	0.315847
1744.000000	0.315980
1745.000000	0.316040
1746.000000	0.316093
1747.000000	0.316249
1748.000000	0.316308
1749.000000	0.316362
1750.000000	0.316442
1751.000000	0.316642
1752.000000	0.316841
1753.000000	0.316970
1754.000000	0.317076
1755.000000	0.316972
1756.000000	0.317013
1757.000000	0.317172
1758.000000	0.317311
1759.000000	0.317564
1760.000000	0.317667
1761.000000	0.317613
1762.000000	0.317594
1763.000000	0.317486
1764.000000	0.317479
1765.000000	0.317520
1766.000000	0.317558
1767.000000	0.317587
1768.000000	0.317538
1769.000000	0.317418
1770.000000	0.317582
1771.000000	0.317901
1772.000000	0.318019
1773.000000	0.318226
1774.000000	0.318273
1775.000000	0.318083
1776.000000	0.318064
1777.000000	0.318082
1778.000000	0.318073
1779.000000	0.318017
1780.000000	0.318079
1781.000000	0.318153
1782.000000	0.318288
1783.000000	0.318555
1784.000000	0.318918
1785.000000	0.319029
1786.000000	0.319041
1787.000000	0.319177
1788.000000	0.319154
1789.000000	0.319252
1790.000000	0.319350
1791.000000	0.319449
1792.000000	0.319741
1793.000000	0.319814
1794.000000	0.319746
1795.000000	0.319839
1796.000000	0.319826
1797.000000	0.319879
1798.000000	0.320209
1799.000000	0.320283
1800.000000	0.320092
1801.000000	0.319973
1802.000000	0.320215
1803.000000	0.320395
1804.000000	0.320755
1805.000000	0.322039
1806.000000	0.322481
1807.000000	0.322671
1808.000000	0.322523
1809.000000	0.322116
1810.000000	0.321077
1811.000000	0.320724
1812.000000	0.320206
1813.000000	0.320047
1814.000000	0.320643
1815.000000	0.320699
1816.000000	0.320458
1817.000000	0.320271
1818.000000	0.320193
1819.000000	0.320115
1820.000000	0.319225
1821.000000	0.318536
1822.000000	0.318565
1823.000000	0.318542
1824.000000	0.318793
1825.000000	0.320393
1826.000000	0.320830
1827.000000	0.320409
1828.000000	0.320261
1829.000000	0.320448
1830.000000	0.320054
1831.000000	0.319698
1832.000000	0.319185
1833.000000	0.319132
1834.000000	0.319205
1835.000000	0.319248
1836.000000	0.319624
1837.000000	0.319803
1838.000000	0.320052
1839.000000	0.319279
1840.000000	0.318316
1841.000000	0.318254
1842.000000	0.317713
1843.000000	0.316379
1844.000000	0.315871
1845.000000	0.315584
1846.000000	0.315586
1847.000000	0.315786
1848.000000	0.316261
1849.000000	0.316786
1850.000000	0.316808
1851.000000	0.316406
1852.000000	0.315193
1853.000000	0.314629
1854.000000	0.313738
1855.000000	0.313058
1856.000000	0.312663
1857.000000	0.312036
1858.000000	0.311528
1859.000000	0.310813
1860.000000	0.309365
1861.000000	0.308592
1862.000000	0.307646
1863.000000	0.306496
1864.000000	0.305358
1865.000000	0.304458
1866.000000	0.303325
1867.000000	0.301864
1868.000000	0.300439
1869.000000	0.299305
1870.000000	0.298127
1871.000000	0.297007
1872.000000	0.296331
1873.000000	0.295116
1874.000000	0.293806
1875.000000	0.292272
1876.000000	0.290376
1877.000000	0.287670
1878.000000	0.285256
1879.000000	0.282823
1880.000000	0.280115
1881.000000	0.277697
1882.000000	0.274422
1883.000000	0.270792
1884.000000	0.267992
1885.000000	0.265362
1886.000000	0.262096
1887.000000	0.259048
1888.000000	0.256254
1889.000000	0.251831
1890.000000	0.248078
1891.000000	0.244352
1892.000000	0.240348
1893.000000	0.237437
1894.000000	0.234095
1895.000000	0.230615
1896.000000	0.227550
1897.000000	0.224284
1898.000000	0.219646
1899.000000	0.216161
1900.000000	0.213251
1901.000000	0.210481
1902.000000	0.207870
1903.000000	0.204678
1904.000000	0.201737
1905.000000	0.198761
1906.000000	0.196238
1907.000000	0.194342
1908.000000	0.192875
1909.000000	0.190737
1910.000000	0.189065
1911.000000	0.187218
1912.000000	0.185318
1913.000000	0.184224
1914.000000	0.182977
1915.000000	0.182015
1916.000000	0.181204
1917.000000	0.180034
1918.000000	0.178721
1919.000000	0.177482
1920.000000	0.175818
1921.000000	0.174455
1922.000000	0.173887
1923.000000	0.173259
1924.000000	0.172796
1925.000000	0.172664
1926.000000	0.172529
1927.000000	0.172712
1928.000000	0.172833
1929.000000	0.173229
1930.000000	0.173654
1931.000000	0.173945
1932.000000	0.174089
1933.000000	0.174372
1934.000000	0.174405
1935.000000	0.173997
1936.000000	0.173727
1937.000000	0.173571
1938.000000	0.173021
1939.000000	0.172778
1940.000000	0.172878
1941.000000	0.172706
1942.000000	0.172205
1943.000000	0.172427
1944.000000	0.172135
1945.000000	0.171723
1946.000000	0.171880
1947.000000	0.171675
1948.000000	0.171296
1949.000000	0.170992
1950.000000	0.170760
1951.000000	0.170394
1952.000000	0.169867
1953.000000	0.169689
1954.000000	0.169731
1955.000000	0.169096
1956.000000	0.168634
1957.000000	0.168436
1958.000000	0.168287
1959.000000	0.168543
1960.000000	0.168735
1961.000000	0.168444
1962.000000	0.168214
1963.000000	0.167748
1964.000000	0.167433
1965.000000	0.167149
1966.000000	0.167229
1967.000000	0.167252
1968.000000	0.167236
1969.000000	0.167859
1970.000000	0.168378
1971.000000	0.168634
1972.000000	0.168977
1973.000000	0.169024
1974.000000	0.168471
1975.000000	0.168496
1976.000000	0.168762
1977.000000	0.169058
1978.000000	0.169265
1979.000000	0.169192
1980.000000	0.169663
1981.000000	0.170047
1982.000000	0.170806
1983.000000	0.171682
1984.000000	0.172208
1985.000000	0.172762
1986.000000	0.173002
1987.000000	0.172764
1988.000000	0.172895
1989.000000	0.173181
1990.000000	0.173220
1991.000000	0.174364
1992.000000	0.175252
1993.000000	0.175942
1994.000000	0.176810
1995.000000	0.177097
1996.000000	0.177797
1997.000000	0.178232
1998.000000	0.178525
1999.000000	0.179006
2000.000000	0.179447
2001.000000	0.179687
2002.000000	0.180689
2003.000000	0.182362
2004.000000	0.183799
2005.000000	0.185049
2006.000000	0.186179
2007.000000	0.186598
2008.000000	0.187261
2009.000000	0.187851
2010.000000	0.188453
2011.000000	0.188758
2012.000000	0.189517
2013.000000	0.190498
2014.000000	0.191212
2015.000000	0.192020
2016.000000	0.192883
2017.000000	0.193158
2018.000000	0.193882
2019.000000	0.194914
2020.000000	0.196241
2021.000000	0.197554
2022.000000	0.199209
2023.000000	0.200314
2024.000000	0.201208
2025.000000	0.202127
2026.000000	0.202857
2027.000000	0.203358
2028.000000	0.203648
2029.000000	0.204378
2030.000000	0.204787
2031.000000	0.205395
2032.000000	0.206639
2033.000000	0.207519
2034.000000	0.208446
2035.000000	0.209709
2036.000000	0.210573
2037.000000	0.211314
2038.000000	0.211999
2039.000000	0.212661
2040.000000	0.212715
2041.000000	0.213763
2042.000000	0.214790
2043.000000	0.215132
2044.000000	0.216169
2045.000000	0.216732
2046.000000	0.217244
2047.000000	0.218028
2048.000000	0.219375
2049.000000	0.220351
2050.000000	0.220997
2051.000000	0.221482
2052.000000	0.221740
2053.000000	0.222001
2054.000000	0.222185
2055.000000	0.222349
2056.000000	0.222841
2057.000000	0.223676
2058.000000	0.224430
2059.000000	0.225079
2060.000000	0.225812
2061.000000	0.226576
2062.000000	0.227255
2063.000000	0.228029
2064.000000	0.228658
2065.000000	0.229440
2066.000000	0.230025
2067.000000	0.230739
2068.000000	0.231423
2069.000000	0.231547
2070.000000	0.231381
2071.000000	0.231113
2072.000000	0.231100
2073.000000	0.232139
2074.000000	0.233328
2075.000000	0.234318
2076.000000	0.235846
2077.000000	0.236660
2078.000000	0.236756
2079.000000	0.237335
2080.000000	0.237768
2081.000000	0.238489
2082.000000	0.239475
2083.000000	0.240833
2084.000000	0.241608
2085.000000	0.242140
2086.000000	0.242564
2087.000000	0.242739
2088.000000	0.242443
2089.000000	0.242580
2090.000000	0.242705
2091.000000	0.242455
2092.000000	0.242698
2093.000000	0.243162
2094.000000	0.244140
2095.000000	0.246060
2096.000000	0.247240
2097.000000	0.248630
2098.000000	0.249703
2099.000000	0.249462
2100.000000	0.249026
2101.000000	0.249019
2102.000000	0.249103
2103.000000	0.249673
2104.000000	0.250810
2105.000000	0.251847
2106.000000	0.253269
2107.000000	0.254142
2108.000000	0.255055
2109.000000	0.255529
2110.000000	0.254812
2111.000000	0.255174
2112.000000	0.255895
2113.000000	0.256323
2114.000000	0.257196
2115.000000	0.258485
2116.000000	0.258748
2117.000000	0.258835
2118.000000	0.258922
2119.000000	0.258581
2120.000000	0.258815
2121.000000	0.259529
2122.000000	0.259681
2123.000000	0.259732
2124.000000	0.259867
2125.000000	0.259458
2126.000000	0.259507
2127.000000	0.260442
2128.000000	0.260719
2129.000000	0.260427
2130.000000	0.260524
2131.000000	0.260610
2132.000000	0.260790
2133.000000	0.261795
2134.000000	0.262245
2135.000000	0.261973
2136.000000	0.261564
2137.000000	0.261348
2138.000000	0.260796
2139.000000	0.260800
2140.000000	0.261477
2141.000000	0.261632
2142.000000	0.261395
2143.000000	0.261552
2144.000000	0.261798
2145.000000	0.262224
2146.000000	0.263147
2147.000000	0.264560
2148.000000	0.264734
2149.000000	0.264963
2150.000000	0.266098
2151.000000	0.266117
2152.000000	0.266097
2153.000000	0.266121
2154.000000	0.266307
2155.000000	0.266043
2156.000000	0.266107
2157.000000	0.267203
2158.000000	0.267429
2159.000000	0.266845
2160.000000	0.266708
2161.000000	0.266129
2162.000000	0.266249
2163.000000	0.267231
2164.000000	0.267352
2165.000000	0.267240
2166.000000	0.267469
2167.000000	0.267786
2168.000000	0.267069
2169.000000	0.266530
2170.000000	0.266165
2171.000000	0.266105
2172.000000	0.265749
2173.000000	0.266010
2174.000000	0.267365
2175.000000	0.267636
2176.000000	0.267176
2177.000000	0.267162
2178.000000	0.267401
2179.000000	0.267740
2180.000000	0.268453
2181.000000	0.268635
2182.000000	0.268572
2183.000000	0.266825
2184.000000	0.265286
2185.000000	0.264539
2186.000000	0.264719
2187.000000	0.265492
2188.000000	0.266495
2189.000000	0.267114
2190.000000	0.266493
2191.000000	0.267367
2192.000000	0.267781
2193.000000	0.268266
2194.000000	0.268314
2195.000000	0.268353
2196.000000	0.268061
2197.000000	0.266801
2198.000000	0.266563
2199.000000	0.266874
2200.000000	0.266972
2201.000000	0.267446
2202.000000	0.268117
2203.000000	0.269155
2204.000000	0.269646
2205.000000	0.268391
2206.000000	0.267585
2207.000000	0.266977
2208.000000	0.266439
2209.000000	0.267421
2210.000000	0.267752
2211.000000	0.264992
2212.000000	0.262924
2213.000000	0.261803
2214.000000	0.260488
2215.000000	0.259709
2216.000000	0.260232
2217.000000	0.260979
2218.000000	0.261718
2219.000000	0.263575
2220.000000	0.267638
2221.000000	0.268604
2222.000000	0.267964
2223.000000	0.268679
2224.000000	0.267431
2225.000000	0.268883
2226.000000	0.273770
2227.000000	0.276257
2228.000000	0.277111
2229.000000	0.276682
2230.000000	0.275646
2231.000000	0.275392
2232.000000	0.274668
2233.000000	0.275537
2234.000000	0.274851
2235.000000	0.271507
2236.000000	0.269877
2237.000000	0.268194
2238.000000	0.266761
2239.000000	0.266194
2240.000000	0.265473
2241.000000	0.264644
2242.000000	0.264374
2243.000000	0.264221
2244.000000	0.264119
2245.000000	0.265008
2246.000000	0.265059
2247.000000	0.264294
2248.000000	0.263880
2249.000000	0.263676
2250.000000	0.262328
2251.000000	0.261082
2252.000000	0.261755
2253.000000	0.263912
2254.000000	0.267782
2255.000000	0.270236
2256.000000	0.271101
2257.000000	0.269151
2258.000000	0.266424
2259.000000	0.268085
2260.000000	0.268731
2261.000000	0.267674
2262.000000	0.266996
2263.000000	0.264760
2264.000000	0.258808
2265.000000	0.257424
2266.000000	0.258151
2267.000000	0.258330
2268.000000	0.260108
2269.000000	0.260434
2270.000000	0.260451
2271.000000	0.259767
2272.000000	0.257307
2273.000000	0.257321
2274.000000	0.258590
2275.000000	0.258696
2276.000000	0.260481
2277.000000	0.260108
2278.000000	0.256820
2279.000000	0.255088
2280.000000	0.253887
2281.000000	0.253953
2282.000000	0.255283
2283.000000	0.255463
2284.000000	0.255374
2285.000000	0.253594
2286.000000	0.251458
2287.000000	0.251015
2288.000000	0.250694
2289.000000	0.251222
2290.000000	0.253205
2291.000000	0.253890
2292.000000	0.251848
2293.000000	0.251024
2294.000000	0.250216
2295.000000	0.247524
2296.000000	0.246787
2297.000000	0.248357
2298.000000	0.247958
2299.000000	0.248080
2300.000000	0.247194
2301.000000	0.244881
2302.000000	0.242744
2303.000000	0.238847
2304.000000	0.236472
2305.000000	0.235519
2306.000000	0.234287
2307.000000	0.233141
2308.000000	0.233044
2309.000000	0.233858
2310.000000	0.230353
2311.000000	0.228770
2312.000000	0.228599
2313.000000	0.226551
2314.000000	0.227521
2315.000000	0.228991
2316.000000	0.229390
2317.000000	0.228544
2318.000000	0.226753
2319.000000	0.226507
2320.000000	0.227297
2321.000000	0.227640
2322.000000	0.229118
2323.000000	0.229029
2324.000000	0.226376
2325.000000	0.225225
2326.000000	0.223878
2327.000000	0.222837
2328.000000	0.224266
2329.000000	0.225961
2330.000000	0.227035
2331.000000	0.227877
2332.000000	0.227508
2333.000000	0.227424
2334.000000	0.226667
2335.000000	0.225076
2336.000000	0.222235
2337.000000	0.219967
2338.000000	0.216120
2339.000000	0.215191
2340.000000	0.215916
2341.000000	0.216734
2342.000000	0.219160
2343.000000	0.219644
2344.000000	0.220621
2345.000000	0.221327
2346.000000	0.220865
2347.000000	0.220755
2348.000000	0.221995
2349.000000	0.218692
2350.000000	0.214771
2351.000000	0.212786
2352.000000	0.210180
2353.000000	0.209092
2354.000000	0.210855
2355.000000	0.212639
2356.000000	0.212493
2357.000000	0.212477
2358.000000	0.210687
2359.000000	0.206015
2360.000000	0.202493
2361.000000	0.200753
2362.000000	0.197961
2363.000000	0.194217
2364.000000	0.191176
2365.000000	0.189936
2366.000000	0.191748
2367.000000	0.194131
2368.000000	0.196838
2369.000000	0.198157
2370.000000	0.193757
2371.000000	0.193134
2372.000000	0.193384
2373.000000	0.190818
2374.000000	0.190538
2375.000000	0.187192
2376.000000	0.185151
2377.000000	0.181986
2378.000000	0.178349
2379.000000	0.179207
2380.000000	0.177469
2381.000000	0.178317
2382.000000	0.179826
2383.000000	0.178073
2384.000000	0.179981
2385.000000	0.184835
2386.000000	0.189247
2387.000000	0.190144
2388.000000	0.186632
2389.000000	0.181545
2390.000000	0.175432
2391.000000	0.170339
2392.000000	0.172880
2393.000000	0.172939
2394.000000	0.170940
2395.000000	0.174537
2396.000000	0.171002
2397.000000	0.163921
2398.000000	0.160157
2399.000000	0.159388
2400.000000	0.163525
2401.000000	0.170444
2402.000000	0.176110
2403.000000	0.181740
2404.000000	0.183431
2405.000000	0.179548
2406.000000	0.177899
2407.000000	0.176214
2408.000000	0.172908
2409.000000	0.170870
2410.000000	0.170432
2411.000000	0.165267
2412.000000	0.155667
2413.000000	0.148997
2414.000000	0.141797
2415.000000	0.129978
2416.000000	0.132739
2417.000000	0.142170
2418.000000	0.155098
2419.000000	0.174722
2420.000000	0.172940
2421.000000	0.167737
2422.000000	0.157491
2423.000000	0.146346
2424.000000	0.155474
2425.000000	0.164075
2426.000000	0.171346
2427.000000	0.170316
2428.000000	0.158601
2429.000000	0.153785
2430.000000	0.157399
2431.000000	0.161961
2432.000000	0.165905
2433.000000	0.162368
2434.000000	0.148620
2435.000000	0.142278
2436.000000	0.144204
2437.000000	0.148733
2438.000000	0.155713
2439.000000	0.154488
2440.000000	0.156969
2441.000000	0.160772
2442.000000	0.164986
2443.000000	0.180649
2444.000000	0.179100
2445.000000	0.165217
2446.000000	0.155813
2447.000000	0.141818
2448.000000	0.134986
2449.000000	0.136028
2450.000000	0.134386
2451.000000	0.128096
2452.000000	0.128278
2453.000000	0.131464
2454.000000	0.122251
2455.000000	0.122313
2456.000000	0.117725
2457.000000	0.118513
2458.000000	0.138870
2459.000000	0.133364
2460.000000	0.137632
2461.000000	0.145673
2462.000000	0.135183
2463.000000	0.147286
2464.000000	0.154337
2465.000000	0.144442
2466.000000	0.143539
2467.000000	0.146820
2468.000000	0.147463
2469.000000	0.157655
2470.000000	0.168959
2471.000000	0.172409
2472.000000	0.160562
2473.000000	0.143102
2474.000000	0.118068
2475.000000	0.076596
2476.000000	0.067618
2477.000000	0.091820
2478.000000	0.128790
2479.000000	0.163687
2480.000000	0.170067
2481.000000	0.159697
2482.000000	0.126284
2483.000000	0.139541
2484.000000	0.193508
2485.000000	0.188388
2486.000000	0.157126
2487.000000	0.127509
2488.000000	0.058849
2489.000000	0.033112
2490.000000	0.065520
2491.000000	0.081145
2492.000000	0.090705
2493.000000	0.111653
2494.000000	0.109620
2495.000000	0.083613
2496.000000	0.060939
2497.000000	0.017267
2498.000000	0.013014
2499.000000	0.017531
2500.000000	0.025452
