# Wavelength	SM1200H-40_HEX-50_FV7-10_00002.asd.rts.txt
350.000000	0.400338
351.000000	0.391735
352.000000	0.403431
353.000000	0.401375
354.000000	0.383911
355.000000	0.398538
356.000000	0.409031
357.000000	0.408995
358.000000	0.403404
359.000000	0.401739
360.000000	0.406235
361.000000	0.414326
362.000000	0.414846
363.000000	0.409796
364.000000	0.404103
365.000000	0.411007
366.000000	0.413747
367.000000	0.409311
368.000000	0.407732
369.000000	0.412387
370.000000	0.415898
371.000000	0.409830
372.000000	0.406848
373.000000	0.407574
374.000000	0.411807
375.000000	0.419149
376.000000	0.422281
377.000000	0.420649
378.000000	0.420346
379.000000	0.421457
380.000000	0.422041
381.000000	0.421242
382.000000	0.421049
383.000000	0.420906
384.000000	0.420585
385.000000	0.419373
386.000000	0.422058
387.000000	0.427076
388.000000	0.424748
389.000000	0.425855
390.000000	0.429150
391.000000	0.429138
392.000000	0.427141
393.000000	0.426798
394.000000	0.429733
395.000000	0.430622
396.000000	0.431100
397.000000	0.431731
398.000000	0.431742
399.000000	0.431557
400.000000	0.431454
401.000000	0.431420
402.000000	0.431398
403.000000	0.431866
404.000000	0.433200
405.000000	0.433880
406.000000	0.434113
407.000000	0.434322
408.000000	0.434945
409.000000	0.435841
410.000000	0.436565
411.000000	0.436416
412.000000	0.436769
413.000000	0.437822
414.000000	0.439242
415.000000	0.439233
416.000000	0.438581
417.000000	0.438216
418.000000	0.439113
419.000000	0.439914
420.000000	0.440332
421.000000	0.440901
422.000000	0.441563
423.000000	0.441809
424.000000	0.441346
425.000000	0.441913
426.000000	0.442709
427.000000	0.442966
428.000000	0.443088
429.000000	0.443580
430.000000	0.444378
431.000000	0.444567
432.000000	0.445165
433.000000	0.445790
434.000000	0.445687
435.000000	0.445784
436.000000	0.446215
437.000000	0.446816
438.000000	0.447084
439.000000	0.447253
440.000000	0.447542
441.000000	0.447371
442.000000	0.447755
443.000000	0.448400
444.000000	0.448369
445.000000	0.448817
446.000000	0.449399
447.000000	0.449257
448.000000	0.449766
449.000000	0.450428
450.000000	0.450859
451.000000	0.451479
452.000000	0.451779
453.000000	0.451666
454.000000	0.451916
455.000000	0.452270
456.000000	0.452628
457.000000	0.452647
458.000000	0.453220
459.000000	0.453926
460.000000	0.454334
461.000000	0.454413
462.000000	0.454662
463.000000	0.454999
464.000000	0.455275
465.000000	0.455378
466.000000	0.455408
467.000000	0.455864
468.000000	0.456320
469.000000	0.456418
470.000000	0.456258
471.000000	0.456448
472.000000	0.456735
473.000000	0.456965
474.000000	0.457264
475.000000	0.457513
476.000000	0.457900
477.000000	0.458345
478.000000	0.458409
479.000000	0.458525
480.000000	0.458829
481.000000	0.459087
482.000000	0.459344
483.000000	0.459388
484.000000	0.460018
485.000000	0.460346
486.000000	0.460355
487.000000	0.460580
488.000000	0.460970
489.000000	0.461462
490.000000	0.461902
491.000000	0.461991
492.000000	0.462131
493.000000	0.462565
494.000000	0.462823
495.000000	0.463145
496.000000	0.463615
497.000000	0.464020
498.000000	0.464335
499.000000	0.464693
500.000000	0.465091
501.000000	0.465386
502.000000	0.465730
503.000000	0.466225
504.000000	0.466469
505.000000	0.466685
506.000000	0.467091
507.000000	0.467175
508.000000	0.467331
509.000000	0.467696
510.000000	0.468099
511.000000	0.468486
512.000000	0.468868
513.000000	0.469213
514.000000	0.469435
515.000000	0.469710
516.000000	0.470142
517.000000	0.470488
518.000000	0.470841
519.000000	0.471146
520.000000	0.471444
521.000000	0.471721
522.000000	0.471985
523.000000	0.472242
524.000000	0.472529
525.000000	0.472831
526.000000	0.473179
527.000000	0.473474
528.000000	0.473736
529.000000	0.474079
530.000000	0.474298
531.000000	0.474546
532.000000	0.474796
533.000000	0.475144
534.000000	0.475542
535.000000	0.475905
536.000000	0.476160
537.000000	0.476423
538.000000	0.476707
539.000000	0.476972
540.000000	0.477303
541.000000	0.477617
542.000000	0.477898
543.000000	0.478186
544.000000	0.478555
545.000000	0.478904
546.000000	0.479203
547.000000	0.479560
548.000000	0.479973
549.000000	0.480201
550.000000	0.480481
551.000000	0.480867
552.000000	0.481245
553.000000	0.481488
554.000000	0.481735
555.000000	0.482107
556.000000	0.482547
557.000000	0.482860
558.000000	0.483204
559.000000	0.483561
560.000000	0.483834
561.000000	0.484147
562.000000	0.484467
563.000000	0.484761
564.000000	0.485149
565.000000	0.485549
566.000000	0.485933
567.000000	0.486282
568.000000	0.486573
569.000000	0.486905
570.000000	0.487208
571.000000	0.487465
572.000000	0.487749
573.000000	0.488052
574.000000	0.488335
575.000000	0.488652
576.000000	0.488959
577.000000	0.489254
578.000000	0.489633
579.000000	0.489981
580.000000	0.490266
581.000000	0.490477
582.000000	0.490627
583.000000	0.490828
584.000000	0.491139
585.000000	0.491582
586.000000	0.491906
587.000000	0.492095
588.000000	0.492236
589.000000	0.492578
590.000000	0.492927
591.000000	0.493164
592.000000	0.493415
593.000000	0.493766
594.000000	0.494153
595.000000	0.494358
596.000000	0.494518
597.000000	0.494750
598.000000	0.494989
599.000000	0.495179
600.000000	0.495403
601.000000	0.495601
602.000000	0.495773
603.000000	0.495929
604.000000	0.496086
605.000000	0.496218
606.000000	0.496348
607.000000	0.496535
608.000000	0.496856
609.000000	0.497075
610.000000	0.497261
611.000000	0.497528
612.000000	0.497689
613.000000	0.497824
614.000000	0.498043
615.000000	0.498220
616.000000	0.498353
617.000000	0.498456
618.000000	0.498749
619.000000	0.498955
620.000000	0.499002
621.000000	0.499012
622.000000	0.499167
623.000000	0.499267
624.000000	0.499178
625.000000	0.499254
626.000000	0.499448
627.000000	0.499678
628.000000	0.499783
629.000000	0.500108
630.000000	0.500397
631.000000	0.500554
632.000000	0.500651
633.000000	0.500810
634.000000	0.501073
635.000000	0.501157
636.000000	0.501271
637.000000	0.501477
638.000000	0.501586
639.000000	0.501708
640.000000	0.501920
641.000000	0.502003
642.000000	0.502123
643.000000	0.502264
644.000000	0.502377
645.000000	0.502533
646.000000	0.502665
647.000000	0.502705
648.000000	0.502841
649.000000	0.502963
650.000000	0.503011
651.000000	0.503084
652.000000	0.503234
653.000000	0.503485
654.000000	0.503693
655.000000	0.503898
656.000000	0.504090
657.000000	0.504178
658.000000	0.504319
659.000000	0.504459
660.000000	0.504555
661.000000	0.504686
662.000000	0.504723
663.000000	0.504799
664.000000	0.505023
665.000000	0.505195
666.000000	0.505344
667.000000	0.505489
668.000000	0.505618
669.000000	0.505765
670.000000	0.505948
671.000000	0.506107
672.000000	0.506250
673.000000	0.506385
674.000000	0.506562
675.000000	0.506765
676.000000	0.506946
677.000000	0.507082
678.000000	0.507178
679.000000	0.507283
680.000000	0.507427
681.000000	0.507526
682.000000	0.507665
683.000000	0.507757
684.000000	0.507925
685.000000	0.508114
686.000000	0.508318
687.000000	0.508464
688.000000	0.508648
689.000000	0.508838
690.000000	0.509041
691.000000	0.509191
692.000000	0.509270
693.000000	0.509403
694.000000	0.509579
695.000000	0.509800
696.000000	0.509988
697.000000	0.510055
698.000000	0.510179
699.000000	0.510370
700.000000	0.510598
701.000000	0.510725
702.000000	0.510885
703.000000	0.511065
704.000000	0.511142
705.000000	0.511297
706.000000	0.511428
707.000000	0.511489
708.000000	0.511640
709.000000	0.511787
710.000000	0.511880
711.000000	0.512016
712.000000	0.512170
713.000000	0.512340
714.000000	0.512448
715.000000	0.512607
716.000000	0.512827
717.000000	0.513020
718.000000	0.513162
719.000000	0.513262
720.000000	0.513369
721.000000	0.513547
722.000000	0.513659
723.000000	0.513782
724.000000	0.513993
725.000000	0.514016
726.000000	0.514012
727.000000	0.514044
728.000000	0.514075
729.000000	0.514107
730.000000	0.514083
731.000000	0.514186
732.000000	0.514301
733.000000	0.514433
734.000000	0.514542
735.000000	0.514611
736.000000	0.514830
737.000000	0.515018
738.000000	0.514947
739.000000	0.514980
740.000000	0.515088
741.000000	0.515129
742.000000	0.515190
743.000000	0.515249
744.000000	0.515306
745.000000	0.515332
746.000000	0.515383
747.000000	0.515386
748.000000	0.515481
749.000000	0.515649
750.000000	0.515798
751.000000	0.515932
752.000000	0.516049
753.000000	0.516167
754.000000	0.516278
755.000000	0.516412
756.000000	0.516517
757.000000	0.516477
758.000000	0.516494
759.000000	0.516583
760.000000	0.516620
761.000000	0.516691
762.000000	0.516715
763.000000	0.516737
764.000000	0.517002
765.000000	0.517120
766.000000	0.517188
767.000000	0.517326
768.000000	0.517381
769.000000	0.517375
770.000000	0.517355
771.000000	0.517372
772.000000	0.517545
773.000000	0.517657
774.000000	0.517605
775.000000	0.517625
776.000000	0.517649
777.000000	0.517600
778.000000	0.517618
779.000000	0.517713
780.000000	0.517864
781.000000	0.517982
782.000000	0.518118
783.000000	0.518319
784.000000	0.518330
785.000000	0.518238
786.000000	0.518207
787.000000	0.518267
788.000000	0.518215
789.000000	0.518113
790.000000	0.518066
791.000000	0.518267
792.000000	0.518368
793.000000	0.518350
794.000000	0.518290
795.000000	0.518346
796.000000	0.518387
797.000000	0.518360
798.000000	0.518314
799.000000	0.518374
800.000000	0.518453
801.000000	0.518431
802.000000	0.518425
803.000000	0.518431
804.000000	0.518480
805.000000	0.518459
806.000000	0.518366
807.000000	0.518375
808.000000	0.518473
809.000000	0.518516
810.000000	0.518563
811.000000	0.518641
812.000000	0.518669
813.000000	0.518681
814.000000	0.518690
815.000000	0.518723
816.000000	0.518621
817.000000	0.518537
818.000000	0.518498
819.000000	0.518435
820.000000	0.518434
821.000000	0.518454
822.000000	0.518530
823.000000	0.518558
824.000000	0.518518
825.000000	0.518605
826.000000	0.518628
827.000000	0.518435
828.000000	0.518161
829.000000	0.518321
830.000000	0.518263
831.000000	0.518120
832.000000	0.518135
833.000000	0.518112
834.000000	0.518051
835.000000	0.518027
836.000000	0.517992
837.000000	0.517960
838.000000	0.517996
839.000000	0.518127
840.000000	0.518128
841.000000	0.518026
842.000000	0.517854
843.000000	0.517796
844.000000	0.517783
845.000000	0.517750
846.000000	0.517770
847.000000	0.517674
848.000000	0.517564
849.000000	0.517629
850.000000	0.517728
851.000000	0.517620
852.000000	0.517351
853.000000	0.517160
854.000000	0.517040
855.000000	0.517069
856.000000	0.517023
857.000000	0.516997
858.000000	0.517056
859.000000	0.517047
860.000000	0.516855
861.000000	0.516811
862.000000	0.516902
863.000000	0.516863
864.000000	0.516837
865.000000	0.516801
866.000000	0.516748
867.000000	0.516556
868.000000	0.516558
869.000000	0.516586
870.000000	0.516479
871.000000	0.516310
872.000000	0.516110
873.000000	0.515845
874.000000	0.515735
875.000000	0.515479
876.000000	0.515175
877.000000	0.514963
878.000000	0.514872
879.000000	0.514893
880.000000	0.514758
881.000000	0.514541
882.000000	0.514433
883.000000	0.514317
884.000000	0.513913
885.000000	0.513851
886.000000	0.513762
887.000000	0.513503
888.000000	0.513379
889.000000	0.513387
890.000000	0.513355
891.000000	0.513400
892.000000	0.513286
893.000000	0.513101
894.000000	0.513069
895.000000	0.512911
896.000000	0.512608
897.000000	0.512297
898.000000	0.512140
899.000000	0.511959
900.000000	0.511824
901.000000	0.511706
902.000000	0.511647
903.000000	0.511323
904.000000	0.511080
905.000000	0.511113
906.000000	0.511012
907.000000	0.510850
908.000000	0.510665
909.000000	0.510157
910.000000	0.509870
911.000000	0.509691
912.000000	0.509481
913.000000	0.509483
914.000000	0.509461
915.000000	0.509321
916.000000	0.508850
917.000000	0.508709
918.000000	0.508696
919.000000	0.508554
920.000000	0.508449
921.000000	0.508350
922.000000	0.508196
923.000000	0.507875
924.000000	0.507478
925.000000	0.507117
926.000000	0.506932
927.000000	0.506928
928.000000	0.506760
929.000000	0.506497
930.000000	0.506319
931.000000	0.506080
932.000000	0.505765
933.000000	0.505468
934.000000	0.505215
935.000000	0.504920
936.000000	0.504672
937.000000	0.504386
938.000000	0.504099
939.000000	0.503812
940.000000	0.503445
941.000000	0.503147
942.000000	0.502870
943.000000	0.502584
944.000000	0.502129
945.000000	0.501832
946.000000	0.501348
947.000000	0.500915
948.000000	0.500741
949.000000	0.500578
950.000000	0.500510
951.000000	0.500451
952.000000	0.500354
953.000000	0.500186
954.000000	0.500047
955.000000	0.499855
956.000000	0.499475
957.000000	0.499163
958.000000	0.499021
959.000000	0.499168
960.000000	0.498798
961.000000	0.498137
962.000000	0.497478
963.000000	0.497184
964.000000	0.496870
965.000000	0.496691
966.000000	0.496581
967.000000	0.496367
968.000000	0.496230
969.000000	0.496086
970.000000	0.495927
971.000000	0.495544
972.000000	0.495250
973.000000	0.495032
974.000000	0.494752
975.000000	0.494566
976.000000	0.494313
977.000000	0.493918
978.000000	0.493780
979.000000	0.493866
980.000000	0.493783
981.000000	0.493756
982.000000	0.493271
983.000000	0.492954
984.000000	0.493005
985.000000	0.492833
986.000000	0.492491
987.000000	0.492313
988.000000	0.492191
989.000000	0.491558
990.000000	0.491471
991.000000	0.491577
992.000000	0.491304
993.000000	0.491216
994.000000	0.491059
995.000000	0.491005
996.000000	0.490916
997.000000	0.491192
998.000000	0.491425
999.000000	0.491407
1000.000000	0.490976
1001.000000	0.492112
1002.000000	0.491016
1003.000000	0.490680
1004.000000	0.490698
1005.000000	0.491249
1006.000000	0.491053
1007.000000	0.490991
1008.000000	0.491357
1009.000000	0.490625
1010.000000	0.490381
1011.000000	0.490497
1012.000000	0.489677
1013.000000	0.489049
1014.000000	0.489319
1015.000000	0.489970
1016.000000	0.490755
1017.000000	0.490859
1018.000000	0.490532
1019.000000	0.490468
1020.000000	0.490413
1021.000000	0.489773
1022.000000	0.489217
1023.000000	0.489462
1024.000000	0.489540
1025.000000	0.489799
1026.000000	0.490234
1027.000000	0.489893
1028.000000	0.489837
1029.000000	0.490295
1030.000000	0.490570
1031.000000	0.490844
1032.000000	0.490871
1033.000000	0.490568
1034.000000	0.490388
1035.000000	0.490332
1036.000000	0.490532
1037.000000	0.490854
1038.000000	0.490707
1039.000000	0.490395
1040.000000	0.491124
1041.000000	0.491414
1042.000000	0.491267
1043.000000	0.491732
1044.000000	0.491612
1045.000000	0.491227
1046.000000	0.491327
1047.000000	0.491338
1048.000000	0.491358
1049.000000	0.491483
1050.000000	0.491924
1051.000000	0.491751
1052.000000	0.490977
1053.000000	0.490922
1054.000000	0.491025
1055.000000	0.491317
1056.000000	0.492315
1057.000000	0.493434
1058.000000	0.493420
1059.000000	0.492720
1060.000000	0.492553
1061.000000	0.492589
1062.000000	0.492783
1063.000000	0.493815
1064.000000	0.494318
1065.000000	0.494565
1066.000000	0.494854
1067.000000	0.494955
1068.000000	0.495148
1069.000000	0.495395
1070.000000	0.495453
1071.000000	0.495473
1072.000000	0.495649
1073.000000	0.495769
1074.000000	0.496151
1075.000000	0.496357
1076.000000	0.496514
1077.000000	0.496489
1078.000000	0.495922
1079.000000	0.495936
1080.000000	0.496216
1081.000000	0.496579
1082.000000	0.497548
1083.000000	0.497889
1084.000000	0.498035
1085.000000	0.498217
1086.000000	0.498004
1087.000000	0.498116
1088.000000	0.498428
1089.000000	0.498535
1090.000000	0.498504
1091.000000	0.498430
1092.000000	0.498315
1093.000000	0.498728
1094.000000	0.498870
1095.000000	0.498958
1096.000000	0.499084
1097.000000	0.499175
1098.000000	0.499338
1099.000000	0.499439
1100.000000	0.499835
1101.000000	0.500557
1102.000000	0.500625
1103.000000	0.500248
1104.000000	0.500433
1105.000000	0.500413
1106.000000	0.500581
1107.000000	0.501387
1108.000000	0.501793
1109.000000	0.501924
1110.000000	0.502172
1111.000000	0.502297
1112.000000	0.502395
1113.000000	0.502525
1114.000000	0.502522
1115.000000	0.502706
1116.000000	0.503108
1117.000000	0.503270
1118.000000	0.503345
1119.000000	0.503400
1120.000000	0.503196
1121.000000	0.503313
1122.000000	0.504061
1123.000000	0.504474
1124.000000	0.504293
1125.000000	0.504439
1126.000000	0.504313
1127.000000	0.504215
1128.000000	0.504201
1129.000000	0.504562
1130.000000	0.504675
1131.000000	0.504756
1132.000000	0.504580
1133.000000	0.504327
1134.000000	0.504240
1135.000000	0.503952
1136.000000	0.503688
1137.000000	0.503465
1138.000000	0.503360
1139.000000	0.503413
1140.000000	0.503444
1141.000000	0.503654
1142.000000	0.503681
1143.000000	0.503223
1144.000000	0.503221
1145.000000	0.503065
1146.000000	0.503039
1147.000000	0.503022
1148.000000	0.503031
1149.000000	0.502965
1150.000000	0.502988
1151.000000	0.502803
1152.000000	0.502332
1153.000000	0.502122
1154.000000	0.501796
1155.000000	0.501567
1156.000000	0.501544
1157.000000	0.501446
1158.000000	0.501175
1159.000000	0.501053
1160.000000	0.501019
1161.000000	0.500960
1162.000000	0.501131
1163.000000	0.501292
1164.000000	0.501145
1165.000000	0.500984
1166.000000	0.500893
1167.000000	0.500613
1168.000000	0.500470
1169.000000	0.500460
1170.000000	0.500515
1171.000000	0.500738
1172.000000	0.500813
1173.000000	0.500906
1174.000000	0.500888
1175.000000	0.500564
1176.000000	0.500440
1177.000000	0.500575
1178.000000	0.500565
1179.000000	0.500591
1180.000000	0.500454
1181.000000	0.500267
1182.000000	0.500095
1183.000000	0.500012
1184.000000	0.500098
1185.000000	0.500087
1186.000000	0.500155
1187.000000	0.500098
1188.000000	0.499947
1189.000000	0.499778
1190.000000	0.499649
1191.000000	0.499495
1192.000000	0.499444
1193.000000	0.499477
1194.000000	0.499332
1195.000000	0.499264
1196.000000	0.499084
1197.000000	0.499072
1198.000000	0.499232
1199.000000	0.499317
1200.000000	0.499469
1201.000000	0.499603
1202.000000	0.499519
1203.000000	0.499506
1204.000000	0.499523
1205.000000	0.499525
1206.000000	0.499379
1207.000000	0.499313
1208.000000	0.499238
1209.000000	0.499118
1210.000000	0.499068
1211.000000	0.499179
1212.000000	0.499069
1213.000000	0.498813
1214.000000	0.498815
1215.000000	0.498913
1216.000000	0.498888
1217.000000	0.498863
1218.000000	0.498846
1219.000000	0.498785
1220.000000	0.498737
1221.000000	0.498815
1222.000000	0.498882
1223.000000	0.498665
1224.000000	0.498559
1225.000000	0.498650
1226.000000	0.498626
1227.000000	0.498554
1228.000000	0.498628
1229.000000	0.498551
1230.000000	0.498263
1231.000000	0.498078
1232.000000	0.498083
1233.000000	0.498201
1234.000000	0.498386
1235.000000	0.498429
1236.000000	0.498437
1237.000000	0.498438
1238.000000	0.498160
1239.000000	0.498063
1240.000000	0.498090
1241.000000	0.497977
1242.000000	0.498028
1243.000000	0.498156
1244.000000	0.498203
1245.000000	0.498231
1246.000000	0.498175
1247.000000	0.498186
1248.000000	0.498208
1249.000000	0.498362
1250.000000	0.498473
1251.000000	0.498429
1252.000000	0.498339
1253.000000	0.498106
1254.000000	0.498064
1255.000000	0.498109
1256.000000	0.498038
1257.000000	0.498019
1258.000000	0.498140
1259.000000	0.498134
1260.000000	0.498203
1261.000000	0.498400
1262.000000	0.498403
1263.000000	0.498247
1264.000000	0.498148
1265.000000	0.498192
1266.000000	0.498280
1267.000000	0.498331
1268.000000	0.498314
1269.000000	0.498157
1270.000000	0.498037
1271.000000	0.497952
1272.000000	0.497985
1273.000000	0.498102
1274.000000	0.498172
1275.000000	0.498254
1276.000000	0.498529
1277.000000	0.498594
1278.000000	0.498372
1279.000000	0.498234
1280.000000	0.497820
1281.000000	0.497613
1282.000000	0.497647
1283.000000	0.497730
1284.000000	0.497873
1285.000000	0.497870
1286.000000	0.497777
1287.000000	0.497614
1288.000000	0.497604
1289.000000	0.497603
1290.000000	0.497444
1291.000000	0.497305
1292.000000	0.497274
1293.000000	0.497108
1294.000000	0.497076
1295.000000	0.497270
1296.000000	0.497087
1297.000000	0.496870
1298.000000	0.496885
1299.000000	0.496760
1300.000000	0.496680
1301.000000	0.496665
1302.000000	0.496563
1303.000000	0.496571
1304.000000	0.496386
1305.000000	0.496342
1306.000000	0.496149
1307.000000	0.495778
1308.000000	0.495624
1309.000000	0.495508
1310.000000	0.495375
1311.000000	0.495391
1312.000000	0.495217
1313.000000	0.494955
1314.000000	0.494826
1315.000000	0.494518
1316.000000	0.494360
1317.000000	0.494256
1318.000000	0.493869
1319.000000	0.493472
1320.000000	0.493197
1321.000000	0.492890
1322.000000	0.492635
1323.000000	0.492457
1324.000000	0.492167
1325.000000	0.491764
1326.000000	0.491418
1327.000000	0.491011
1328.000000	0.490683
1329.000000	0.490270
1330.000000	0.489818
1331.000000	0.489526
1332.000000	0.489371
1333.000000	0.489106
1334.000000	0.489107
1335.000000	0.488859
1336.000000	0.488370
1337.000000	0.487972
1338.000000	0.487453
1339.000000	0.486892
1340.000000	0.486531
1341.000000	0.486274
1342.000000	0.485893
1343.000000	0.485589
1344.000000	0.485219
1345.000000	0.484595
1346.000000	0.484300
1347.000000	0.483859
1348.000000	0.483415
1349.000000	0.483037
1350.000000	0.482556
1351.000000	0.482124
1352.000000	0.481658
1353.000000	0.481153
1354.000000	0.480641
1355.000000	0.480119
1356.000000	0.479773
1357.000000	0.479278
1358.000000	0.478907
1359.000000	0.478524
1360.000000	0.478087
1361.000000	0.477657
1362.000000	0.477236
1363.000000	0.476834
1364.000000	0.476316
1365.000000	0.475608
1366.000000	0.475015
1367.000000	0.474436
1368.000000	0.473707
1369.000000	0.473189
1370.000000	0.472470
1371.000000	0.471586
1372.000000	0.470770
1373.000000	0.469751
1374.000000	0.468699
1375.000000	0.467444
1376.000000	0.466066
1377.000000	0.464559
1378.000000	0.462562
1379.000000	0.460119
1380.000000	0.457281
1381.000000	0.454120
1382.000000	0.450782
1383.000000	0.447340
1384.000000	0.443630
1385.000000	0.439753
1386.000000	0.436145
1387.000000	0.433050
1388.000000	0.430439
1389.000000	0.428313
1390.000000	0.426795
1391.000000	0.425563
1392.000000	0.424673
1393.000000	0.424112
1394.000000	0.424248
1395.000000	0.424071
1396.000000	0.424132
1397.000000	0.423819
1398.000000	0.423371
1399.000000	0.422695
1400.000000	0.421894
1401.000000	0.420692
1402.000000	0.419265
1403.000000	0.417527
1404.000000	0.415784
1405.000000	0.414007
1406.000000	0.412302
1407.000000	0.410513
1408.000000	0.408530
1409.000000	0.406765
1410.000000	0.405005
1411.000000	0.403317
1412.000000	0.401802
1413.000000	0.400100
1414.000000	0.398563
1415.000000	0.397232
1416.000000	0.395766
1417.000000	0.394452
1418.000000	0.393228
1419.000000	0.391996
1420.000000	0.390740
1421.000000	0.389671
1422.000000	0.388564
1423.000000	0.387513
1424.000000	0.386442
1425.000000	0.385403
1426.000000	0.384265
1427.000000	0.383068
1428.000000	0.382122
1429.000000	0.381190
1430.000000	0.380214
1431.000000	0.379380
1432.000000	0.378497
1433.000000	0.377554
1434.000000	0.376661
1435.000000	0.375980
1436.000000	0.375143
1437.000000	0.374195
1438.000000	0.373260
1439.000000	0.372339
1440.000000	0.371451
1441.000000	0.370487
1442.000000	0.369742
1443.000000	0.369038
1444.000000	0.368389
1445.000000	0.367877
1446.000000	0.367453
1447.000000	0.366825
1448.000000	0.366195
1449.000000	0.365634
1450.000000	0.365047
1451.000000	0.364514
1452.000000	0.364018
1453.000000	0.363520
1454.000000	0.363022
1455.000000	0.362645
1456.000000	0.362333
1457.000000	0.361988
1458.000000	0.361627
1459.000000	0.361368
1460.000000	0.361179
1461.000000	0.360938
1462.000000	0.360749
1463.000000	0.360495
1464.000000	0.360225
1465.000000	0.360170
1466.000000	0.360138
1467.000000	0.360034
1468.000000	0.360057
1469.000000	0.360199
1470.000000	0.360194
1471.000000	0.360266
1472.000000	0.360410
1473.000000	0.360701
1474.000000	0.361131
1475.000000	0.361761
1476.000000	0.362474
1477.000000	0.362977
1478.000000	0.363387
1479.000000	0.363909
1480.000000	0.364445
1481.000000	0.365026
1482.000000	0.365817
1483.000000	0.366599
1484.000000	0.367388
1485.000000	0.368203
1486.000000	0.369068
1487.000000	0.369840
1488.000000	0.370532
1489.000000	0.371294
1490.000000	0.372026
1491.000000	0.372744
1492.000000	0.373437
1493.000000	0.374136
1494.000000	0.374651
1495.000000	0.375250
1496.000000	0.375871
1497.000000	0.376525
1498.000000	0.377308
1499.000000	0.377942
1500.000000	0.378446
1501.000000	0.379123
1502.000000	0.379614
1503.000000	0.380216
1504.000000	0.381013
1505.000000	0.381530
1506.000000	0.381989
1507.000000	0.382429
1508.000000	0.382874
1509.000000	0.383406
1510.000000	0.383958
1511.000000	0.384496
1512.000000	0.384844
1513.000000	0.385225
1514.000000	0.385661
1515.000000	0.385923
1516.000000	0.386228
1517.000000	0.386431
1518.000000	0.386598
1519.000000	0.386827
1520.000000	0.387168
1521.000000	0.387462
1522.000000	0.387663
1523.000000	0.388014
1524.000000	0.388345
1525.000000	0.388670
1526.000000	0.389081
1527.000000	0.389409
1528.000000	0.389704
1529.000000	0.389981
1530.000000	0.390113
1531.000000	0.390331
1532.000000	0.390540
1533.000000	0.390678
1534.000000	0.390913
1535.000000	0.391166
1536.000000	0.391244
1537.000000	0.391385
1538.000000	0.391625
1539.000000	0.391722
1540.000000	0.391911
1541.000000	0.392206
1542.000000	0.392353
1543.000000	0.392512
1544.000000	0.392748
1545.000000	0.392908
1546.000000	0.393061
1547.000000	0.393285
1548.000000	0.393304
1549.000000	0.393382
1550.000000	0.393558
1551.000000	0.393582
1552.000000	0.393848
1553.000000	0.394091
1554.000000	0.394093
1555.000000	0.394162
1556.000000	0.394118
1557.000000	0.394015
1558.000000	0.394018
1559.000000	0.394023
1560.000000	0.394040
1561.000000	0.394168
1562.000000	0.394160
1563.000000	0.394169
1564.000000	0.394143
1565.000000	0.394023
1566.000000	0.393918
1567.000000	0.393916
1568.000000	0.393966
1569.000000	0.394151
1570.000000	0.394256
1571.000000	0.394368
1572.000000	0.394387
1573.000000	0.394354
1574.000000	0.394333
1575.000000	0.394289
1576.000000	0.394328
1577.000000	0.394383
1578.000000	0.394427
1579.000000	0.394577
1580.000000	0.394637
1581.000000	0.394734
1582.000000	0.394749
1583.000000	0.394740
1584.000000	0.394652
1585.000000	0.394554
1586.000000	0.394552
1587.000000	0.394516
1588.000000	0.394533
1589.000000	0.394699
1590.000000	0.394716
1591.000000	0.394623
1592.000000	0.394675
1593.000000	0.394853
1594.000000	0.394899
1595.000000	0.395032
1596.000000	0.395142
1597.000000	0.395165
1598.000000	0.395178
1599.000000	0.395313
1600.000000	0.395247
1601.000000	0.395009
1602.000000	0.395020
1603.000000	0.395186
1604.000000	0.395277
1605.000000	0.395502
1606.000000	0.395652
1607.000000	0.395713
1608.000000	0.395865
1609.000000	0.396294
1610.000000	0.396400
1611.000000	0.396330
1612.000000	0.396402
1613.000000	0.396478
1614.000000	0.396534
1615.000000	0.396789
1616.000000	0.397008
1617.000000	0.397061
1618.000000	0.397196
1619.000000	0.397386
1620.000000	0.397588
1621.000000	0.397797
1622.000000	0.398115
1623.000000	0.398520
1624.000000	0.398837
1625.000000	0.399003
1626.000000	0.399166
1627.000000	0.399232
1628.000000	0.399487
1629.000000	0.399774
1630.000000	0.400155
1631.000000	0.400687
1632.000000	0.401025
1633.000000	0.401312
1634.000000	0.401608
1635.000000	0.401856
1636.000000	0.402138
1637.000000	0.402512
1638.000000	0.402752
1639.000000	0.402985
1640.000000	0.403205
1641.000000	0.403422
1642.000000	0.403660
1643.000000	0.403979
1644.000000	0.404262
1645.000000	0.404563
1646.000000	0.404722
1647.000000	0.404782
1648.000000	0.404961
1649.000000	0.405198
1650.000000	0.405575
1651.000000	0.406246
1652.000000	0.406673
1653.000000	0.406911
1654.000000	0.407338
1655.000000	0.407741
1656.000000	0.407969
1657.000000	0.408352
1658.000000	0.408601
1659.000000	0.408713
1660.000000	0.408985
1661.000000	0.409248
1662.000000	0.409536
1663.000000	0.409773
1664.000000	0.410123
1665.000000	0.410608
1666.000000	0.410989
1667.000000	0.411287
1668.000000	0.411559
1669.000000	0.411675
1670.000000	0.411891
1671.000000	0.412286
1672.000000	0.412621
1673.000000	0.412904
1674.000000	0.413265
1675.000000	0.413730
1676.000000	0.414033
1677.000000	0.414307
1678.000000	0.414482
1679.000000	0.414635
1680.000000	0.414876
1681.000000	0.415110
1682.000000	0.415344
1683.000000	0.415629
1684.000000	0.415872
1685.000000	0.416102
1686.000000	0.416237
1687.000000	0.416320
1688.000000	0.416266
1689.000000	0.416272
1690.000000	0.416384
1691.000000	0.416461
1692.000000	0.416586
1693.000000	0.416912
1694.000000	0.417160
1695.000000	0.417246
1696.000000	0.417157
1697.000000	0.417108
1698.000000	0.417027
1699.000000	0.417081
1700.000000	0.417228
1701.000000	0.417506
1702.000000	0.417755
1703.000000	0.417842
1704.000000	0.417928
1705.000000	0.418137
1706.000000	0.418469
1707.000000	0.418639
1708.000000	0.418795
1709.000000	0.418882
1710.000000	0.418854
1711.000000	0.418931
1712.000000	0.419129
1713.000000	0.419331
1714.000000	0.419551
1715.000000	0.419857
1716.000000	0.420379
1717.000000	0.420683
1718.000000	0.420866
1719.000000	0.421041
1720.000000	0.421140
1721.000000	0.421313
1722.000000	0.421560
1723.000000	0.421764
1724.000000	0.421975
1725.000000	0.422227
1726.000000	0.422373
1727.000000	0.422559
1728.000000	0.422755
1729.000000	0.422768
1730.000000	0.422834
1731.000000	0.422945
1732.000000	0.422982
1733.000000	0.423207
1734.000000	0.423469
1735.000000	0.423539
1736.000000	0.423433
1737.000000	0.423582
1738.000000	0.423772
1739.000000	0.423946
1740.000000	0.424337
1741.000000	0.424397
1742.000000	0.424175
1743.000000	0.424329
1744.000000	0.424546
1745.000000	0.424665
1746.000000	0.424907
1747.000000	0.424858
1748.000000	0.424808
1749.000000	0.424736
1750.000000	0.424714
1751.000000	0.424964
1752.000000	0.425184
1753.000000	0.425206
1754.000000	0.425314
1755.000000	0.425346
1756.000000	0.425360
1757.000000	0.425419
1758.000000	0.425525
1759.000000	0.425627
1760.000000	0.425651
1761.000000	0.425601
1762.000000	0.425617
1763.000000	0.425608
1764.000000	0.425623
1765.000000	0.425682
1766.000000	0.425760
1767.000000	0.425737
1768.000000	0.425651
1769.000000	0.425646
1770.000000	0.425774
1771.000000	0.425830
1772.000000	0.425940
1773.000000	0.426166
1774.000000	0.426293
1775.000000	0.426412
1776.000000	0.426545
1777.000000	0.426616
1778.000000	0.426773
1779.000000	0.426921
1780.000000	0.427145
1781.000000	0.427461
1782.000000	0.427596
1783.000000	0.427735
1784.000000	0.427819
1785.000000	0.427827
1786.000000	0.428108
1787.000000	0.428580
1788.000000	0.429034
1789.000000	0.429264
1790.000000	0.429470
1791.000000	0.429445
1792.000000	0.429163
1793.000000	0.429168
1794.000000	0.429237
1795.000000	0.429317
1796.000000	0.429679
1797.000000	0.429842
1798.000000	0.429687
1799.000000	0.429763
1800.000000	0.430005
1801.000000	0.428302
1802.000000	0.429418
1803.000000	0.431735
1804.000000	0.432329
1805.000000	0.432759
1806.000000	0.432807
1807.000000	0.430832
1808.000000	0.430469
1809.000000	0.430625
1810.000000	0.431736
1811.000000	0.431856
1812.000000	0.432007
1813.000000	0.432447
1814.000000	0.433012
1815.000000	0.432822
1816.000000	0.432701
1817.000000	0.432390
1818.000000	0.431326
1819.000000	0.430228
1820.000000	0.430546
1821.000000	0.430851
1822.000000	0.430560
1823.000000	0.429916
1824.000000	0.429512
1825.000000	0.428241
1826.000000	0.428089
1827.000000	0.428693
1828.000000	0.428991
1829.000000	0.429521
1830.000000	0.429172
1831.000000	0.428823
1832.000000	0.427612
1833.000000	0.427275
1834.000000	0.427416
1835.000000	0.427443
1836.000000	0.427566
1837.000000	0.427616
1838.000000	0.427668
1839.000000	0.426917
1840.000000	0.427306
1841.000000	0.427418
1842.000000	0.426991
1843.000000	0.426287
1844.000000	0.425925
1845.000000	0.424759
1846.000000	0.424280
1847.000000	0.424413
1848.000000	0.424121
1849.000000	0.423628
1850.000000	0.423079
1851.000000	0.422324
1852.000000	0.421165
1853.000000	0.420244
1854.000000	0.419169
1855.000000	0.417884
1856.000000	0.416561
1857.000000	0.415008
1858.000000	0.412690
1859.000000	0.410247
1860.000000	0.408095
1861.000000	0.405921
1862.000000	0.403831
1863.000000	0.402513
1864.000000	0.400570
1865.000000	0.398090
1866.000000	0.395704
1867.000000	0.393333
1868.000000	0.390532
1869.000000	0.387625
1870.000000	0.385241
1871.000000	0.382834
1872.000000	0.380611
1873.000000	0.377355
1874.000000	0.373108
1875.000000	0.369368
1876.000000	0.365371
1877.000000	0.360175
1878.000000	0.355546
1879.000000	0.351623
1880.000000	0.346457
1881.000000	0.340725
1882.000000	0.335316
1883.000000	0.329332
1884.000000	0.323590
1885.000000	0.317838
1886.000000	0.312012
1887.000000	0.306042
1888.000000	0.300038
1889.000000	0.293582
1890.000000	0.286996
1891.000000	0.280226
1892.000000	0.273133
1893.000000	0.266704
1894.000000	0.260918
1895.000000	0.254829
1896.000000	0.248952
1897.000000	0.243284
1898.000000	0.237667
1899.000000	0.232174
1900.000000	0.227567
1901.000000	0.223112
1902.000000	0.218893
1903.000000	0.215150
1904.000000	0.211490
1905.000000	0.208054
1906.000000	0.204949
1907.000000	0.202264
1908.000000	0.199742
1909.000000	0.197370
1910.000000	0.195444
1911.000000	0.193075
1912.000000	0.190752
1913.000000	0.188570
1914.000000	0.186262
1915.000000	0.184732
1916.000000	0.183491
1917.000000	0.182234
1918.000000	0.181238
1919.000000	0.180455
1920.000000	0.179487
1921.000000	0.178714
1922.000000	0.177793
1923.000000	0.177228
1924.000000	0.177254
1925.000000	0.177003
1926.000000	0.177474
1927.000000	0.178069
1928.000000	0.178282
1929.000000	0.178310
1930.000000	0.178669
1931.000000	0.178364
1932.000000	0.178318
1933.000000	0.178645
1934.000000	0.178395
1935.000000	0.178762
1936.000000	0.178860
1937.000000	0.178444
1938.000000	0.178519
1939.000000	0.178334
1940.000000	0.177824
1941.000000	0.177544
1942.000000	0.177683
1943.000000	0.177368
1944.000000	0.176799
1945.000000	0.176385
1946.000000	0.176339
1947.000000	0.176173
1948.000000	0.176158
1949.000000	0.176145
1950.000000	0.175568
1951.000000	0.175081
1952.000000	0.174563
1953.000000	0.174114
1954.000000	0.173589
1955.000000	0.173072
1956.000000	0.172376
1957.000000	0.172170
1958.000000	0.171935
1959.000000	0.171920
1960.000000	0.172170
1961.000000	0.172347
1962.000000	0.172706
1963.000000	0.173494
1964.000000	0.173862
1965.000000	0.174282
1966.000000	0.174213
1967.000000	0.173636
1968.000000	0.174210
1969.000000	0.174499
1970.000000	0.174894
1971.000000	0.175612
1972.000000	0.175378
1973.000000	0.175349
1974.000000	0.175179
1975.000000	0.175359
1976.000000	0.175550
1977.000000	0.176325
1978.000000	0.176944
1979.000000	0.177101
1980.000000	0.177725
1981.000000	0.178020
1982.000000	0.178237
1983.000000	0.179114
1984.000000	0.179825
1985.000000	0.180578
1986.000000	0.181181
1987.000000	0.181965
1988.000000	0.182438
1989.000000	0.182689
1990.000000	0.183129
1991.000000	0.183331
1992.000000	0.184393
1993.000000	0.185860
1994.000000	0.187439
1995.000000	0.188946
1996.000000	0.189775
1997.000000	0.190853
1998.000000	0.191426
1999.000000	0.192372
2000.000000	0.193594
2001.000000	0.195191
2002.000000	0.196193
2003.000000	0.197426
2004.000000	0.199060
2005.000000	0.200307
2006.000000	0.200775
2007.000000	0.201757
2008.000000	0.202718
2009.000000	0.202909
2010.000000	0.203871
2011.000000	0.205666
2012.000000	0.206970
2013.000000	0.207944
2014.000000	0.209462
2015.000000	0.211040
2016.000000	0.212414
2017.000000	0.214032
2018.000000	0.215801
2019.000000	0.217293
2020.000000	0.218747
2021.000000	0.220189
2022.000000	0.221296
2023.000000	0.222742
2024.000000	0.224716
2025.000000	0.226013
2026.000000	0.226964
2027.000000	0.228077
2028.000000	0.228499
2029.000000	0.229007
2030.000000	0.230048
2031.000000	0.231286
2032.000000	0.233347
2033.000000	0.235777
2034.000000	0.237293
2035.000000	0.238764
2036.000000	0.239701
2037.000000	0.239555
2038.000000	0.240182
2039.000000	0.240889
2040.000000	0.242011
2041.000000	0.243423
2042.000000	0.244921
2043.000000	0.246632
2044.000000	0.248103
2045.000000	0.248768
2046.000000	0.249007
2047.000000	0.249485
2048.000000	0.249200
2049.000000	0.250115
2050.000000	0.251506
2051.000000	0.252781
2052.000000	0.254220
2053.000000	0.255480
2054.000000	0.256980
2055.000000	0.258888
2056.000000	0.259584
2057.000000	0.260519
2058.000000	0.261278
2059.000000	0.261367
2060.000000	0.261937
2061.000000	0.262959
2062.000000	0.263894
2063.000000	0.264694
2064.000000	0.265578
2065.000000	0.266947
2066.000000	0.267847
2067.000000	0.268892
2068.000000	0.269850
2069.000000	0.270259
2070.000000	0.271353
2071.000000	0.271875
2072.000000	0.273115
2073.000000	0.274806
2074.000000	0.276239
2075.000000	0.277626
2076.000000	0.279149
2077.000000	0.280294
2078.000000	0.281074
2079.000000	0.281964
2080.000000	0.282903
2081.000000	0.283874
2082.000000	0.284792
2083.000000	0.285889
2084.000000	0.286488
2085.000000	0.286931
2086.000000	0.288051
2087.000000	0.288694
2088.000000	0.290340
2089.000000	0.292388
2090.000000	0.293427
2091.000000	0.293946
2092.000000	0.294772
2093.000000	0.294718
2094.000000	0.295578
2095.000000	0.297474
2096.000000	0.298783
2097.000000	0.299849
2098.000000	0.301305
2099.000000	0.302359
2100.000000	0.303509
2101.000000	0.305186
2102.000000	0.305983
2103.000000	0.306794
2104.000000	0.307692
2105.000000	0.308243
2106.000000	0.308322
2107.000000	0.308979
2108.000000	0.309652
2109.000000	0.310299
2110.000000	0.311162
2111.000000	0.311828
2112.000000	0.312178
2113.000000	0.312309
2114.000000	0.313119
2115.000000	0.314084
2116.000000	0.315371
2117.000000	0.316120
2118.000000	0.316520
2119.000000	0.316860
2120.000000	0.317384
2121.000000	0.317900
2122.000000	0.318496
2123.000000	0.319473
2124.000000	0.319964
2125.000000	0.320019
2126.000000	0.320238
2127.000000	0.320309
2128.000000	0.320517
2129.000000	0.320616
2130.000000	0.321052
2131.000000	0.321322
2132.000000	0.321726
2133.000000	0.322797
2134.000000	0.324054
2135.000000	0.325251
2136.000000	0.326482
2137.000000	0.327025
2138.000000	0.326775
2139.000000	0.327153
2140.000000	0.327264
2141.000000	0.327521
2142.000000	0.328388
2143.000000	0.328421
2144.000000	0.328157
2145.000000	0.328137
2146.000000	0.328077
2147.000000	0.328039
2148.000000	0.327895
2149.000000	0.328222
2150.000000	0.328954
2151.000000	0.329424
2152.000000	0.329797
2153.000000	0.329559
2154.000000	0.329520
2155.000000	0.329069
2156.000000	0.328891
2157.000000	0.328887
2158.000000	0.329154
2159.000000	0.329854
2160.000000	0.329866
2161.000000	0.329686
2162.000000	0.329830
2163.000000	0.329309
2164.000000	0.329346
2165.000000	0.330322
2166.000000	0.330459
2167.000000	0.331238
2168.000000	0.330790
2169.000000	0.330334
2170.000000	0.331387
2171.000000	0.331762
2172.000000	0.332193
2173.000000	0.332363
2174.000000	0.332196
2175.000000	0.332156
2176.000000	0.332402
2177.000000	0.332373
2178.000000	0.332058
2179.000000	0.332360
2180.000000	0.332827
2181.000000	0.332831
2182.000000	0.332460
2183.000000	0.332080
2184.000000	0.330673
2185.000000	0.329037
2186.000000	0.328066
2187.000000	0.328265
2188.000000	0.329335
2189.000000	0.330304
2190.000000	0.332059
2191.000000	0.333563
2192.000000	0.333663
2193.000000	0.332315
2194.000000	0.331696
2195.000000	0.329705
2196.000000	0.329094
2197.000000	0.329882
2198.000000	0.330219
2199.000000	0.330601
2200.000000	0.331717
2201.000000	0.333899
2202.000000	0.334555
2203.000000	0.335386
2204.000000	0.334732
2205.000000	0.332395
2206.000000	0.330103
2207.000000	0.326645
2208.000000	0.325820
2209.000000	0.325772
2210.000000	0.324987
2211.000000	0.325495
2212.000000	0.326192
2213.000000	0.327076
2214.000000	0.328066
2215.000000	0.329061
2216.000000	0.330487
2217.000000	0.331400
2218.000000	0.331691
2219.000000	0.332504
2220.000000	0.333102
2221.000000	0.334705
2222.000000	0.337860
2223.000000	0.338743
2224.000000	0.338642
2225.000000	0.340272
2226.000000	0.338262
2227.000000	0.335370
2228.000000	0.334152
2229.000000	0.329824
2230.000000	0.324385
2231.000000	0.323163
2232.000000	0.323034
2233.000000	0.322898
2234.000000	0.326504
2235.000000	0.329432
2236.000000	0.330035
2237.000000	0.328511
2238.000000	0.329102
2239.000000	0.328582
2240.000000	0.328691
2241.000000	0.331015
2242.000000	0.331748
2243.000000	0.331208
2244.000000	0.331393
2245.000000	0.331501
2246.000000	0.331681
2247.000000	0.332341
2248.000000	0.331743
2249.000000	0.330984
2250.000000	0.329238
2251.000000	0.327327
2252.000000	0.325815
2253.000000	0.325316
2254.000000	0.326682
2255.000000	0.326927
2256.000000	0.327592
2257.000000	0.328909
2258.000000	0.328800
2259.000000	0.328084
2260.000000	0.329100
2261.000000	0.328169
2262.000000	0.325345
2263.000000	0.324069
2264.000000	0.323049
2265.000000	0.320873
2266.000000	0.318486
2267.000000	0.317942
2268.000000	0.318092
2269.000000	0.316652
2270.000000	0.316242
2271.000000	0.314070
2272.000000	0.306886
2273.000000	0.305693
2274.000000	0.307831
2275.000000	0.309439
2276.000000	0.314541
2277.000000	0.317360
2278.000000	0.317012
2279.000000	0.315931
2280.000000	0.312342
2281.000000	0.308846
2282.000000	0.306702
2283.000000	0.303705
2284.000000	0.302338
2285.000000	0.300832
2286.000000	0.298884
2287.000000	0.298758
2288.000000	0.298803
2289.000000	0.297704
2290.000000	0.294771
2291.000000	0.291846
2292.000000	0.288941
2293.000000	0.286925
2294.000000	0.285505
2295.000000	0.285803
2296.000000	0.285001
2297.000000	0.283766
2298.000000	0.282835
2299.000000	0.282291
2300.000000	0.281039
2301.000000	0.279831
2302.000000	0.278182
2303.000000	0.276266
2304.000000	0.273514
2305.000000	0.269160
2306.000000	0.266485
2307.000000	0.264096
2308.000000	0.260894
2309.000000	0.261127
2310.000000	0.260895
2311.000000	0.259429
2312.000000	0.260079
2313.000000	0.260017
2314.000000	0.259449
2315.000000	0.256967
2316.000000	0.255617
2317.000000	0.253420
2318.000000	0.250469
2319.000000	0.252751
2320.000000	0.253431
2321.000000	0.253574
2322.000000	0.254467
2323.000000	0.252122
2324.000000	0.251654
2325.000000	0.252646
2326.000000	0.253644
2327.000000	0.254227
2328.000000	0.255566
2329.000000	0.257831
2330.000000	0.257170
2331.000000	0.256567
2332.000000	0.256942
2333.000000	0.254716
2334.000000	0.252643
2335.000000	0.253616
2336.000000	0.256697
2337.000000	0.257958
2338.000000	0.262709
2339.000000	0.263375
2340.000000	0.260892
2341.000000	0.259394
2342.000000	0.254828
2343.000000	0.252549
2344.000000	0.252182
2345.000000	0.250399
2346.000000	0.249071
2347.000000	0.247555
2348.000000	0.245669
2349.000000	0.242482
2350.000000	0.240410
2351.000000	0.237289
2352.000000	0.232742
2353.000000	0.229258
2354.000000	0.227778
2355.000000	0.228497
2356.000000	0.228452
2357.000000	0.229475
2358.000000	0.228645
2359.000000	0.225505
2360.000000	0.222441
2361.000000	0.219749
2362.000000	0.218065
2363.000000	0.215472
2364.000000	0.217772
2365.000000	0.218733
2366.000000	0.214549
2367.000000	0.214485
2368.000000	0.212527
2369.000000	0.211855
2370.000000	0.215756
2371.000000	0.212928
2372.000000	0.210172
2373.000000	0.206969
2374.000000	0.198236
2375.000000	0.196166
2376.000000	0.195770
2377.000000	0.193535
2378.000000	0.197748
2379.000000	0.201778
2380.000000	0.198857
2381.000000	0.196167
2382.000000	0.191519
2383.000000	0.187056
2384.000000	0.188744
2385.000000	0.190856
2386.000000	0.193857
2387.000000	0.195162
2388.000000	0.195508
2389.000000	0.192776
2390.000000	0.191101
2391.000000	0.195475
2392.000000	0.196449
2393.000000	0.196313
2394.000000	0.195739
2395.000000	0.194943
2396.000000	0.195383
2397.000000	0.197321
2398.000000	0.205241
2399.000000	0.206163
2400.000000	0.201573
2401.000000	0.199689
2402.000000	0.191251
2403.000000	0.182613
2404.000000	0.173622
2405.000000	0.166454
2406.000000	0.166843
2407.000000	0.163936
2408.000000	0.159780
2409.000000	0.157533
2410.000000	0.154458
2411.000000	0.152972
2412.000000	0.151121
2413.000000	0.156301
2414.000000	0.162855
2415.000000	0.162028
2416.000000	0.172185
2417.000000	0.171176
2418.000000	0.157963
2419.000000	0.157491
2420.000000	0.152740
2421.000000	0.152042
2422.000000	0.156694
2423.000000	0.155830
2424.000000	0.154202
2425.000000	0.156933
2426.000000	0.161950
2427.000000	0.166105
2428.000000	0.174445
2429.000000	0.176590
2430.000000	0.177430
2431.000000	0.177321
2432.000000	0.175674
2433.000000	0.191239
2434.000000	0.199834
2435.000000	0.188660
2436.000000	0.180152
2437.000000	0.164930
2438.000000	0.146479
2439.000000	0.142541
2440.000000	0.143529
2441.000000	0.140865
2442.000000	0.130848
2443.000000	0.119870
2444.000000	0.115930
2445.000000	0.115262
2446.000000	0.118105
2447.000000	0.131063
2448.000000	0.142413
2449.000000	0.133878
2450.000000	0.131645
2451.000000	0.146856
2452.000000	0.147076
2453.000000	0.147488
2454.000000	0.154357
2455.000000	0.146038
2456.000000	0.145265
2457.000000	0.160029
2458.000000	0.173776
2459.000000	0.184681
2460.000000	0.191312
2461.000000	0.191305
2462.000000	0.193976
2463.000000	0.178591
2464.000000	0.167198
2465.000000	0.169091
2466.000000	0.146448
2467.000000	0.133939
2468.000000	0.136806
2469.000000	0.130995
2470.000000	0.124854
2471.000000	0.140437
2472.000000	0.143212
2473.000000	0.111725
2474.000000	0.114585
2475.000000	0.125150
2476.000000	0.119958
2477.000000	0.137349
2478.000000	0.160201
2479.000000	0.165583
2480.000000	0.165132
2481.000000	0.185172
2482.000000	0.197502
2483.000000	0.186829
2484.000000	0.169446
2485.000000	0.146359
2486.000000	0.133235
2487.000000	0.127216
2488.000000	0.123003
2489.000000	0.095456
2490.000000	0.065216
2491.000000	0.052028
2492.000000	0.046111
2493.000000	0.079399
2494.000000	0.096622
2495.000000	0.107445
2496.000000	0.105734
2497.000000	0.101631
2498.000000	0.082926
2499.000000	0.024662
2500.000000	0.019552
