# Wavelength	SM1200H-50_FV7-50_00002.asd.rts.txt
350.000000	0.252813
351.000000	0.265650
352.000000	0.261290
353.000000	0.253684
354.000000	0.253354
355.000000	0.252680
356.000000	0.252192
357.000000	0.253071
358.000000	0.252676
359.000000	0.254257
360.000000	0.256329
361.000000	0.256428
362.000000	0.255905
363.000000	0.256550
364.000000	0.258338
365.000000	0.259714
366.000000	0.259473
367.000000	0.258022
368.000000	0.257908
369.000000	0.258920
370.000000	0.260379
371.000000	0.261392
372.000000	0.261288
373.000000	0.260892
374.000000	0.261272
375.000000	0.261509
376.000000	0.262331
377.000000	0.263223
378.000000	0.262711
379.000000	0.262504
380.000000	0.263709
381.000000	0.267425
382.000000	0.267589
383.000000	0.266410
384.000000	0.266348
385.000000	0.266542
386.000000	0.267196
387.000000	0.268184
388.000000	0.268589
389.000000	0.268891
390.000000	0.269267
391.000000	0.269482
392.000000	0.269503
393.000000	0.269763
394.000000	0.270475
395.000000	0.271035
396.000000	0.271627
397.000000	0.272189
398.000000	0.272378
399.000000	0.272870
400.000000	0.273453
401.000000	0.273429
402.000000	0.273741
403.000000	0.274087
404.000000	0.274275
405.000000	0.274620
406.000000	0.275312
407.000000	0.276167
408.000000	0.276180
409.000000	0.276120
410.000000	0.276335
411.000000	0.276923
412.000000	0.277245
413.000000	0.277378
414.000000	0.277578
415.000000	0.277910
416.000000	0.277953
417.000000	0.277736
418.000000	0.278385
419.000000	0.279059
420.000000	0.279465
421.000000	0.279697
422.000000	0.279991
423.000000	0.280200
424.000000	0.280209
425.000000	0.280490
426.000000	0.280804
427.000000	0.280975
428.000000	0.281421
429.000000	0.281727
430.000000	0.281806
431.000000	0.281958
432.000000	0.282226
433.000000	0.282477
434.000000	0.282607
435.000000	0.282753
436.000000	0.282959
437.000000	0.283201
438.000000	0.283413
439.000000	0.283509
440.000000	0.283600
441.000000	0.283790
442.000000	0.283912
443.000000	0.283980
444.000000	0.284330
445.000000	0.284557
446.000000	0.284671
447.000000	0.284635
448.000000	0.284932
449.000000	0.285344
450.000000	0.285674
451.000000	0.285932
452.000000	0.286182
453.000000	0.286404
454.000000	0.286758
455.000000	0.287026
456.000000	0.287233
457.000000	0.287306
458.000000	0.287549
459.000000	0.287848
460.000000	0.288117
461.000000	0.288420
462.000000	0.288687
463.000000	0.288750
464.000000	0.288883
465.000000	0.288958
466.000000	0.289047
467.000000	0.289508
468.000000	0.289663
469.000000	0.289602
470.000000	0.289777
471.000000	0.289958
472.000000	0.290154
473.000000	0.290388
474.000000	0.290531
475.000000	0.290625
476.000000	0.290862
477.000000	0.291217
478.000000	0.291324
479.000000	0.291451
480.000000	0.291685
481.000000	0.291710
482.000000	0.291865
483.000000	0.292188
484.000000	0.292461
485.000000	0.292664
486.000000	0.292980
487.000000	0.293279
488.000000	0.293383
489.000000	0.293433
490.000000	0.293775
491.000000	0.294038
492.000000	0.294301
493.000000	0.294566
494.000000	0.294732
495.000000	0.294927
496.000000	0.295187
497.000000	0.295447
498.000000	0.295681
499.000000	0.295947
500.000000	0.296169
501.000000	0.296377
502.000000	0.296616
503.000000	0.296833
504.000000	0.297009
505.000000	0.297233
506.000000	0.297559
507.000000	0.297741
508.000000	0.297954
509.000000	0.298246
510.000000	0.298544
511.000000	0.298848
512.000000	0.299155
513.000000	0.299391
514.000000	0.299632
515.000000	0.299932
516.000000	0.300248
517.000000	0.300498
518.000000	0.300735
519.000000	0.300935
520.000000	0.301250
521.000000	0.301577
522.000000	0.301865
523.000000	0.302107
524.000000	0.302336
525.000000	0.302573
526.000000	0.302878
527.000000	0.303161
528.000000	0.303414
529.000000	0.303693
530.000000	0.303878
531.000000	0.304103
532.000000	0.304347
533.000000	0.304581
534.000000	0.304852
535.000000	0.305133
536.000000	0.305369
537.000000	0.305581
538.000000	0.305803
539.000000	0.306061
540.000000	0.306343
541.000000	0.306643
542.000000	0.306980
543.000000	0.307260
544.000000	0.307543
545.000000	0.307794
546.000000	0.308077
547.000000	0.308348
548.000000	0.308606
549.000000	0.308768
550.000000	0.309027
551.000000	0.309340
552.000000	0.309552
553.000000	0.309775
554.000000	0.310036
555.000000	0.310343
556.000000	0.310666
557.000000	0.310919
558.000000	0.311207
559.000000	0.311453
560.000000	0.311712
561.000000	0.312034
562.000000	0.312293
563.000000	0.312562
564.000000	0.312862
565.000000	0.313091
566.000000	0.313396
567.000000	0.313712
568.000000	0.313985
569.000000	0.314317
570.000000	0.314674
571.000000	0.315007
572.000000	0.315269
573.000000	0.315516
574.000000	0.315759
575.000000	0.316052
576.000000	0.316344
577.000000	0.316579
578.000000	0.316807
579.000000	0.317067
580.000000	0.317379
581.000000	0.317713
582.000000	0.317952
583.000000	0.318171
584.000000	0.318419
585.000000	0.318735
586.000000	0.318994
587.000000	0.319229
588.000000	0.319497
589.000000	0.319744
590.000000	0.319974
591.000000	0.320196
592.000000	0.320419
593.000000	0.320656
594.000000	0.320887
595.000000	0.321067
596.000000	0.321267
597.000000	0.321515
598.000000	0.321713
599.000000	0.321874
600.000000	0.322051
601.000000	0.322212
602.000000	0.322442
603.000000	0.322658
604.000000	0.322831
605.000000	0.322994
606.000000	0.323100
607.000000	0.323179
608.000000	0.323311
609.000000	0.323426
610.000000	0.323507
611.000000	0.323558
612.000000	0.323635
613.000000	0.323707
614.000000	0.323797
615.000000	0.323918
616.000000	0.324039
617.000000	0.324158
618.000000	0.324420
619.000000	0.324739
620.000000	0.325032
621.000000	0.325286
622.000000	0.325606
623.000000	0.325902
624.000000	0.326092
625.000000	0.326259
626.000000	0.326371
627.000000	0.326445
628.000000	0.326593
629.000000	0.326748
630.000000	0.326769
631.000000	0.326800
632.000000	0.326903
633.000000	0.327026
634.000000	0.327094
635.000000	0.327178
636.000000	0.327297
637.000000	0.327428
638.000000	0.327566
639.000000	0.327640
640.000000	0.327712
641.000000	0.327771
642.000000	0.327850
643.000000	0.327971
644.000000	0.328144
645.000000	0.328256
646.000000	0.328357
647.000000	0.328465
648.000000	0.328576
649.000000	0.328709
650.000000	0.328829
651.000000	0.328898
652.000000	0.328992
653.000000	0.329146
654.000000	0.329280
655.000000	0.329428
656.000000	0.329603
657.000000	0.329747
658.000000	0.329883
659.000000	0.330046
660.000000	0.330235
661.000000	0.330464
662.000000	0.330595
663.000000	0.330683
664.000000	0.330785
665.000000	0.330884
666.000000	0.330998
667.000000	0.331109
668.000000	0.331228
669.000000	0.331359
670.000000	0.331517
671.000000	0.331705
672.000000	0.331902
673.000000	0.332076
674.000000	0.332208
675.000000	0.332273
676.000000	0.332322
677.000000	0.332438
678.000000	0.332581
679.000000	0.332733
680.000000	0.332888
681.000000	0.333004
682.000000	0.333192
683.000000	0.333387
684.000000	0.333604
685.000000	0.333778
686.000000	0.333926
687.000000	0.334033
688.000000	0.334106
689.000000	0.334170
690.000000	0.334284
691.000000	0.334444
692.000000	0.334608
693.000000	0.334809
694.000000	0.334963
695.000000	0.335103
696.000000	0.335241
697.000000	0.335384
698.000000	0.335543
699.000000	0.335707
700.000000	0.335860
701.000000	0.335936
702.000000	0.336049
703.000000	0.336192
704.000000	0.336264
705.000000	0.336378
706.000000	0.336500
707.000000	0.336638
708.000000	0.336746
709.000000	0.336828
710.000000	0.336931
711.000000	0.337106
712.000000	0.337240
713.000000	0.337352
714.000000	0.337588
715.000000	0.337749
716.000000	0.337850
717.000000	0.337973
718.000000	0.338108
719.000000	0.338257
720.000000	0.338426
721.000000	0.338547
722.000000	0.338638
723.000000	0.338755
724.000000	0.338781
725.000000	0.338795
726.000000	0.338878
727.000000	0.338924
728.000000	0.338940
729.000000	0.338976
730.000000	0.339021
731.000000	0.339138
732.000000	0.339211
733.000000	0.339263
734.000000	0.339368
735.000000	0.339470
736.000000	0.339703
737.000000	0.339965
738.000000	0.340083
739.000000	0.340204
740.000000	0.340259
741.000000	0.340288
742.000000	0.340299
743.000000	0.340278
744.000000	0.340282
745.000000	0.340342
746.000000	0.340472
747.000000	0.340557
748.000000	0.340639
749.000000	0.340763
750.000000	0.340904
751.000000	0.341014
752.000000	0.341086
753.000000	0.341157
754.000000	0.341278
755.000000	0.341382
756.000000	0.341435
757.000000	0.341383
758.000000	0.341406
759.000000	0.341514
760.000000	0.341604
761.000000	0.341674
762.000000	0.341676
763.000000	0.341612
764.000000	0.341611
765.000000	0.341561
766.000000	0.341529
767.000000	0.341581
768.000000	0.341674
769.000000	0.341773
770.000000	0.341856
771.000000	0.341899
772.000000	0.341982
773.000000	0.342052
774.000000	0.342153
775.000000	0.342227
776.000000	0.342255
777.000000	0.342224
778.000000	0.342194
779.000000	0.342191
780.000000	0.342228
781.000000	0.342273
782.000000	0.342300
783.000000	0.342384
784.000000	0.342409
785.000000	0.342396
786.000000	0.342415
787.000000	0.342466
788.000000	0.342426
789.000000	0.342390
790.000000	0.342354
791.000000	0.342327
792.000000	0.342353
793.000000	0.342398
794.000000	0.342448
795.000000	0.342586
796.000000	0.342646
797.000000	0.342601
798.000000	0.342587
799.000000	0.342582
800.000000	0.342596
801.000000	0.342640
802.000000	0.342676
803.000000	0.342651
804.000000	0.342584
805.000000	0.342472
806.000000	0.342353
807.000000	0.342362
808.000000	0.342488
809.000000	0.342577
810.000000	0.342600
811.000000	0.342555
812.000000	0.342509
813.000000	0.342478
814.000000	0.342433
815.000000	0.342339
816.000000	0.342348
817.000000	0.342436
818.000000	0.342441
819.000000	0.342410
820.000000	0.342371
821.000000	0.342287
822.000000	0.342200
823.000000	0.342177
824.000000	0.342166
825.000000	0.342206
826.000000	0.342247
827.000000	0.342206
828.000000	0.342114
829.000000	0.342058
830.000000	0.342060
831.000000	0.342145
832.000000	0.342151
833.000000	0.342203
834.000000	0.342192
835.000000	0.342075
836.000000	0.341929
837.000000	0.341837
838.000000	0.341809
839.000000	0.341741
840.000000	0.341641
841.000000	0.341538
842.000000	0.341423
843.000000	0.341356
844.000000	0.341332
845.000000	0.341314
846.000000	0.341315
847.000000	0.341300
848.000000	0.341246
849.000000	0.341179
850.000000	0.341087
851.000000	0.341001
852.000000	0.340963
853.000000	0.340898
854.000000	0.340769
855.000000	0.340741
856.000000	0.340781
857.000000	0.340691
858.000000	0.340614
859.000000	0.340513
860.000000	0.340296
861.000000	0.340167
862.000000	0.340146
863.000000	0.340091
864.000000	0.340028
865.000000	0.339952
866.000000	0.339870
867.000000	0.339703
868.000000	0.339611
869.000000	0.339549
870.000000	0.339509
871.000000	0.339374
872.000000	0.339225
873.000000	0.339054
874.000000	0.338881
875.000000	0.338626
876.000000	0.338354
877.000000	0.338111
878.000000	0.337907
879.000000	0.337821
880.000000	0.337712
881.000000	0.337574
882.000000	0.337399
883.000000	0.337217
884.000000	0.337012
885.000000	0.336895
886.000000	0.336745
887.000000	0.336546
888.000000	0.336411
889.000000	0.336316
890.000000	0.336153
891.000000	0.336048
892.000000	0.336004
893.000000	0.335944
894.000000	0.335916
895.000000	0.335723
896.000000	0.335441
897.000000	0.335124
898.000000	0.334814
899.000000	0.334466
900.000000	0.334218
901.000000	0.334057
902.000000	0.333900
903.000000	0.333752
904.000000	0.333630
905.000000	0.333440
906.000000	0.333281
907.000000	0.333111
908.000000	0.332961
909.000000	0.332744
910.000000	0.332446
911.000000	0.332118
912.000000	0.331842
913.000000	0.331650
914.000000	0.331403
915.000000	0.331149
916.000000	0.330891
917.000000	0.330704
918.000000	0.330557
919.000000	0.330393
920.000000	0.330236
921.000000	0.330116
922.000000	0.330013
923.000000	0.329839
924.000000	0.329522
925.000000	0.329260
926.000000	0.329123
927.000000	0.328775
928.000000	0.328533
929.000000	0.328323
930.000000	0.328004
931.000000	0.327806
932.000000	0.327684
933.000000	0.327605
934.000000	0.327447
935.000000	0.327069
936.000000	0.326669
937.000000	0.326337
938.000000	0.326090
939.000000	0.325858
940.000000	0.325573
941.000000	0.325356
942.000000	0.325097
943.000000	0.324894
944.000000	0.324655
945.000000	0.324394
946.000000	0.323997
947.000000	0.323642
948.000000	0.323442
949.000000	0.323115
950.000000	0.322857
951.000000	0.322687
952.000000	0.322559
953.000000	0.322307
954.000000	0.322008
955.000000	0.321694
956.000000	0.321453
957.000000	0.321285
958.000000	0.321116
959.000000	0.320956
960.000000	0.320570
961.000000	0.320237
962.000000	0.320021
963.000000	0.319773
964.000000	0.319651
965.000000	0.319557
966.000000	0.319289
967.000000	0.319088
968.000000	0.318910
969.000000	0.318620
970.000000	0.318230
971.000000	0.317940
972.000000	0.317782
973.000000	0.317646
974.000000	0.317485
975.000000	0.317284
976.000000	0.317110
977.000000	0.316953
978.000000	0.316526
979.000000	0.316410
980.000000	0.316317
981.000000	0.316152
982.000000	0.316059
983.000000	0.315851
984.000000	0.315564
985.000000	0.315320
986.000000	0.315083
987.000000	0.314799
988.000000	0.314412
989.000000	0.314363
990.000000	0.314138
991.000000	0.313852
992.000000	0.313796
993.000000	0.313692
994.000000	0.313445
995.000000	0.313241
996.000000	0.313044
997.000000	0.313035
998.000000	0.313034
999.000000	0.313094
1000.000000	0.313390
1001.000000	0.313094
1002.000000	0.313346
1003.000000	0.313078
1004.000000	0.312793
1005.000000	0.312304
1006.000000	0.311954
1007.000000	0.311426
1008.000000	0.311269
1009.000000	0.311603
1010.000000	0.311548
1011.000000	0.311225
1012.000000	0.311261
1013.000000	0.310885
1014.000000	0.310586
1015.000000	0.310508
1016.000000	0.310450
1017.000000	0.310682
1018.000000	0.311036
1019.000000	0.311227
1020.000000	0.311738
1021.000000	0.311507
1022.000000	0.310931
1023.000000	0.310829
1024.000000	0.310421
1025.000000	0.310352
1026.000000	0.310829
1027.000000	0.310815
1028.000000	0.310665
1029.000000	0.310738
1030.000000	0.310229
1031.000000	0.309833
1032.000000	0.310001
1033.000000	0.310167
1034.000000	0.310302
1035.000000	0.310783
1036.000000	0.310865
1037.000000	0.310684
1038.000000	0.310499
1039.000000	0.310190
1040.000000	0.310272
1041.000000	0.310186
1042.000000	0.310009
1043.000000	0.310181
1044.000000	0.310259
1045.000000	0.310268
1046.000000	0.310272
1047.000000	0.310386
1048.000000	0.310434
1049.000000	0.310492
1050.000000	0.310626
1051.000000	0.310833
1052.000000	0.311053
1053.000000	0.311102
1054.000000	0.311484
1055.000000	0.311641
1056.000000	0.311625
1057.000000	0.311392
1058.000000	0.311429
1059.000000	0.311291
1060.000000	0.311276
1061.000000	0.311818
1062.000000	0.312156
1063.000000	0.312319
1064.000000	0.312538
1065.000000	0.312558
1066.000000	0.312724
1067.000000	0.313052
1068.000000	0.313200
1069.000000	0.313227
1070.000000	0.313296
1071.000000	0.313189
1072.000000	0.313265
1073.000000	0.313414
1074.000000	0.313924
1075.000000	0.314161
1076.000000	0.314588
1077.000000	0.314655
1078.000000	0.314469
1079.000000	0.314742
1080.000000	0.315264
1081.000000	0.315547
1082.000000	0.316160
1083.000000	0.316475
1084.000000	0.316396
1085.000000	0.316575
1086.000000	0.316945
1087.000000	0.317138
1088.000000	0.317110
1089.000000	0.317209
1090.000000	0.317233
1091.000000	0.317251
1092.000000	0.317455
1093.000000	0.318005
1094.000000	0.318281
1095.000000	0.318495
1096.000000	0.318718
1097.000000	0.318882
1098.000000	0.319029
1099.000000	0.319055
1100.000000	0.319323
1101.000000	0.319590
1102.000000	0.319864
1103.000000	0.320343
1104.000000	0.320680
1105.000000	0.320949
1106.000000	0.321143
1107.000000	0.321204
1108.000000	0.321259
1109.000000	0.321232
1110.000000	0.321285
1111.000000	0.321361
1112.000000	0.321452
1113.000000	0.321643
1114.000000	0.321927
1115.000000	0.322149
1116.000000	0.322515
1117.000000	0.322654
1118.000000	0.322553
1119.000000	0.322612
1120.000000	0.322697
1121.000000	0.322720
1122.000000	0.322790
1123.000000	0.323152
1124.000000	0.323469
1125.000000	0.323648
1126.000000	0.323797
1127.000000	0.323947
1128.000000	0.324027
1129.000000	0.323863
1130.000000	0.324048
1131.000000	0.324525
1132.000000	0.324675
1133.000000	0.324817
1134.000000	0.324995
1135.000000	0.324991
1136.000000	0.325075
1137.000000	0.325323
1138.000000	0.325357
1139.000000	0.325351
1140.000000	0.325408
1141.000000	0.325299
1142.000000	0.325313
1143.000000	0.325355
1144.000000	0.325473
1145.000000	0.325442
1146.000000	0.325428
1147.000000	0.325506
1148.000000	0.325504
1149.000000	0.325586
1150.000000	0.325843
1151.000000	0.325954
1152.000000	0.325931
1153.000000	0.325990
1154.000000	0.326016
1155.000000	0.326023
1156.000000	0.326045
1157.000000	0.326056
1158.000000	0.325959
1159.000000	0.325935
1160.000000	0.325928
1161.000000	0.325940
1162.000000	0.326108
1163.000000	0.326275
1164.000000	0.326239
1165.000000	0.326216
1166.000000	0.326245
1167.000000	0.326152
1168.000000	0.326137
1169.000000	0.326283
1170.000000	0.326307
1171.000000	0.326268
1172.000000	0.326358
1173.000000	0.326472
1174.000000	0.326522
1175.000000	0.326595
1176.000000	0.326588
1177.000000	0.326576
1178.000000	0.326544
1179.000000	0.326480
1180.000000	0.326370
1181.000000	0.326235
1182.000000	0.326179
1183.000000	0.326283
1184.000000	0.326376
1185.000000	0.326436
1186.000000	0.326548
1187.000000	0.326608
1188.000000	0.326586
1189.000000	0.326622
1190.000000	0.326792
1191.000000	0.326816
1192.000000	0.326839
1193.000000	0.326979
1194.000000	0.327006
1195.000000	0.327045
1196.000000	0.327103
1197.000000	0.327109
1198.000000	0.327019
1199.000000	0.327021
1200.000000	0.327084
1201.000000	0.327110
1202.000000	0.327092
1203.000000	0.327040
1204.000000	0.326894
1205.000000	0.326807
1206.000000	0.326675
1207.000000	0.326655
1208.000000	0.326545
1209.000000	0.326378
1210.000000	0.326356
1211.000000	0.326399
1212.000000	0.326444
1213.000000	0.326683
1214.000000	0.326754
1215.000000	0.326700
1216.000000	0.326703
1217.000000	0.326591
1218.000000	0.326570
1219.000000	0.326658
1220.000000	0.326772
1221.000000	0.326860
1222.000000	0.326905
1223.000000	0.326912
1224.000000	0.326910
1225.000000	0.326871
1226.000000	0.326949
1227.000000	0.327012
1228.000000	0.327076
1229.000000	0.327084
1230.000000	0.327049
1231.000000	0.326942
1232.000000	0.326878
1233.000000	0.326921
1234.000000	0.326955
1235.000000	0.326962
1236.000000	0.326933
1237.000000	0.326920
1238.000000	0.326824
1239.000000	0.326736
1240.000000	0.326619
1241.000000	0.326616
1242.000000	0.326512
1243.000000	0.326395
1244.000000	0.326315
1245.000000	0.326220
1246.000000	0.326186
1247.000000	0.326291
1248.000000	0.326357
1249.000000	0.326332
1250.000000	0.326276
1251.000000	0.326172
1252.000000	0.326145
1253.000000	0.326259
1254.000000	0.326245
1255.000000	0.326209
1256.000000	0.326151
1257.000000	0.326007
1258.000000	0.325955
1259.000000	0.325847
1260.000000	0.325870
1261.000000	0.325969
1262.000000	0.325974
1263.000000	0.326032
1264.000000	0.326001
1265.000000	0.325927
1266.000000	0.325850
1267.000000	0.325875
1268.000000	0.325898
1269.000000	0.325866
1270.000000	0.325907
1271.000000	0.325839
1272.000000	0.325819
1273.000000	0.325843
1274.000000	0.325754
1275.000000	0.325708
1276.000000	0.325703
1277.000000	0.325773
1278.000000	0.325794
1279.000000	0.325795
1280.000000	0.325764
1281.000000	0.325685
1282.000000	0.325587
1283.000000	0.325606
1284.000000	0.325624
1285.000000	0.325646
1286.000000	0.325684
1287.000000	0.325665
1288.000000	0.325718
1289.000000	0.325691
1290.000000	0.325590
1291.000000	0.325549
1292.000000	0.325576
1293.000000	0.325541
1294.000000	0.325512
1295.000000	0.325596
1296.000000	0.325525
1297.000000	0.325441
1298.000000	0.325456
1299.000000	0.325362
1300.000000	0.325372
1301.000000	0.325348
1302.000000	0.325238
1303.000000	0.325206
1304.000000	0.325118
1305.000000	0.325034
1306.000000	0.324975
1307.000000	0.324968
1308.000000	0.324941
1309.000000	0.324894
1310.000000	0.324883
1311.000000	0.324920
1312.000000	0.324904
1313.000000	0.324949
1314.000000	0.324991
1315.000000	0.324899
1316.000000	0.324966
1317.000000	0.324968
1318.000000	0.324896
1319.000000	0.324947
1320.000000	0.324934
1321.000000	0.324849
1322.000000	0.324872
1323.000000	0.324897
1324.000000	0.324901
1325.000000	0.324859
1326.000000	0.324710
1327.000000	0.324553
1328.000000	0.324486
1329.000000	0.324348
1330.000000	0.324246
1331.000000	0.324162
1332.000000	0.324112
1333.000000	0.324019
1334.000000	0.324002
1335.000000	0.324028
1336.000000	0.323994
1337.000000	0.323991
1338.000000	0.324009
1339.000000	0.324032
1340.000000	0.323948
1341.000000	0.323870
1342.000000	0.323738
1343.000000	0.323567
1344.000000	0.323455
1345.000000	0.323422
1346.000000	0.323534
1347.000000	0.323501
1348.000000	0.323473
1349.000000	0.323339
1350.000000	0.323192
1351.000000	0.323140
1352.000000	0.322966
1353.000000	0.322831
1354.000000	0.322820
1355.000000	0.322703
1356.000000	0.322739
1357.000000	0.322798
1358.000000	0.322756
1359.000000	0.322686
1360.000000	0.322588
1361.000000	0.322469
1362.000000	0.322392
1363.000000	0.322281
1364.000000	0.322233
1365.000000	0.322254
1366.000000	0.322190
1367.000000	0.322110
1368.000000	0.321947
1369.000000	0.321843
1370.000000	0.321662
1371.000000	0.321384
1372.000000	0.321077
1373.000000	0.320738
1374.000000	0.320428
1375.000000	0.320131
1376.000000	0.319884
1377.000000	0.319566
1378.000000	0.319017
1379.000000	0.318291
1380.000000	0.317484
1381.000000	0.316463
1382.000000	0.315391
1383.000000	0.314290
1384.000000	0.312987
1385.000000	0.311798
1386.000000	0.310795
1387.000000	0.309864
1388.000000	0.309050
1389.000000	0.308415
1390.000000	0.307988
1391.000000	0.307756
1392.000000	0.307765
1393.000000	0.307859
1394.000000	0.308201
1395.000000	0.308520
1396.000000	0.308963
1397.000000	0.309313
1398.000000	0.309746
1399.000000	0.309943
1400.000000	0.309945
1401.000000	0.309947
1402.000000	0.309909
1403.000000	0.309738
1404.000000	0.309688
1405.000000	0.309573
1406.000000	0.309344
1407.000000	0.309174
1408.000000	0.308921
1409.000000	0.308742
1410.000000	0.308644
1411.000000	0.308508
1412.000000	0.308378
1413.000000	0.308382
1414.000000	0.308484
1415.000000	0.308572
1416.000000	0.308713
1417.000000	0.308901
1418.000000	0.308935
1419.000000	0.309063
1420.000000	0.309240
1421.000000	0.309416
1422.000000	0.309628
1423.000000	0.309881
1424.000000	0.310004
1425.000000	0.310182
1426.000000	0.310426
1427.000000	0.310641
1428.000000	0.310822
1429.000000	0.310970
1430.000000	0.311061
1431.000000	0.311206
1432.000000	0.311347
1433.000000	0.311585
1434.000000	0.311699
1435.000000	0.311830
1436.000000	0.311961
1437.000000	0.312058
1438.000000	0.312100
1439.000000	0.312158
1440.000000	0.312219
1441.000000	0.312234
1442.000000	0.312316
1443.000000	0.312384
1444.000000	0.312496
1445.000000	0.312581
1446.000000	0.312603
1447.000000	0.312628
1448.000000	0.312673
1449.000000	0.312718
1450.000000	0.312792
1451.000000	0.312864
1452.000000	0.312854
1453.000000	0.312886
1454.000000	0.312877
1455.000000	0.312861
1456.000000	0.312941
1457.000000	0.312965
1458.000000	0.312981
1459.000000	0.313030
1460.000000	0.313077
1461.000000	0.313097
1462.000000	0.313125
1463.000000	0.313145
1464.000000	0.313201
1465.000000	0.313274
1466.000000	0.313276
1467.000000	0.313333
1468.000000	0.313402
1469.000000	0.313531
1470.000000	0.313634
1471.000000	0.313723
1472.000000	0.313821
1473.000000	0.313950
1474.000000	0.314054
1475.000000	0.314225
1476.000000	0.314408
1477.000000	0.314573
1478.000000	0.314691
1479.000000	0.314743
1480.000000	0.314802
1481.000000	0.314865
1482.000000	0.314986
1483.000000	0.315122
1484.000000	0.315264
1485.000000	0.315395
1486.000000	0.315501
1487.000000	0.315615
1488.000000	0.315774
1489.000000	0.315940
1490.000000	0.315974
1491.000000	0.316115
1492.000000	0.316271
1493.000000	0.316384
1494.000000	0.316458
1495.000000	0.316531
1496.000000	0.316552
1497.000000	0.316664
1498.000000	0.316873
1499.000000	0.317006
1500.000000	0.317108
1501.000000	0.317100
1502.000000	0.316995
1503.000000	0.316999
1504.000000	0.317092
1505.000000	0.317146
1506.000000	0.317191
1507.000000	0.317180
1508.000000	0.317145
1509.000000	0.317120
1510.000000	0.317101
1511.000000	0.317156
1512.000000	0.317181
1513.000000	0.317222
1514.000000	0.317370
1515.000000	0.317437
1516.000000	0.317514
1517.000000	0.317599
1518.000000	0.317668
1519.000000	0.317699
1520.000000	0.317741
1521.000000	0.317759
1522.000000	0.317786
1523.000000	0.317882
1524.000000	0.317946
1525.000000	0.318030
1526.000000	0.318080
1527.000000	0.318101
1528.000000	0.318180
1529.000000	0.318233
1530.000000	0.318252
1531.000000	0.318312
1532.000000	0.318334
1533.000000	0.318325
1534.000000	0.318323
1535.000000	0.318316
1536.000000	0.318234
1537.000000	0.318278
1538.000000	0.318386
1539.000000	0.318421
1540.000000	0.318530
1541.000000	0.318694
1542.000000	0.318796
1543.000000	0.318887
1544.000000	0.319043
1545.000000	0.319230
1546.000000	0.319344
1547.000000	0.319404
1548.000000	0.319448
1549.000000	0.319420
1550.000000	0.319398
1551.000000	0.319477
1552.000000	0.319528
1553.000000	0.319536
1554.000000	0.319554
1555.000000	0.319555
1556.000000	0.319587
1557.000000	0.319614
1558.000000	0.319652
1559.000000	0.319640
1560.000000	0.319635
1561.000000	0.319681
1562.000000	0.319679
1563.000000	0.319699
1564.000000	0.319709
1565.000000	0.319670
1566.000000	0.319599
1567.000000	0.319623
1568.000000	0.319640
1569.000000	0.319741
1570.000000	0.319736
1571.000000	0.319627
1572.000000	0.319616
1573.000000	0.319621
1574.000000	0.319634
1575.000000	0.319757
1576.000000	0.319817
1577.000000	0.319772
1578.000000	0.319796
1579.000000	0.319951
1580.000000	0.320021
1581.000000	0.320164
1582.000000	0.320166
1583.000000	0.320024
1584.000000	0.319929
1585.000000	0.319873
1586.000000	0.319854
1587.000000	0.319891
1588.000000	0.319894
1589.000000	0.319885
1590.000000	0.319891
1591.000000	0.319922
1592.000000	0.319955
1593.000000	0.320073
1594.000000	0.320050
1595.000000	0.320004
1596.000000	0.319969
1597.000000	0.319878
1598.000000	0.319798
1599.000000	0.319804
1600.000000	0.319720
1601.000000	0.319612
1602.000000	0.319573
1603.000000	0.319577
1604.000000	0.319539
1605.000000	0.319546
1606.000000	0.319562
1607.000000	0.319629
1608.000000	0.319641
1609.000000	0.319695
1610.000000	0.319711
1611.000000	0.319710
1612.000000	0.319694
1613.000000	0.319801
1614.000000	0.319801
1615.000000	0.319764
1616.000000	0.319774
1617.000000	0.319728
1618.000000	0.319682
1619.000000	0.319597
1620.000000	0.319585
1621.000000	0.319642
1622.000000	0.319727
1623.000000	0.319829
1624.000000	0.319913
1625.000000	0.319855
1626.000000	0.319818
1627.000000	0.319864
1628.000000	0.319850
1629.000000	0.319750
1630.000000	0.319745
1631.000000	0.319647
1632.000000	0.319619
1633.000000	0.319719
1634.000000	0.319750
1635.000000	0.319806
1636.000000	0.319842
1637.000000	0.319900
1638.000000	0.319863
1639.000000	0.319834
1640.000000	0.319812
1641.000000	0.319779
1642.000000	0.319764
1643.000000	0.319846
1644.000000	0.319815
1645.000000	0.319729
1646.000000	0.319608
1647.000000	0.319439
1648.000000	0.319331
1649.000000	0.319306
1650.000000	0.319299
1651.000000	0.319395
1652.000000	0.319422
1653.000000	0.319372
1654.000000	0.319382
1655.000000	0.319319
1656.000000	0.319236
1657.000000	0.319261
1658.000000	0.319214
1659.000000	0.319241
1660.000000	0.319240
1661.000000	0.319108
1662.000000	0.319048
1663.000000	0.318964
1664.000000	0.318902
1665.000000	0.318860
1666.000000	0.318897
1667.000000	0.318883
1668.000000	0.318878
1669.000000	0.318910
1670.000000	0.318886
1671.000000	0.318928
1672.000000	0.318984
1673.000000	0.319008
1674.000000	0.319015
1675.000000	0.319079
1676.000000	0.319056
1677.000000	0.319017
1678.000000	0.318876
1679.000000	0.318770
1680.000000	0.318670
1681.000000	0.318667
1682.000000	0.318762
1683.000000	0.318795
1684.000000	0.318827
1685.000000	0.318816
1686.000000	0.318725
1687.000000	0.318721
1688.000000	0.318708
1689.000000	0.318672
1690.000000	0.318603
1691.000000	0.318589
1692.000000	0.318548
1693.000000	0.318506
1694.000000	0.318475
1695.000000	0.318472
1696.000000	0.318433
1697.000000	0.318340
1698.000000	0.318247
1699.000000	0.318241
1700.000000	0.318279
1701.000000	0.318344
1702.000000	0.318308
1703.000000	0.318248
1704.000000	0.318230
1705.000000	0.318194
1706.000000	0.318199
1707.000000	0.318188
1708.000000	0.318076
1709.000000	0.317992
1710.000000	0.318074
1711.000000	0.318082
1712.000000	0.318093
1713.000000	0.318086
1714.000000	0.318050
1715.000000	0.318058
1716.000000	0.318176
1717.000000	0.318147
1718.000000	0.318000
1719.000000	0.317893
1720.000000	0.317752
1721.000000	0.317654
1722.000000	0.317653
1723.000000	0.317567
1724.000000	0.317457
1725.000000	0.317366
1726.000000	0.317099
1727.000000	0.317031
1728.000000	0.317026
1729.000000	0.316919
1730.000000	0.317000
1731.000000	0.317019
1732.000000	0.316974
1733.000000	0.317013
1734.000000	0.316976
1735.000000	0.316996
1736.000000	0.316967
1737.000000	0.317029
1738.000000	0.317266
1739.000000	0.317255
1740.000000	0.317159
1741.000000	0.317031
1742.000000	0.316722
1743.000000	0.316697
1744.000000	0.316782
1745.000000	0.316753
1746.000000	0.316776
1747.000000	0.316685
1748.000000	0.316590
1749.000000	0.316564
1750.000000	0.316478
1751.000000	0.316477
1752.000000	0.316538
1753.000000	0.316464
1754.000000	0.316420
1755.000000	0.316374
1756.000000	0.316282
1757.000000	0.316095
1758.000000	0.316056
1759.000000	0.316046
1760.000000	0.316069
1761.000000	0.316232
1762.000000	0.316263
1763.000000	0.316209
1764.000000	0.316222
1765.000000	0.316180
1766.000000	0.316188
1767.000000	0.316184
1768.000000	0.316151
1769.000000	0.316181
1770.000000	0.316263
1771.000000	0.316368
1772.000000	0.316393
1773.000000	0.316341
1774.000000	0.316331
1775.000000	0.316330
1776.000000	0.316350
1777.000000	0.316421
1778.000000	0.316370
1779.000000	0.316219
1780.000000	0.316156
1781.000000	0.316041
1782.000000	0.315945
1783.000000	0.315944
1784.000000	0.315921
1785.000000	0.315799
1786.000000	0.315803
1787.000000	0.315919
1788.000000	0.315956
1789.000000	0.315916
1790.000000	0.315784
1791.000000	0.315693
1792.000000	0.315748
1793.000000	0.315740
1794.000000	0.315782
1795.000000	0.315798
1796.000000	0.315704
1797.000000	0.315663
1798.000000	0.315606
1799.000000	0.315594
1800.000000	0.315705
1801.000000	0.315744
1802.000000	0.315757
1803.000000	0.315403
1804.000000	0.315392
1805.000000	0.315324
1806.000000	0.315511
1807.000000	0.316159
1808.000000	0.316335
1809.000000	0.316178
1810.000000	0.316527
1811.000000	0.316669
1812.000000	0.316477
1813.000000	0.316583
1814.000000	0.317275
1815.000000	0.317238
1816.000000	0.316509
1817.000000	0.316340
1818.000000	0.316102
1819.000000	0.316381
1820.000000	0.316663
1821.000000	0.316721
1822.000000	0.316503
1823.000000	0.315452
1824.000000	0.315074
1825.000000	0.314711
1826.000000	0.314712
1827.000000	0.315186
1828.000000	0.315236
1829.000000	0.315300
1830.000000	0.315214
1831.000000	0.315320
1832.000000	0.315366
1833.000000	0.315348
1834.000000	0.315587
1835.000000	0.315648
1836.000000	0.315208
1837.000000	0.315185
1838.000000	0.315636
1839.000000	0.315190
1840.000000	0.314958
1841.000000	0.314985
1842.000000	0.314920
1843.000000	0.314788
1844.000000	0.314727
1845.000000	0.314571
1846.000000	0.314490
1847.000000	0.314114
1848.000000	0.314150
1849.000000	0.314168
1850.000000	0.314209
1851.000000	0.314171
1852.000000	0.313842
1853.000000	0.313892
1854.000000	0.314055
1855.000000	0.313996
1856.000000	0.313981
1857.000000	0.313875
1858.000000	0.313225
1859.000000	0.312607
1860.000000	0.312508
1861.000000	0.312180
1862.000000	0.312122
1863.000000	0.312922
1864.000000	0.312902
1865.000000	0.312572
1866.000000	0.312321
1867.000000	0.312014
1868.000000	0.310872
1869.000000	0.310151
1870.000000	0.309419
1871.000000	0.308747
1872.000000	0.308169
1873.000000	0.307635
1874.000000	0.307310
1875.000000	0.306761
1876.000000	0.305911
1877.000000	0.304906
1878.000000	0.303757
1879.000000	0.302563
1880.000000	0.301408
1881.000000	0.300099
1882.000000	0.298867
1883.000000	0.297296
1884.000000	0.295796
1885.000000	0.294166
1886.000000	0.292331
1887.000000	0.290344
1888.000000	0.288149
1889.000000	0.285724
1890.000000	0.283542
1891.000000	0.281436
1892.000000	0.279396
1893.000000	0.277616
1894.000000	0.275721
1895.000000	0.273809
1896.000000	0.272008
1897.000000	0.270361
1898.000000	0.268784
1899.000000	0.267538
1900.000000	0.266028
1901.000000	0.264737
1902.000000	0.263915
1903.000000	0.263204
1904.000000	0.263012
1905.000000	0.262979
1906.000000	0.262946
1907.000000	0.262953
1908.000000	0.262987
1909.000000	0.263346
1910.000000	0.263934
1911.000000	0.264297
1912.000000	0.264866
1913.000000	0.265491
1914.000000	0.266104
1915.000000	0.266965
1916.000000	0.267855
1917.000000	0.268508
1918.000000	0.269159
1919.000000	0.269913
1920.000000	0.270391
1921.000000	0.270787
1922.000000	0.271195
1923.000000	0.271900
1924.000000	0.272868
1925.000000	0.273452
1926.000000	0.274128
1927.000000	0.274756
1928.000000	0.275219
1929.000000	0.275346
1930.000000	0.275954
1931.000000	0.276722
1932.000000	0.277425
1933.000000	0.278030
1934.000000	0.278148
1935.000000	0.278528
1936.000000	0.278687
1937.000000	0.278610
1938.000000	0.278927
1939.000000	0.279170
1940.000000	0.279301
1941.000000	0.279524
1942.000000	0.279654
1943.000000	0.279537
1944.000000	0.279389
1945.000000	0.279412
1946.000000	0.279683
1947.000000	0.280143
1948.000000	0.280529
1949.000000	0.280712
1950.000000	0.281187
1951.000000	0.281358
1952.000000	0.281450
1953.000000	0.281526
1954.000000	0.281961
1955.000000	0.282212
1956.000000	0.282480
1957.000000	0.283184
1958.000000	0.283684
1959.000000	0.283521
1960.000000	0.283629
1961.000000	0.283593
1962.000000	0.283693
1963.000000	0.283647
1964.000000	0.284403
1965.000000	0.284972
1966.000000	0.285564
1967.000000	0.286111
1968.000000	0.286181
1969.000000	0.286154
1970.000000	0.286237
1971.000000	0.286479
1972.000000	0.286526
1973.000000	0.286593
1974.000000	0.287050
1975.000000	0.287274
1976.000000	0.287274
1977.000000	0.287464
1978.000000	0.287832
1979.000000	0.288032
1980.000000	0.288298
1981.000000	0.288751
1982.000000	0.289190
1983.000000	0.289581
1984.000000	0.289835
1985.000000	0.290283
1986.000000	0.290376
1987.000000	0.290269
1988.000000	0.289979
1989.000000	0.290136
1990.000000	0.289967
1991.000000	0.289815
1992.000000	0.290318
1993.000000	0.290782
1994.000000	0.291394
1995.000000	0.291991
1996.000000	0.292360
1997.000000	0.292617
1998.000000	0.292391
1999.000000	0.292697
2000.000000	0.293229
2001.000000	0.293713
2002.000000	0.294504
2003.000000	0.295126
2004.000000	0.295270
2005.000000	0.295242
2006.000000	0.295253
2007.000000	0.295033
2008.000000	0.294950
2009.000000	0.294958
2010.000000	0.295104
2011.000000	0.295078
2012.000000	0.295186
2013.000000	0.295383
2014.000000	0.295532
2015.000000	0.296013
2016.000000	0.296237
2017.000000	0.296474
2018.000000	0.296612
2019.000000	0.296313
2020.000000	0.296215
2021.000000	0.296234
2022.000000	0.296402
2023.000000	0.296346
2024.000000	0.296296
2025.000000	0.296359
2026.000000	0.296136
2027.000000	0.296086
2028.000000	0.296476
2029.000000	0.296769
2030.000000	0.297040
2031.000000	0.297139
2032.000000	0.297249
2033.000000	0.297466
2034.000000	0.297582
2035.000000	0.297966
2036.000000	0.298020
2037.000000	0.297882
2038.000000	0.297889
2039.000000	0.298027
2040.000000	0.297867
2041.000000	0.297984
2042.000000	0.298550
2043.000000	0.298611
2044.000000	0.298784
2045.000000	0.298964
2046.000000	0.298772
2047.000000	0.298857
2048.000000	0.299117
2049.000000	0.299454
2050.000000	0.299426
2051.000000	0.299521
2052.000000	0.299531
2053.000000	0.299583
2054.000000	0.299911
2055.000000	0.300502
2056.000000	0.300733
2057.000000	0.300847
2058.000000	0.300798
2059.000000	0.300878
2060.000000	0.300919
2061.000000	0.301149
2062.000000	0.301240
2063.000000	0.301126
2064.000000	0.300989
2065.000000	0.301244
2066.000000	0.301117
2067.000000	0.300950
2068.000000	0.301168
2069.000000	0.300847
2070.000000	0.300484
2071.000000	0.300415
2072.000000	0.300220
2073.000000	0.300166
2074.000000	0.300314
2075.000000	0.300275
2076.000000	0.299940
2077.000000	0.299935
2078.000000	0.300092
2079.000000	0.300060
2080.000000	0.300143
2081.000000	0.300272
2082.000000	0.300275
2083.000000	0.300575
2084.000000	0.300700
2085.000000	0.300628
2086.000000	0.300646
2087.000000	0.300380
2088.000000	0.300265
2089.000000	0.300755
2090.000000	0.300971
2091.000000	0.301277
2092.000000	0.301493
2093.000000	0.301731
2094.000000	0.301718
2095.000000	0.301458
2096.000000	0.301489
2097.000000	0.301438
2098.000000	0.301502
2099.000000	0.301727
2100.000000	0.301591
2101.000000	0.301044
2102.000000	0.300668
2103.000000	0.300104
2104.000000	0.299702
2105.000000	0.299722
2106.000000	0.300199
2107.000000	0.300398
2108.000000	0.301077
2109.000000	0.301151
2110.000000	0.300369
2111.000000	0.300153
2112.000000	0.299829
2113.000000	0.299351
2114.000000	0.299792
2115.000000	0.300286
2116.000000	0.300329
2117.000000	0.300667
2118.000000	0.300659
2119.000000	0.300147
2120.000000	0.299967
2121.000000	0.299828
2122.000000	0.299666
2123.000000	0.299404
2124.000000	0.299424
2125.000000	0.299622
2126.000000	0.299742
2127.000000	0.300123
2128.000000	0.300536
2129.000000	0.300847
2130.000000	0.301131
2131.000000	0.301401
2132.000000	0.301350
2133.000000	0.301527
2134.000000	0.301669
2135.000000	0.301803
2136.000000	0.302169
2137.000000	0.302166
2138.000000	0.301914
2139.000000	0.301789
2140.000000	0.301372
2141.000000	0.301243
2142.000000	0.301134
2143.000000	0.301032
2144.000000	0.301786
2145.000000	0.301825
2146.000000	0.301551
2147.000000	0.301669
2148.000000	0.300906
2149.000000	0.300099
2150.000000	0.300283
2151.000000	0.300492
2152.000000	0.300986
2153.000000	0.301660
2154.000000	0.301791
2155.000000	0.301457
2156.000000	0.301439
2157.000000	0.301293
2158.000000	0.301146
2159.000000	0.301223
2160.000000	0.301279
2161.000000	0.301176
2162.000000	0.301361
2163.000000	0.301478
2164.000000	0.301728
2165.000000	0.302511
2166.000000	0.302604
2167.000000	0.302658
2168.000000	0.302770
2169.000000	0.301549
2170.000000	0.300824
2171.000000	0.300514
2172.000000	0.300347
2173.000000	0.300138
2174.000000	0.300321
2175.000000	0.300419
2176.000000	0.300300
2177.000000	0.300395
2178.000000	0.301153
2179.000000	0.301642
2180.000000	0.301868
2181.000000	0.302217
2182.000000	0.302296
2183.000000	0.301764
2184.000000	0.301127
2185.000000	0.301026
2186.000000	0.300373
2187.000000	0.299622
2188.000000	0.299398
2189.000000	0.298803
2190.000000	0.298820
2191.000000	0.299688
2192.000000	0.299790
2193.000000	0.299782
2194.000000	0.299387
2195.000000	0.298184
2196.000000	0.297748
2197.000000	0.297271
2198.000000	0.297072
2199.000000	0.297686
2200.000000	0.298152
2201.000000	0.298565
2202.000000	0.298939
2203.000000	0.299747
2204.000000	0.299776
2205.000000	0.298105
2206.000000	0.297577
2207.000000	0.295856
2208.000000	0.295220
2209.000000	0.295372
2210.000000	0.294361
2211.000000	0.294774
2212.000000	0.295184
2213.000000	0.296086
2214.000000	0.298718
2215.000000	0.299464
2216.000000	0.299067
2217.000000	0.299447
2218.000000	0.299035
2219.000000	0.299561
2220.000000	0.302412
2221.000000	0.302421
2222.000000	0.300301
2223.000000	0.299585
2224.000000	0.297826
2225.000000	0.297051
2226.000000	0.297595
2227.000000	0.297703
2228.000000	0.297634
2229.000000	0.296096
2230.000000	0.295353
2231.000000	0.295148
2232.000000	0.294270
2233.000000	0.294822
2234.000000	0.295863
2235.000000	0.297763
2236.000000	0.297916
2237.000000	0.297918
2238.000000	0.296793
2239.000000	0.292771
2240.000000	0.291886
2241.000000	0.292044
2242.000000	0.292238
2243.000000	0.294802
2244.000000	0.295045
2245.000000	0.293569
2246.000000	0.293524
2247.000000	0.292610
2248.000000	0.292795
2249.000000	0.294750
2250.000000	0.295905
2251.000000	0.296221
2252.000000	0.296377
2253.000000	0.295822
2254.000000	0.294939
2255.000000	0.294336
2256.000000	0.294958
2257.000000	0.295199
2258.000000	0.295736
2259.000000	0.297174
2260.000000	0.297938
2261.000000	0.298044
2262.000000	0.298106
2263.000000	0.297040
2264.000000	0.294342
2265.000000	0.293190
2266.000000	0.292291
2267.000000	0.291351
2268.000000	0.290752
2269.000000	0.290449
2270.000000	0.289966
2271.000000	0.289541
2272.000000	0.290384
2273.000000	0.290264
2274.000000	0.288703
2275.000000	0.288208
2276.000000	0.288226
2277.000000	0.287423
2278.000000	0.287644
2279.000000	0.289144
2280.000000	0.289364
2281.000000	0.288701
2282.000000	0.287533
2283.000000	0.285382
2284.000000	0.283882
2285.000000	0.283235
2286.000000	0.281798
2287.000000	0.280538
2288.000000	0.280915
2289.000000	0.279682
2290.000000	0.278687
2291.000000	0.279262
2292.000000	0.278539
2293.000000	0.277924
2294.000000	0.277160
2295.000000	0.276254
2296.000000	0.275620
2297.000000	0.274684
2298.000000	0.274548
2299.000000	0.275605
2300.000000	0.275398
2301.000000	0.274600
2302.000000	0.274143
2303.000000	0.273320
2304.000000	0.272622
2305.000000	0.272688
2306.000000	0.271704
2307.000000	0.269809
2308.000000	0.268053
2309.000000	0.267044
2310.000000	0.266107
2311.000000	0.265954
2312.000000	0.266608
2313.000000	0.266116
2314.000000	0.266038
2315.000000	0.266422
2316.000000	0.267352
2317.000000	0.268779
2318.000000	0.269599
2319.000000	0.271448
2320.000000	0.271270
2321.000000	0.271290
2322.000000	0.273393
2323.000000	0.274014
2324.000000	0.276553
2325.000000	0.279323
2326.000000	0.280590
2327.000000	0.282205
2328.000000	0.282473
2329.000000	0.282342
2330.000000	0.282790
2331.000000	0.283287
2332.000000	0.283980
2333.000000	0.283418
2334.000000	0.282862
2335.000000	0.283522
2336.000000	0.284042
2337.000000	0.283882
2338.000000	0.285259
2339.000000	0.284415
2340.000000	0.281117
2341.000000	0.279879
2342.000000	0.278484
2343.000000	0.278127
2344.000000	0.279407
2345.000000	0.278988
2346.000000	0.277792
2347.000000	0.278002
2348.000000	0.278162
2349.000000	0.278564
2350.000000	0.279959
2351.000000	0.281366
2352.000000	0.280026
2353.000000	0.280018
2354.000000	0.281047
2355.000000	0.280680
2356.000000	0.281197
2357.000000	0.280947
2358.000000	0.281402
2359.000000	0.282425
2360.000000	0.282478
2361.000000	0.282278
2362.000000	0.280294
2363.000000	0.278961
2364.000000	0.278330
2365.000000	0.278736
2366.000000	0.280836
2367.000000	0.280740
2368.000000	0.279919
2369.000000	0.280145
2370.000000	0.278247
2371.000000	0.275430
2372.000000	0.274667
2373.000000	0.273948
2374.000000	0.270957
2375.000000	0.269436
2376.000000	0.268636
2377.000000	0.266480
2378.000000	0.268848
2379.000000	0.272716
2380.000000	0.274777
2381.000000	0.277693
2382.000000	0.277879
2383.000000	0.276275
2384.000000	0.275718
2385.000000	0.275458
2386.000000	0.271666
2387.000000	0.266850
2388.000000	0.264025
2389.000000	0.260441
2390.000000	0.261088
2391.000000	0.263077
2392.000000	0.263708
2393.000000	0.262275
2394.000000	0.257881
2395.000000	0.260753
2396.000000	0.263447
2397.000000	0.264611
2398.000000	0.271427
2399.000000	0.270359
2400.000000	0.265213
2401.000000	0.264852
2402.000000	0.263932
2403.000000	0.263662
2404.000000	0.267541
2405.000000	0.268606
2406.000000	0.266744
2407.000000	0.264355
2408.000000	0.259089
2409.000000	0.258351
2410.000000	0.257741
2411.000000	0.257288
2412.000000	0.259853
2413.000000	0.258971
2414.000000	0.259047
2415.000000	0.258719
2416.000000	0.258631
2417.000000	0.263684
2418.000000	0.267862
2419.000000	0.269559
2420.000000	0.272311
2421.000000	0.266869
2422.000000	0.258961
2423.000000	0.259526
2424.000000	0.254823
2425.000000	0.254162
2426.000000	0.260068
2427.000000	0.259577
2428.000000	0.268676
2429.000000	0.276004
2430.000000	0.274897
2431.000000	0.275622
2432.000000	0.264690
2433.000000	0.253705
2434.000000	0.250457
2435.000000	0.250874
2436.000000	0.254135
2437.000000	0.258381
2438.000000	0.267963
2439.000000	0.268975
2440.000000	0.263073
2441.000000	0.260058
2442.000000	0.251060
2443.000000	0.245115
2444.000000	0.245761
2445.000000	0.246572
2446.000000	0.248769
2447.000000	0.252161
2448.000000	0.256669
2449.000000	0.259566
2450.000000	0.259999
2451.000000	0.253992
2452.000000	0.243915
2453.000000	0.234249
2454.000000	0.228465
2455.000000	0.233279
2456.000000	0.245512
2457.000000	0.253665
2458.000000	0.255748
2459.000000	0.253103
2460.000000	0.239356
2461.000000	0.236164
2462.000000	0.238643
2463.000000	0.230959
2464.000000	0.235986
2465.000000	0.243188
2466.000000	0.252907
2467.000000	0.264989
2468.000000	0.262601
2469.000000	0.255853
2470.000000	0.243857
2471.000000	0.230900
2472.000000	0.221925
2473.000000	0.209608
2474.000000	0.189686
2475.000000	0.194775
2476.000000	0.217086
2477.000000	0.221958
2478.000000	0.236539
2479.000000	0.232577
2480.000000	0.218620
2481.000000	0.228458
2482.000000	0.243143
2483.000000	0.253404
2484.000000	0.260376
2485.000000	0.275146
2486.000000	0.275286
2487.000000	0.272740
2488.000000	0.266423
2489.000000	0.234977
2490.000000	0.228068
2491.000000	0.257969
2492.000000	0.247637
2493.000000	0.219034
2494.000000	0.217753
2495.000000	0.200308
2496.000000	0.196739
2497.000000	0.237997
2498.000000	0.240699
2499.000000	0.217154
2500.000000	0.207760
