# Wavelength	SM1200H-30_HEX-40_FV7-30_00002.asd.rts.txt
350.000000	0.271883
351.000000	0.269258
352.000000	0.262240
353.000000	0.255440
354.000000	0.252874
355.000000	0.250468
356.000000	0.249404
357.000000	0.254075
358.000000	0.267687
359.000000	0.272469
360.000000	0.271682
361.000000	0.272880
362.000000	0.278045
363.000000	0.277639
364.000000	0.269752
365.000000	0.275237
366.000000	0.276530
367.000000	0.270713
368.000000	0.267649
369.000000	0.262977
370.000000	0.262397
371.000000	0.271307
372.000000	0.270435
373.000000	0.269692
374.000000	0.276297
375.000000	0.280680
376.000000	0.284576
377.000000	0.286592
378.000000	0.282321
379.000000	0.280605
380.000000	0.281234
381.000000	0.281979
382.000000	0.282051
383.000000	0.281207
384.000000	0.279653
385.000000	0.276511
386.000000	0.277178
387.000000	0.281487
388.000000	0.282965
389.000000	0.284809
390.000000	0.287038
391.000000	0.288396
392.000000	0.288100
393.000000	0.288119
394.000000	0.289561
395.000000	0.289748
396.000000	0.289970
397.000000	0.290418
398.000000	0.289921
399.000000	0.288729
400.000000	0.288549
401.000000	0.291260
402.000000	0.290767
403.000000	0.290319
404.000000	0.292938
405.000000	0.292960
406.000000	0.292765
407.000000	0.293500
408.000000	0.293636
409.000000	0.294062
410.000000	0.294796
411.000000	0.295342
412.000000	0.295061
413.000000	0.294848
414.000000	0.295649
415.000000	0.296441
416.000000	0.296892
417.000000	0.296999
418.000000	0.297251
419.000000	0.297802
420.000000	0.298447
421.000000	0.298614
422.000000	0.298862
423.000000	0.299297
424.000000	0.299907
425.000000	0.299921
426.000000	0.299876
427.000000	0.300115
428.000000	0.299876
429.000000	0.300101
430.000000	0.300914
431.000000	0.301337
432.000000	0.301801
433.000000	0.302281
434.000000	0.302728
435.000000	0.303190
436.000000	0.303680
437.000000	0.304084
438.000000	0.303887
439.000000	0.303613
440.000000	0.303736
441.000000	0.304272
442.000000	0.304345
443.000000	0.304111
444.000000	0.304698
445.000000	0.304985
446.000000	0.305245
447.000000	0.305760
448.000000	0.305750
449.000000	0.305777
450.000000	0.306295
451.000000	0.307148
452.000000	0.307641
453.000000	0.307536
454.000000	0.307304
455.000000	0.307765
456.000000	0.308387
457.000000	0.307933
458.000000	0.308126
459.000000	0.308639
460.000000	0.308945
461.000000	0.308875
462.000000	0.309168
463.000000	0.309822
464.000000	0.310152
465.000000	0.310390
466.000000	0.310547
467.000000	0.310700
468.000000	0.311230
469.000000	0.311639
470.000000	0.311562
471.000000	0.311567
472.000000	0.311609
473.000000	0.311738
474.000000	0.312370
475.000000	0.312681
476.000000	0.312720
477.000000	0.313062
478.000000	0.313214
479.000000	0.313382
480.000000	0.313598
481.000000	0.313938
482.000000	0.314384
483.000000	0.314640
484.000000	0.314840
485.000000	0.315063
486.000000	0.315446
487.000000	0.315471
488.000000	0.315625
489.000000	0.315983
490.000000	0.316341
491.000000	0.316499
492.000000	0.316667
493.000000	0.316955
494.000000	0.317175
495.000000	0.317532
496.000000	0.318036
497.000000	0.318295
498.000000	0.318476
499.000000	0.318747
500.000000	0.319069
501.000000	0.319270
502.000000	0.319502
503.000000	0.319939
504.000000	0.320211
505.000000	0.320455
506.000000	0.320824
507.000000	0.320993
508.000000	0.321186
509.000000	0.321502
510.000000	0.321940
511.000000	0.322313
512.000000	0.322588
513.000000	0.322773
514.000000	0.323090
515.000000	0.323494
516.000000	0.323789
517.000000	0.324078
518.000000	0.324465
519.000000	0.324878
520.000000	0.325171
521.000000	0.325426
522.000000	0.325716
523.000000	0.326100
524.000000	0.326406
525.000000	0.326609
526.000000	0.326825
527.000000	0.327148
528.000000	0.327452
529.000000	0.327657
530.000000	0.327862
531.000000	0.328085
532.000000	0.328283
533.000000	0.328737
534.000000	0.329107
535.000000	0.329313
536.000000	0.329581
537.000000	0.329791
538.000000	0.330007
539.000000	0.330330
540.000000	0.330648
541.000000	0.330891
542.000000	0.331086
543.000000	0.331380
544.000000	0.331683
545.000000	0.331916
546.000000	0.332334
547.000000	0.332696
548.000000	0.333004
549.000000	0.333302
550.000000	0.333676
551.000000	0.334058
552.000000	0.334295
553.000000	0.334595
554.000000	0.334910
555.000000	0.335206
556.000000	0.335571
557.000000	0.335870
558.000000	0.336213
559.000000	0.336588
560.000000	0.336905
561.000000	0.337227
562.000000	0.337503
563.000000	0.337811
564.000000	0.338149
565.000000	0.338396
566.000000	0.338773
567.000000	0.339135
568.000000	0.339381
569.000000	0.339661
570.000000	0.339953
571.000000	0.340249
572.000000	0.340586
573.000000	0.340957
574.000000	0.341307
575.000000	0.341630
576.000000	0.341859
577.000000	0.342126
578.000000	0.342566
579.000000	0.342838
580.000000	0.343102
581.000000	0.343424
582.000000	0.343728
583.000000	0.344031
584.000000	0.344338
585.000000	0.344649
586.000000	0.344955
587.000000	0.345223
588.000000	0.345442
589.000000	0.345746
590.000000	0.346069
591.000000	0.346353
592.000000	0.346575
593.000000	0.346836
594.000000	0.347121
595.000000	0.347291
596.000000	0.347491
597.000000	0.347774
598.000000	0.348028
599.000000	0.348125
600.000000	0.348241
601.000000	0.348443
602.000000	0.348675
603.000000	0.348879
604.000000	0.349065
605.000000	0.349328
606.000000	0.349502
607.000000	0.349627
608.000000	0.349870
609.000000	0.350046
610.000000	0.350179
611.000000	0.350334
612.000000	0.350502
613.000000	0.350659
614.000000	0.350820
615.000000	0.350905
616.000000	0.351050
617.000000	0.351235
618.000000	0.351392
619.000000	0.351575
620.000000	0.351743
621.000000	0.351904
622.000000	0.352164
623.000000	0.352387
624.000000	0.352475
625.000000	0.352637
626.000000	0.352814
627.000000	0.352969
628.000000	0.353083
629.000000	0.353334
630.000000	0.353536
631.000000	0.353649
632.000000	0.353832
633.000000	0.354037
634.000000	0.354164
635.000000	0.354237
636.000000	0.354341
637.000000	0.354485
638.000000	0.354580
639.000000	0.354709
640.000000	0.354912
641.000000	0.354993
642.000000	0.355149
643.000000	0.355364
644.000000	0.355565
645.000000	0.355766
646.000000	0.355950
647.000000	0.356078
648.000000	0.356203
649.000000	0.356371
650.000000	0.356542
651.000000	0.356637
652.000000	0.356745
653.000000	0.356923
654.000000	0.357109
655.000000	0.357276
656.000000	0.357441
657.000000	0.357564
658.000000	0.357729
659.000000	0.357920
660.000000	0.358096
661.000000	0.358227
662.000000	0.358333
663.000000	0.358464
664.000000	0.358561
665.000000	0.358680
666.000000	0.358839
667.000000	0.359012
668.000000	0.359229
669.000000	0.359441
670.000000	0.359618
671.000000	0.359762
672.000000	0.359908
673.000000	0.360051
674.000000	0.360175
675.000000	0.360353
676.000000	0.360561
677.000000	0.360761
678.000000	0.360949
679.000000	0.361129
680.000000	0.361296
681.000000	0.361336
682.000000	0.361465
683.000000	0.361634
684.000000	0.361796
685.000000	0.361928
686.000000	0.362098
687.000000	0.362329
688.000000	0.362545
689.000000	0.362720
690.000000	0.362882
691.000000	0.363042
692.000000	0.363156
693.000000	0.363283
694.000000	0.363390
695.000000	0.363528
696.000000	0.363677
697.000000	0.363797
698.000000	0.363979
699.000000	0.364193
700.000000	0.364393
701.000000	0.364499
702.000000	0.364637
703.000000	0.364802
704.000000	0.364874
705.000000	0.365018
706.000000	0.365211
707.000000	0.365454
708.000000	0.365626
709.000000	0.365791
710.000000	0.366021
711.000000	0.366166
712.000000	0.366270
713.000000	0.366404
714.000000	0.366603
715.000000	0.366748
716.000000	0.366864
717.000000	0.367004
718.000000	0.367123
719.000000	0.367233
720.000000	0.367370
721.000000	0.367551
722.000000	0.367688
723.000000	0.367830
724.000000	0.367997
725.000000	0.368076
726.000000	0.368164
727.000000	0.368244
728.000000	0.368310
729.000000	0.368431
730.000000	0.368586
731.000000	0.368748
732.000000	0.368857
733.000000	0.368942
734.000000	0.369002
735.000000	0.369066
736.000000	0.369243
737.000000	0.369367
738.000000	0.369520
739.000000	0.369677
740.000000	0.369654
741.000000	0.369777
742.000000	0.369909
743.000000	0.369973
744.000000	0.370057
745.000000	0.370107
746.000000	0.370203
747.000000	0.370337
748.000000	0.370484
749.000000	0.370618
750.000000	0.370687
751.000000	0.370736
752.000000	0.370783
753.000000	0.370860
754.000000	0.370976
755.000000	0.371049
756.000000	0.371114
757.000000	0.371166
758.000000	0.371154
759.000000	0.371216
760.000000	0.371329
761.000000	0.371453
762.000000	0.371532
763.000000	0.371571
764.000000	0.371705
765.000000	0.371827
766.000000	0.371910
767.000000	0.371958
768.000000	0.372065
769.000000	0.372207
770.000000	0.372337
771.000000	0.372349
772.000000	0.372479
773.000000	0.372579
774.000000	0.372528
775.000000	0.372498
776.000000	0.372502
777.000000	0.372503
778.000000	0.372482
779.000000	0.372469
780.000000	0.372501
781.000000	0.372595
782.000000	0.372673
783.000000	0.372785
784.000000	0.372808
785.000000	0.372871
786.000000	0.372977
787.000000	0.373084
788.000000	0.373095
789.000000	0.373118
790.000000	0.373133
791.000000	0.373115
792.000000	0.373130
793.000000	0.373164
794.000000	0.373195
795.000000	0.373202
796.000000	0.373181
797.000000	0.373150
798.000000	0.373167
799.000000	0.373162
800.000000	0.373198
801.000000	0.373338
802.000000	0.373378
803.000000	0.373329
804.000000	0.373264
805.000000	0.373176
806.000000	0.373116
807.000000	0.373167
808.000000	0.373228
809.000000	0.373235
810.000000	0.373220
811.000000	0.373221
812.000000	0.373320
813.000000	0.373391
814.000000	0.373384
815.000000	0.373338
816.000000	0.373425
817.000000	0.373544
818.000000	0.373474
819.000000	0.373463
820.000000	0.373504
821.000000	0.373494
822.000000	0.373378
823.000000	0.373329
824.000000	0.373259
825.000000	0.373163
826.000000	0.373154
827.000000	0.373130
828.000000	0.373106
829.000000	0.373211
830.000000	0.373261
831.000000	0.373274
832.000000	0.373183
833.000000	0.373097
834.000000	0.373012
835.000000	0.372957
836.000000	0.372929
837.000000	0.372959
838.000000	0.373015
839.000000	0.372959
840.000000	0.372935
841.000000	0.372943
842.000000	0.372916
843.000000	0.372902
844.000000	0.372910
845.000000	0.372879
846.000000	0.372761
847.000000	0.372720
848.000000	0.372689
849.000000	0.372613
850.000000	0.372600
851.000000	0.372575
852.000000	0.372545
853.000000	0.372516
854.000000	0.372419
855.000000	0.372379
856.000000	0.372344
857.000000	0.372371
858.000000	0.372367
859.000000	0.372229
860.000000	0.372168
861.000000	0.372045
862.000000	0.371904
863.000000	0.371754
864.000000	0.371613
865.000000	0.371481
866.000000	0.371373
867.000000	0.371251
868.000000	0.371123
869.000000	0.370944
870.000000	0.370803
871.000000	0.370786
872.000000	0.370783
873.000000	0.370664
874.000000	0.370570
875.000000	0.370383
876.000000	0.370189
877.000000	0.370055
878.000000	0.369882
879.000000	0.369736
880.000000	0.369532
881.000000	0.369493
882.000000	0.369408
883.000000	0.369271
884.000000	0.369093
885.000000	0.369052
886.000000	0.368911
887.000000	0.368607
888.000000	0.368355
889.000000	0.368254
890.000000	0.368151
891.000000	0.368063
892.000000	0.367894
893.000000	0.367715
894.000000	0.367655
895.000000	0.367432
896.000000	0.367185
897.000000	0.366982
898.000000	0.366853
899.000000	0.366717
900.000000	0.366612
901.000000	0.366478
902.000000	0.366272
903.000000	0.366182
904.000000	0.366105
905.000000	0.365816
906.000000	0.365769
907.000000	0.365553
908.000000	0.365206
909.000000	0.365056
910.000000	0.364847
911.000000	0.364647
912.000000	0.364541
913.000000	0.364296
914.000000	0.364047
915.000000	0.363884
916.000000	0.363664
917.000000	0.363588
918.000000	0.363437
919.000000	0.363074
920.000000	0.362848
921.000000	0.362683
922.000000	0.362531
923.000000	0.362313
924.000000	0.362029
925.000000	0.361809
926.000000	0.361716
927.000000	0.361530
928.000000	0.361342
929.000000	0.361131
930.000000	0.360856
931.000000	0.360543
932.000000	0.360219
933.000000	0.359910
934.000000	0.359522
935.000000	0.359374
936.000000	0.359326
937.000000	0.359070
938.000000	0.358667
939.000000	0.358328
940.000000	0.358090
941.000000	0.358022
942.000000	0.357585
943.000000	0.357238
944.000000	0.357060
945.000000	0.356738
946.000000	0.356296
947.000000	0.355980
948.000000	0.355915
949.000000	0.355722
950.000000	0.355444
951.000000	0.355115
952.000000	0.354878
953.000000	0.354657
954.000000	0.354440
955.000000	0.354137
956.000000	0.353735
957.000000	0.353662
958.000000	0.353623
959.000000	0.353282
960.000000	0.353209
961.000000	0.352914
962.000000	0.352419
963.000000	0.352468
964.000000	0.352429
965.000000	0.352160
966.000000	0.351611
967.000000	0.351250
968.000000	0.351099
969.000000	0.351052
970.000000	0.351035
971.000000	0.350669
972.000000	0.350403
973.000000	0.350310
974.000000	0.350147
975.000000	0.349929
976.000000	0.349717
977.000000	0.349521
978.000000	0.349190
979.000000	0.349079
980.000000	0.348841
981.000000	0.348486
982.000000	0.348440
983.000000	0.348244
984.000000	0.347988
985.000000	0.348163
986.000000	0.348055
987.000000	0.347809
988.000000	0.347463
989.000000	0.346879
990.000000	0.346869
991.000000	0.346954
992.000000	0.346505
993.000000	0.346264
994.000000	0.346109
995.000000	0.346117
996.000000	0.346055
997.000000	0.346126
998.000000	0.345920
999.000000	0.345603
1000.000000	0.345939
1001.000000	0.345951
1002.000000	0.345928
1003.000000	0.345584
1004.000000	0.345444
1005.000000	0.345220
1006.000000	0.345129
1007.000000	0.345522
1008.000000	0.345318
1009.000000	0.345017
1010.000000	0.344531
1011.000000	0.344393
1012.000000	0.344817
1013.000000	0.344668
1014.000000	0.344559
1015.000000	0.344507
1016.000000	0.344220
1017.000000	0.343862
1018.000000	0.343301
1019.000000	0.343280
1020.000000	0.343832
1021.000000	0.343712
1022.000000	0.343952
1023.000000	0.344264
1024.000000	0.344142
1025.000000	0.344045
1026.000000	0.344430
1027.000000	0.344369
1028.000000	0.343982
1029.000000	0.344156
1030.000000	0.344056
1031.000000	0.344199
1032.000000	0.344889
1033.000000	0.344606
1034.000000	0.344592
1035.000000	0.344780
1036.000000	0.344551
1037.000000	0.343857
1038.000000	0.343675
1039.000000	0.343600
1040.000000	0.343529
1041.000000	0.343912
1042.000000	0.344051
1043.000000	0.344510
1044.000000	0.344690
1045.000000	0.344330
1046.000000	0.344720
1047.000000	0.344902
1048.000000	0.344740
1049.000000	0.344768
1050.000000	0.345036
1051.000000	0.345057
1052.000000	0.344749
1053.000000	0.344843
1054.000000	0.345428
1055.000000	0.345852
1056.000000	0.346520
1057.000000	0.346910
1058.000000	0.347013
1059.000000	0.346734
1060.000000	0.346764
1061.000000	0.347111
1062.000000	0.346931
1063.000000	0.347311
1064.000000	0.347696
1065.000000	0.348059
1066.000000	0.348171
1067.000000	0.348469
1068.000000	0.348517
1069.000000	0.347923
1070.000000	0.347840
1071.000000	0.348165
1072.000000	0.348337
1073.000000	0.348618
1074.000000	0.348905
1075.000000	0.349240
1076.000000	0.349294
1077.000000	0.349269
1078.000000	0.349291
1079.000000	0.349327
1080.000000	0.349218
1081.000000	0.349501
1082.000000	0.350177
1083.000000	0.350583
1084.000000	0.351207
1085.000000	0.351568
1086.000000	0.351771
1087.000000	0.351879
1088.000000	0.351565
1089.000000	0.351555
1090.000000	0.351563
1091.000000	0.351425
1092.000000	0.351654
1093.000000	0.352480
1094.000000	0.352613
1095.000000	0.352458
1096.000000	0.352530
1097.000000	0.352324
1098.000000	0.352410
1099.000000	0.352668
1100.000000	0.353032
1101.000000	0.353671
1102.000000	0.353832
1103.000000	0.353740
1104.000000	0.353922
1105.000000	0.353726
1106.000000	0.353888
1107.000000	0.354480
1108.000000	0.354954
1109.000000	0.355486
1110.000000	0.356213
1111.000000	0.356442
1112.000000	0.356464
1113.000000	0.356717
1114.000000	0.356754
1115.000000	0.356897
1116.000000	0.357513
1117.000000	0.357504
1118.000000	0.356946
1119.000000	0.356697
1120.000000	0.356117
1121.000000	0.356064
1122.000000	0.356584
1123.000000	0.357064
1124.000000	0.357643
1125.000000	0.358033
1126.000000	0.358156
1127.000000	0.358269
1128.000000	0.358326
1129.000000	0.358286
1130.000000	0.358449
1131.000000	0.358714
1132.000000	0.358836
1133.000000	0.359050
1134.000000	0.359249
1135.000000	0.359350
1136.000000	0.359380
1137.000000	0.359416
1138.000000	0.359391
1139.000000	0.359361
1140.000000	0.359352
1141.000000	0.359182
1142.000000	0.359220
1143.000000	0.359316
1144.000000	0.359420
1145.000000	0.359419
1146.000000	0.359469
1147.000000	0.359412
1148.000000	0.359019
1149.000000	0.359007
1150.000000	0.359114
1151.000000	0.359318
1152.000000	0.359698
1153.000000	0.359923
1154.000000	0.360225
1155.000000	0.360282
1156.000000	0.360088
1157.000000	0.360032
1158.000000	0.359855
1159.000000	0.359725
1160.000000	0.359647
1161.000000	0.359593
1162.000000	0.359582
1163.000000	0.359726
1164.000000	0.359771
1165.000000	0.359709
1166.000000	0.359660
1167.000000	0.359419
1168.000000	0.359328
1169.000000	0.359347
1170.000000	0.359352
1171.000000	0.359483
1172.000000	0.359502
1173.000000	0.359382
1174.000000	0.359365
1175.000000	0.359302
1176.000000	0.359283
1177.000000	0.359494
1178.000000	0.359524
1179.000000	0.359436
1180.000000	0.359352
1181.000000	0.359243
1182.000000	0.359235
1183.000000	0.359299
1184.000000	0.359377
1185.000000	0.359433
1186.000000	0.359487
1187.000000	0.359467
1188.000000	0.359437
1189.000000	0.359359
1190.000000	0.359265
1191.000000	0.359202
1192.000000	0.359196
1193.000000	0.359341
1194.000000	0.359445
1195.000000	0.359507
1196.000000	0.359637
1197.000000	0.359633
1198.000000	0.359450
1199.000000	0.359424
1200.000000	0.359484
1201.000000	0.359406
1202.000000	0.359384
1203.000000	0.359401
1204.000000	0.359246
1205.000000	0.359255
1206.000000	0.359249
1207.000000	0.359405
1208.000000	0.359410
1209.000000	0.359486
1210.000000	0.359483
1211.000000	0.359411
1212.000000	0.359355
1213.000000	0.359306
1214.000000	0.359284
1215.000000	0.359290
1216.000000	0.359195
1217.000000	0.358955
1218.000000	0.358848
1219.000000	0.358748
1220.000000	0.358720
1221.000000	0.358867
1222.000000	0.359006
1223.000000	0.359074
1224.000000	0.359102
1225.000000	0.359004
1226.000000	0.358993
1227.000000	0.358971
1228.000000	0.358959
1229.000000	0.358978
1230.000000	0.359082
1231.000000	0.359014
1232.000000	0.359069
1233.000000	0.359112
1234.000000	0.358937
1235.000000	0.358914
1236.000000	0.358906
1237.000000	0.358916
1238.000000	0.358924
1239.000000	0.358965
1240.000000	0.359092
1241.000000	0.359021
1242.000000	0.358990
1243.000000	0.359083
1244.000000	0.358994
1245.000000	0.359059
1246.000000	0.359101
1247.000000	0.359098
1248.000000	0.359257
1249.000000	0.359347
1250.000000	0.359336
1251.000000	0.359311
1252.000000	0.359255
1253.000000	0.359121
1254.000000	0.359078
1255.000000	0.359082
1256.000000	0.359031
1257.000000	0.358984
1258.000000	0.358972
1259.000000	0.358883
1260.000000	0.358880
1261.000000	0.358888
1262.000000	0.358837
1263.000000	0.358747
1264.000000	0.358707
1265.000000	0.358735
1266.000000	0.358816
1267.000000	0.358810
1268.000000	0.358695
1269.000000	0.358611
1270.000000	0.358570
1271.000000	0.358518
1272.000000	0.358611
1273.000000	0.358781
1274.000000	0.358725
1275.000000	0.358645
1276.000000	0.358626
1277.000000	0.358595
1278.000000	0.358259
1279.000000	0.358209
1280.000000	0.358274
1281.000000	0.358217
1282.000000	0.358245
1283.000000	0.358341
1284.000000	0.358331
1285.000000	0.358344
1286.000000	0.358389
1287.000000	0.358478
1288.000000	0.358471
1289.000000	0.358544
1290.000000	0.358533
1291.000000	0.358347
1292.000000	0.358237
1293.000000	0.358123
1294.000000	0.358062
1295.000000	0.358165
1296.000000	0.358139
1297.000000	0.358094
1298.000000	0.358221
1299.000000	0.358207
1300.000000	0.358134
1301.000000	0.358097
1302.000000	0.358025
1303.000000	0.358006
1304.000000	0.357916
1305.000000	0.357969
1306.000000	0.357902
1307.000000	0.357710
1308.000000	0.357646
1309.000000	0.357700
1310.000000	0.357599
1311.000000	0.357470
1312.000000	0.357299
1313.000000	0.357153
1314.000000	0.356996
1315.000000	0.356840
1316.000000	0.356834
1317.000000	0.356756
1318.000000	0.356662
1319.000000	0.356622
1320.000000	0.356507
1321.000000	0.356349
1322.000000	0.356359
1323.000000	0.356362
1324.000000	0.356314
1325.000000	0.356177
1326.000000	0.355883
1327.000000	0.355784
1328.000000	0.355858
1329.000000	0.355656
1330.000000	0.355351
1331.000000	0.355196
1332.000000	0.354983
1333.000000	0.354753
1334.000000	0.354789
1335.000000	0.354701
1336.000000	0.354397
1337.000000	0.354222
1338.000000	0.354088
1339.000000	0.353853
1340.000000	0.353704
1341.000000	0.353484
1342.000000	0.353172
1343.000000	0.353178
1344.000000	0.353117
1345.000000	0.353046
1346.000000	0.353128
1347.000000	0.352741
1348.000000	0.352484
1349.000000	0.352272
1350.000000	0.351921
1351.000000	0.351801
1352.000000	0.351632
1353.000000	0.351274
1354.000000	0.351139
1355.000000	0.350998
1356.000000	0.350849
1357.000000	0.350756
1358.000000	0.350595
1359.000000	0.350447
1360.000000	0.350284
1361.000000	0.350137
1362.000000	0.349893
1363.000000	0.349599
1364.000000	0.349356
1365.000000	0.348952
1366.000000	0.348735
1367.000000	0.348692
1368.000000	0.348495
1369.000000	0.348250
1370.000000	0.348046
1371.000000	0.347661
1372.000000	0.347228
1373.000000	0.346861
1374.000000	0.346366
1375.000000	0.345848
1376.000000	0.345383
1377.000000	0.344842
1378.000000	0.344150
1379.000000	0.343078
1380.000000	0.341818
1381.000000	0.340508
1382.000000	0.339153
1383.000000	0.337865
1384.000000	0.336492
1385.000000	0.334970
1386.000000	0.333399
1387.000000	0.332031
1388.000000	0.330782
1389.000000	0.329679
1390.000000	0.328967
1391.000000	0.328475
1392.000000	0.328228
1393.000000	0.327949
1394.000000	0.327875
1395.000000	0.327802
1396.000000	0.327783
1397.000000	0.327532
1398.000000	0.327343
1399.000000	0.326952
1400.000000	0.326223
1401.000000	0.325655
1402.000000	0.325195
1403.000000	0.324516
1404.000000	0.323941
1405.000000	0.323123
1406.000000	0.322144
1407.000000	0.321253
1408.000000	0.320185
1409.000000	0.319394
1410.000000	0.318796
1411.000000	0.317943
1412.000000	0.317099
1413.000000	0.316413
1414.000000	0.315632
1415.000000	0.314865
1416.000000	0.314294
1417.000000	0.313638
1418.000000	0.312917
1419.000000	0.312391
1420.000000	0.311678
1421.000000	0.311104
1422.000000	0.310650
1423.000000	0.310152
1424.000000	0.309681
1425.000000	0.309168
1426.000000	0.308521
1427.000000	0.307955
1428.000000	0.307522
1429.000000	0.307077
1430.000000	0.306662
1431.000000	0.306243
1432.000000	0.305785
1433.000000	0.305277
1434.000000	0.304887
1435.000000	0.304610
1436.000000	0.304323
1437.000000	0.304152
1438.000000	0.303750
1439.000000	0.303267
1440.000000	0.302867
1441.000000	0.302366
1442.000000	0.302045
1443.000000	0.301824
1444.000000	0.301521
1445.000000	0.301188
1446.000000	0.300850
1447.000000	0.300484
1448.000000	0.300233
1449.000000	0.300047
1450.000000	0.299810
1451.000000	0.299619
1452.000000	0.299375
1453.000000	0.299130
1454.000000	0.298923
1455.000000	0.298659
1456.000000	0.298412
1457.000000	0.298272
1458.000000	0.298235
1459.000000	0.298241
1460.000000	0.298263
1461.000000	0.298140
1462.000000	0.297894
1463.000000	0.297679
1464.000000	0.297523
1465.000000	0.297484
1466.000000	0.297485
1467.000000	0.297479
1468.000000	0.297528
1469.000000	0.297630
1470.000000	0.297681
1471.000000	0.297749
1472.000000	0.297840
1473.000000	0.298057
1474.000000	0.298250
1475.000000	0.298551
1476.000000	0.298809
1477.000000	0.298877
1478.000000	0.299070
1479.000000	0.299353
1480.000000	0.299651
1481.000000	0.299954
1482.000000	0.300417
1483.000000	0.300845
1484.000000	0.301253
1485.000000	0.301614
1486.000000	0.301956
1487.000000	0.302371
1488.000000	0.302773
1489.000000	0.303185
1490.000000	0.303602
1491.000000	0.303997
1492.000000	0.304212
1493.000000	0.304621
1494.000000	0.305205
1495.000000	0.305556
1496.000000	0.305843
1497.000000	0.306153
1498.000000	0.306377
1499.000000	0.306548
1500.000000	0.306892
1501.000000	0.307250
1502.000000	0.307461
1503.000000	0.307738
1504.000000	0.308136
1505.000000	0.308422
1506.000000	0.308644
1507.000000	0.308912
1508.000000	0.309114
1509.000000	0.309284
1510.000000	0.309528
1511.000000	0.309740
1512.000000	0.309779
1513.000000	0.309873
1514.000000	0.310046
1515.000000	0.310188
1516.000000	0.310535
1517.000000	0.310773
1518.000000	0.310927
1519.000000	0.311059
1520.000000	0.311085
1521.000000	0.311082
1522.000000	0.311166
1523.000000	0.311457
1524.000000	0.311661
1525.000000	0.311790
1526.000000	0.311978
1527.000000	0.312069
1528.000000	0.312101
1529.000000	0.312179
1530.000000	0.312240
1531.000000	0.312304
1532.000000	0.312461
1533.000000	0.312653
1534.000000	0.312810
1535.000000	0.312922
1536.000000	0.312912
1537.000000	0.313041
1538.000000	0.313133
1539.000000	0.313164
1540.000000	0.313321
1541.000000	0.313415
1542.000000	0.313542
1543.000000	0.313588
1544.000000	0.313535
1545.000000	0.313557
1546.000000	0.313590
1547.000000	0.313748
1548.000000	0.313944
1549.000000	0.314116
1550.000000	0.314245
1551.000000	0.314298
1552.000000	0.314395
1553.000000	0.314377
1554.000000	0.314388
1555.000000	0.314480
1556.000000	0.314377
1557.000000	0.314326
1558.000000	0.314362
1559.000000	0.314341
1560.000000	0.314339
1561.000000	0.314519
1562.000000	0.314528
1563.000000	0.314438
1564.000000	0.314378
1565.000000	0.314221
1566.000000	0.314195
1567.000000	0.314409
1568.000000	0.314476
1569.000000	0.314700
1570.000000	0.314682
1571.000000	0.314355
1572.000000	0.314273
1573.000000	0.314206
1574.000000	0.314210
1575.000000	0.314390
1576.000000	0.314480
1577.000000	0.314585
1578.000000	0.314588
1579.000000	0.314593
1580.000000	0.314571
1581.000000	0.314493
1582.000000	0.314449
1583.000000	0.314437
1584.000000	0.314394
1585.000000	0.314379
1586.000000	0.314415
1587.000000	0.314509
1588.000000	0.314550
1589.000000	0.314605
1590.000000	0.314657
1591.000000	0.314693
1592.000000	0.314753
1593.000000	0.314882
1594.000000	0.314947
1595.000000	0.315028
1596.000000	0.315105
1597.000000	0.315185
1598.000000	0.315238
1599.000000	0.315344
1600.000000	0.315370
1601.000000	0.315434
1602.000000	0.315421
1603.000000	0.315344
1604.000000	0.315327
1605.000000	0.315327
1606.000000	0.315287
1607.000000	0.315342
1608.000000	0.315330
1609.000000	0.315253
1610.000000	0.315244
1611.000000	0.315301
1612.000000	0.315301
1613.000000	0.315366
1614.000000	0.315444
1615.000000	0.315608
1616.000000	0.315751
1617.000000	0.315867
1618.000000	0.315976
1619.000000	0.316010
1620.000000	0.316123
1621.000000	0.316283
1622.000000	0.316536
1623.000000	0.316894
1624.000000	0.317100
1625.000000	0.317149
1626.000000	0.317207
1627.000000	0.317163
1628.000000	0.317262
1629.000000	0.317422
1630.000000	0.317622
1631.000000	0.317873
1632.000000	0.317941
1633.000000	0.317994
1634.000000	0.318013
1635.000000	0.317923
1636.000000	0.317878
1637.000000	0.317837
1638.000000	0.317843
1639.000000	0.317864
1640.000000	0.317967
1641.000000	0.318288
1642.000000	0.318436
1643.000000	0.318619
1644.000000	0.318737
1645.000000	0.318732
1646.000000	0.318765
1647.000000	0.318784
1648.000000	0.318861
1649.000000	0.319087
1650.000000	0.319235
1651.000000	0.319449
1652.000000	0.319639
1653.000000	0.319702
1654.000000	0.319839
1655.000000	0.319975
1656.000000	0.320018
1657.000000	0.320089
1658.000000	0.320159
1659.000000	0.320283
1660.000000	0.320454
1661.000000	0.320583
1662.000000	0.320740
1663.000000	0.320897
1664.000000	0.321068
1665.000000	0.321252
1666.000000	0.321456
1667.000000	0.321568
1668.000000	0.321808
1669.000000	0.322140
1670.000000	0.322201
1671.000000	0.322304
1672.000000	0.322484
1673.000000	0.322474
1674.000000	0.322718
1675.000000	0.323005
1676.000000	0.323327
1677.000000	0.323475
1678.000000	0.323492
1679.000000	0.323686
1680.000000	0.323823
1681.000000	0.323756
1682.000000	0.323737
1683.000000	0.323793
1684.000000	0.323705
1685.000000	0.323751
1686.000000	0.323888
1687.000000	0.323978
1688.000000	0.324123
1689.000000	0.324254
1690.000000	0.324269
1691.000000	0.324356
1692.000000	0.324304
1693.000000	0.324263
1694.000000	0.324408
1695.000000	0.324585
1696.000000	0.324780
1697.000000	0.324790
1698.000000	0.324653
1699.000000	0.324659
1700.000000	0.324581
1701.000000	0.324689
1702.000000	0.324938
1703.000000	0.324932
1704.000000	0.324849
1705.000000	0.324865
1706.000000	0.324784
1707.000000	0.324824
1708.000000	0.325038
1709.000000	0.325128
1710.000000	0.325310
1711.000000	0.325441
1712.000000	0.325520
1713.000000	0.325632
1714.000000	0.325900
1715.000000	0.325916
1716.000000	0.325766
1717.000000	0.325724
1718.000000	0.325442
1719.000000	0.325386
1720.000000	0.325663
1721.000000	0.325759
1722.000000	0.325824
1723.000000	0.325914
1724.000000	0.325970
1725.000000	0.326112
1726.000000	0.326258
1727.000000	0.326353
1728.000000	0.326399
1729.000000	0.326383
1730.000000	0.326448
1731.000000	0.326460
1732.000000	0.326431
1733.000000	0.326504
1734.000000	0.326437
1735.000000	0.326467
1736.000000	0.326530
1737.000000	0.326613
1738.000000	0.326780
1739.000000	0.326818
1740.000000	0.326857
1741.000000	0.326755
1742.000000	0.326424
1743.000000	0.326524
1744.000000	0.326740
1745.000000	0.326842
1746.000000	0.327120
1747.000000	0.327226
1748.000000	0.327204
1749.000000	0.327139
1750.000000	0.327125
1751.000000	0.327137
1752.000000	0.327241
1753.000000	0.327371
1754.000000	0.327465
1755.000000	0.327468
1756.000000	0.327455
1757.000000	0.327408
1758.000000	0.327436
1759.000000	0.327364
1760.000000	0.327481
1761.000000	0.327800
1762.000000	0.327983
1763.000000	0.328356
1764.000000	0.328426
1765.000000	0.328141
1766.000000	0.328048
1767.000000	0.327799
1768.000000	0.327587
1769.000000	0.327560
1770.000000	0.327553
1771.000000	0.327479
1772.000000	0.327421
1773.000000	0.327316
1774.000000	0.327382
1775.000000	0.327580
1776.000000	0.327713
1777.000000	0.327966
1778.000000	0.328096
1779.000000	0.328071
1780.000000	0.328145
1781.000000	0.328259
1782.000000	0.328272
1783.000000	0.328260
1784.000000	0.328319
1785.000000	0.328231
1786.000000	0.328331
1787.000000	0.328628
1788.000000	0.328972
1789.000000	0.329290
1790.000000	0.329609
1791.000000	0.329681
1792.000000	0.329506
1793.000000	0.329485
1794.000000	0.329397
1795.000000	0.329405
1796.000000	0.329587
1797.000000	0.329724
1798.000000	0.329900
1799.000000	0.329926
1800.000000	0.329925
1801.000000	0.329881
1802.000000	0.330131
1803.000000	0.329739
1804.000000	0.330134
1805.000000	0.331127
1806.000000	0.331298
1807.000000	0.331533
1808.000000	0.331436
1809.000000	0.329887
1810.000000	0.329865
1811.000000	0.329830
1812.000000	0.330220
1813.000000	0.330315
1814.000000	0.330656
1815.000000	0.330895
1816.000000	0.331028
1817.000000	0.331035
1818.000000	0.331313
1819.000000	0.331611
1820.000000	0.331066
1821.000000	0.330032
1822.000000	0.329442
1823.000000	0.328420
1824.000000	0.327849
1825.000000	0.327366
1826.000000	0.327463
1827.000000	0.327791
1828.000000	0.328383
1829.000000	0.328870
1830.000000	0.329492
1831.000000	0.329731
1832.000000	0.329411
1833.000000	0.329296
1834.000000	0.329094
1835.000000	0.328998
1836.000000	0.328927
1837.000000	0.328850
1838.000000	0.328602
1839.000000	0.328606
1840.000000	0.328656
1841.000000	0.328416
1842.000000	0.328132
1843.000000	0.327801
1844.000000	0.327477
1845.000000	0.326723
1846.000000	0.326303
1847.000000	0.325823
1848.000000	0.325624
1849.000000	0.325258
1850.000000	0.325080
1851.000000	0.325205
1852.000000	0.325681
1853.000000	0.325602
1854.000000	0.325458
1855.000000	0.325146
1856.000000	0.324232
1857.000000	0.323646
1858.000000	0.323026
1859.000000	0.322213
1860.000000	0.321178
1861.000000	0.319844
1862.000000	0.319027
1863.000000	0.318666
1864.000000	0.318044
1865.000000	0.318051
1866.000000	0.317197
1867.000000	0.315935
1868.000000	0.313951
1869.000000	0.312317
1870.000000	0.310217
1871.000000	0.308299
1872.000000	0.307500
1873.000000	0.305887
1874.000000	0.304036
1875.000000	0.302011
1876.000000	0.299693
1877.000000	0.296484
1878.000000	0.293627
1879.000000	0.291193
1880.000000	0.288555
1881.000000	0.285741
1882.000000	0.282936
1883.000000	0.279923
1884.000000	0.276857
1885.000000	0.273576
1886.000000	0.270145
1887.000000	0.266426
1888.000000	0.262652
1889.000000	0.259012
1890.000000	0.256015
1891.000000	0.252842
1892.000000	0.249803
1893.000000	0.247147
1894.000000	0.243757
1895.000000	0.239945
1896.000000	0.236003
1897.000000	0.231861
1898.000000	0.227198
1899.000000	0.223418
1900.000000	0.220554
1901.000000	0.218070
1902.000000	0.215628
1903.000000	0.213375
1904.000000	0.211265
1905.000000	0.209090
1906.000000	0.206805
1907.000000	0.204568
1908.000000	0.202067
1909.000000	0.200018
1910.000000	0.198149
1911.000000	0.196398
1912.000000	0.195486
1913.000000	0.194325
1914.000000	0.193059
1915.000000	0.192111
1916.000000	0.191003
1917.000000	0.190101
1918.000000	0.189477
1919.000000	0.188943
1920.000000	0.188173
1921.000000	0.187888
1922.000000	0.187805
1923.000000	0.187493
1924.000000	0.187151
1925.000000	0.186538
1926.000000	0.186162
1927.000000	0.186426
1928.000000	0.186351
1929.000000	0.186472
1930.000000	0.186754
1931.000000	0.186754
1932.000000	0.186612
1933.000000	0.187132
1934.000000	0.187880
1935.000000	0.188356
1936.000000	0.188326
1937.000000	0.188278
1938.000000	0.188168
1939.000000	0.188125
1940.000000	0.188177
1941.000000	0.188271
1942.000000	0.188000
1943.000000	0.187837
1944.000000	0.187423
1945.000000	0.187287
1946.000000	0.187537
1947.000000	0.187725
1948.000000	0.187604
1949.000000	0.187239
1950.000000	0.187112
1951.000000	0.186760
1952.000000	0.186114
1953.000000	0.185813
1954.000000	0.185775
1955.000000	0.185494
1956.000000	0.185700
1957.000000	0.186011
1958.000000	0.186021
1959.000000	0.186110
1960.000000	0.185982
1961.000000	0.185607
1962.000000	0.185400
1963.000000	0.185251
1964.000000	0.185324
1965.000000	0.185452
1966.000000	0.185600
1967.000000	0.186156
1968.000000	0.186333
1969.000000	0.186193
1970.000000	0.186619
1971.000000	0.186868
1972.000000	0.186686
1973.000000	0.186577
1974.000000	0.186474
1975.000000	0.186484
1976.000000	0.186320
1977.000000	0.186825
1978.000000	0.187037
1979.000000	0.187006
1980.000000	0.187364
1981.000000	0.187633
1982.000000	0.188905
1983.000000	0.190521
1984.000000	0.191419
1985.000000	0.192384
1986.000000	0.192885
1987.000000	0.192771
1988.000000	0.192583
1989.000000	0.193003
1990.000000	0.193051
1991.000000	0.193167
1992.000000	0.193739
1993.000000	0.193669
1994.000000	0.194140
1995.000000	0.194917
1996.000000	0.195285
1997.000000	0.195963
1998.000000	0.197041
1999.000000	0.197819
2000.000000	0.198442
2001.000000	0.199467
2002.000000	0.200267
2003.000000	0.200805
2004.000000	0.201462
2005.000000	0.202003
2006.000000	0.202861
2007.000000	0.203686
2008.000000	0.204467
2009.000000	0.205257
2010.000000	0.206208
2011.000000	0.207120
2012.000000	0.208057
2013.000000	0.209108
2014.000000	0.210064
2015.000000	0.211214
2016.000000	0.212101
2017.000000	0.212455
2018.000000	0.213154
2019.000000	0.213543
2020.000000	0.213131
2021.000000	0.213698
2022.000000	0.214854
2023.000000	0.215862
2024.000000	0.217601
2025.000000	0.218962
2026.000000	0.220302
2027.000000	0.220975
2028.000000	0.221598
2029.000000	0.221865
2030.000000	0.221905
2031.000000	0.222209
2032.000000	0.222903
2033.000000	0.223537
2034.000000	0.224381
2035.000000	0.225808
2036.000000	0.226857
2037.000000	0.228087
2038.000000	0.228855
2039.000000	0.229429
2040.000000	0.229924
2041.000000	0.229799
2042.000000	0.230290
2043.000000	0.231258
2044.000000	0.232054
2045.000000	0.233494
2046.000000	0.234750
2047.000000	0.235582
2048.000000	0.235963
2049.000000	0.236671
2050.000000	0.237106
2051.000000	0.237456
2052.000000	0.237846
2053.000000	0.238001
2054.000000	0.237995
2055.000000	0.237603
2056.000000	0.238188
2057.000000	0.239140
2058.000000	0.240334
2059.000000	0.241712
2060.000000	0.242490
2061.000000	0.242810
2062.000000	0.243235
2063.000000	0.243350
2064.000000	0.243787
2065.000000	0.244655
2066.000000	0.245323
2067.000000	0.246439
2068.000000	0.246953
2069.000000	0.247832
2070.000000	0.248272
2071.000000	0.248264
2072.000000	0.248308
2073.000000	0.248081
2074.000000	0.248123
2075.000000	0.248680
2076.000000	0.250135
2077.000000	0.250812
2078.000000	0.251318
2079.000000	0.251978
2080.000000	0.252329
2081.000000	0.253063
2082.000000	0.254439
2083.000000	0.255487
2084.000000	0.255997
2085.000000	0.255952
2086.000000	0.255293
2087.000000	0.255070
2088.000000	0.255331
2089.000000	0.255842
2090.000000	0.256513
2091.000000	0.257913
2092.000000	0.258737
2093.000000	0.259262
2094.000000	0.260030
2095.000000	0.260814
2096.000000	0.261612
2097.000000	0.262216
2098.000000	0.263638
2099.000000	0.264685
2100.000000	0.265021
2101.000000	0.265480
2102.000000	0.265751
2103.000000	0.266015
2104.000000	0.266583
2105.000000	0.267039
2106.000000	0.267683
2107.000000	0.268099
2108.000000	0.268010
2109.000000	0.268527
2110.000000	0.269335
2111.000000	0.269959
2112.000000	0.270473
2113.000000	0.271453
2114.000000	0.272058
2115.000000	0.272234
2116.000000	0.272758
2117.000000	0.273021
2118.000000	0.273018
2119.000000	0.273082
2120.000000	0.273326
2121.000000	0.273585
2122.000000	0.273909
2123.000000	0.274417
2124.000000	0.274768
2125.000000	0.275013
2126.000000	0.275274
2127.000000	0.275779
2128.000000	0.276221
2129.000000	0.276655
2130.000000	0.276562
2131.000000	0.277143
2132.000000	0.276806
2133.000000	0.276392
2134.000000	0.276739
2135.000000	0.276553
2136.000000	0.276840
2137.000000	0.277408
2138.000000	0.278881
2139.000000	0.279429
2140.000000	0.279887
2141.000000	0.279952
2142.000000	0.278925
2143.000000	0.278641
2144.000000	0.279222
2145.000000	0.279234
2146.000000	0.279400
2147.000000	0.279339
2148.000000	0.279526
2149.000000	0.279042
2150.000000	0.278982
2151.000000	0.279097
2152.000000	0.278892
2153.000000	0.278859
2154.000000	0.279241
2155.000000	0.280890
2156.000000	0.281150
2157.000000	0.280936
2158.000000	0.280709
2159.000000	0.279291
2160.000000	0.278807
2161.000000	0.279010
2162.000000	0.279048
2163.000000	0.279288
2164.000000	0.279388
2165.000000	0.279103
2166.000000	0.279509
2167.000000	0.279748
2168.000000	0.279689
2169.000000	0.280072
2170.000000	0.279044
2171.000000	0.278913
2172.000000	0.278871
2173.000000	0.279041
2174.000000	0.279639
2175.000000	0.280106
2176.000000	0.280819
2177.000000	0.281088
2178.000000	0.281244
2179.000000	0.281368
2180.000000	0.281103
2181.000000	0.281020
2182.000000	0.280209
2183.000000	0.280029
2184.000000	0.280089
2185.000000	0.279331
2186.000000	0.278248
2187.000000	0.278215
2188.000000	0.278073
2189.000000	0.277846
2190.000000	0.279458
2191.000000	0.281193
2192.000000	0.281944
2193.000000	0.282927
2194.000000	0.282312
2195.000000	0.279278
2196.000000	0.278181
2197.000000	0.276338
2198.000000	0.276206
2199.000000	0.278933
2200.000000	0.279960
2201.000000	0.281506
2202.000000	0.282328
2203.000000	0.281874
2204.000000	0.281037
2205.000000	0.280428
2206.000000	0.279011
2207.000000	0.278140
2208.000000	0.279166
2209.000000	0.281419
2210.000000	0.282011
2211.000000	0.282139
2212.000000	0.281856
2213.000000	0.281103
2214.000000	0.279186
2215.000000	0.277537
2216.000000	0.275355
2217.000000	0.274579
2218.000000	0.273755
2219.000000	0.273709
2220.000000	0.275075
2221.000000	0.276359
2222.000000	0.277754
2223.000000	0.278875
2224.000000	0.281188
2225.000000	0.282401
2226.000000	0.279663
2227.000000	0.278468
2228.000000	0.278978
2229.000000	0.278162
2230.000000	0.278745
2231.000000	0.281180
2232.000000	0.281512
2233.000000	0.280721
2234.000000	0.280545
2235.000000	0.280957
2236.000000	0.279512
2237.000000	0.275738
2238.000000	0.274223
2239.000000	0.272151
2240.000000	0.271738
2241.000000	0.274454
2242.000000	0.275123
2243.000000	0.274917
2244.000000	0.275275
2245.000000	0.274805
2246.000000	0.275372
2247.000000	0.278108
2248.000000	0.278392
2249.000000	0.278454
2250.000000	0.276284
2251.000000	0.273366
2252.000000	0.272090
2253.000000	0.272694
2254.000000	0.274248
2255.000000	0.276796
2256.000000	0.278586
2257.000000	0.276543
2258.000000	0.276821
2259.000000	0.277384
2260.000000	0.276139
2261.000000	0.275881
2262.000000	0.277130
2263.000000	0.276956
2264.000000	0.275446
2265.000000	0.275096
2266.000000	0.275929
2267.000000	0.275264
2268.000000	0.273734
2269.000000	0.273055
2270.000000	0.271043
2271.000000	0.270906
2272.000000	0.273081
2273.000000	0.274323
2274.000000	0.276290
2275.000000	0.276722
2276.000000	0.277018
2277.000000	0.275034
2278.000000	0.271376
2279.000000	0.269656
2280.000000	0.267777
2281.000000	0.264637
2282.000000	0.263851
2283.000000	0.266022
2284.000000	0.265802
2285.000000	0.264370
2286.000000	0.265198
2287.000000	0.262421
2288.000000	0.258185
2289.000000	0.259367
2290.000000	0.259302
2291.000000	0.257929
2292.000000	0.260483
2293.000000	0.261427
2294.000000	0.260316
2295.000000	0.257038
2296.000000	0.255620
2297.000000	0.252465
2298.000000	0.251131
2299.000000	0.252098
2300.000000	0.251225
2301.000000	0.249571
2302.000000	0.248786
2303.000000	0.248366
2304.000000	0.247118
2305.000000	0.245890
2306.000000	0.244783
2307.000000	0.242791
2308.000000	0.241275
2309.000000	0.241412
2310.000000	0.240597
2311.000000	0.238357
2312.000000	0.236158
2313.000000	0.234588
2314.000000	0.234340
2315.000000	0.235609
2316.000000	0.238234
2317.000000	0.239173
2318.000000	0.239038
2319.000000	0.239453
2320.000000	0.239217
2321.000000	0.239592
2322.000000	0.240142
2323.000000	0.240415
2324.000000	0.239061
2325.000000	0.238127
2326.000000	0.238272
2327.000000	0.237036
2328.000000	0.238377
2329.000000	0.240800
2330.000000	0.240338
2331.000000	0.240814
2332.000000	0.241742
2333.000000	0.240281
2334.000000	0.238996
2335.000000	0.237994
2336.000000	0.234893
2337.000000	0.234210
2338.000000	0.236092
2339.000000	0.235599
2340.000000	0.234847
2341.000000	0.235003
2342.000000	0.235026
2343.000000	0.234191
2344.000000	0.235086
2345.000000	0.233327
2346.000000	0.226846
2347.000000	0.222819
2348.000000	0.219287
2349.000000	0.215865
2350.000000	0.214134
2351.000000	0.214771
2352.000000	0.218951
2353.000000	0.222105
2354.000000	0.221520
2355.000000	0.224053
2356.000000	0.221402
2357.000000	0.219247
2358.000000	0.221767
2359.000000	0.220486
2360.000000	0.218493
2361.000000	0.216515
2362.000000	0.214383
2363.000000	0.212000
2364.000000	0.212606
2365.000000	0.214012
2366.000000	0.211182
2367.000000	0.212441
2368.000000	0.216176
2369.000000	0.215087
2370.000000	0.215374
2371.000000	0.217144
2372.000000	0.212408
2373.000000	0.207777
2374.000000	0.206706
2375.000000	0.204944
2376.000000	0.207130
2377.000000	0.211173
2378.000000	0.210511
2379.000000	0.206997
2380.000000	0.201289
2381.000000	0.193013
2382.000000	0.185539
2383.000000	0.178957
2384.000000	0.174393
2385.000000	0.173467
2386.000000	0.178057
2387.000000	0.186429
2388.000000	0.193496
2389.000000	0.200373
2390.000000	0.201471
2391.000000	0.196450
2392.000000	0.194192
2393.000000	0.191764
2394.000000	0.190573
2395.000000	0.194363
2396.000000	0.193241
2397.000000	0.187343
2398.000000	0.185977
2399.000000	0.188214
2400.000000	0.187997
2401.000000	0.191335
2402.000000	0.194135
2403.000000	0.191854
2404.000000	0.195382
2405.000000	0.190221
2406.000000	0.182176
2407.000000	0.180525
2408.000000	0.169269
2409.000000	0.164027
2410.000000	0.165722
2411.000000	0.161790
2412.000000	0.162724
2413.000000	0.163393
2414.000000	0.163269
2415.000000	0.156501
2416.000000	0.146061
2417.000000	0.150681
2418.000000	0.147824
2419.000000	0.153758
2420.000000	0.172306
2421.000000	0.168584
2422.000000	0.176975
2423.000000	0.186498
2424.000000	0.176715
2425.000000	0.171833
2426.000000	0.159204
2427.000000	0.143489
2428.000000	0.140615
2429.000000	0.142576
2430.000000	0.152465
2431.000000	0.176047
2432.000000	0.193911
2433.000000	0.194033
2434.000000	0.187042
2435.000000	0.165148
2436.000000	0.139031
2437.000000	0.138908
2438.000000	0.155553
2439.000000	0.169055
2440.000000	0.183539
2441.000000	0.190637
2442.000000	0.174502
2443.000000	0.162774
2444.000000	0.160767
2445.000000	0.159894
2446.000000	0.167069
2447.000000	0.170059
2448.000000	0.172268
2449.000000	0.177456
2450.000000	0.183441
2451.000000	0.188961
2452.000000	0.187808
2453.000000	0.181721
2454.000000	0.178708
2455.000000	0.177302
2456.000000	0.177917
2457.000000	0.180775
2458.000000	0.172509
2459.000000	0.157758
2460.000000	0.153279
2461.000000	0.164549
2462.000000	0.174677
2463.000000	0.168386
2464.000000	0.156250
2465.000000	0.126794
2466.000000	0.091891
2467.000000	0.084038
2468.000000	0.079948
2469.000000	0.088169
2470.000000	0.098122
2471.000000	0.094727
2472.000000	0.112287
2473.000000	0.118565
2474.000000	0.123389
2475.000000	0.143042
2476.000000	0.139230
2477.000000	0.136111
2478.000000	0.137761
2479.000000	0.129824
2480.000000	0.127272
2481.000000	0.117432
2482.000000	0.094651
2483.000000	0.066140
2484.000000	0.049403
2485.000000	0.071622
2486.000000	0.103411
2487.000000	0.132281
2488.000000	0.176124
2489.000000	0.150570
2490.000000	0.109650
2491.000000	0.095302
2492.000000	0.070084
2493.000000	0.054198
2494.000000	0.065841
2495.000000	0.069466
2496.000000	0.102243
2497.000000	0.226257
2498.000000	0.239498
2499.000000	0.192619
2500.000000	0.173147
