# Wavelength	SM1200H-50_HEX-20_FV7-30_00002.asd.rts.txt
350.000000	0.290127
351.000000	0.307525
352.000000	0.296857
353.000000	0.287416
354.000000	0.296527
355.000000	0.300830
356.000000	0.298489
357.000000	0.294565
358.000000	0.294651
359.000000	0.292534
360.000000	0.291409
361.000000	0.294539
362.000000	0.294054
363.000000	0.294112
364.000000	0.296556
365.000000	0.298340
366.000000	0.298364
367.000000	0.296214
368.000000	0.292725
369.000000	0.290633
370.000000	0.289066
371.000000	0.286797
372.000000	0.290759
373.000000	0.293807
374.000000	0.292621
375.000000	0.294540
376.000000	0.296818
377.000000	0.298293
378.000000	0.299568
379.000000	0.299777
380.000000	0.298570
381.000000	0.297354
382.000000	0.301370
383.000000	0.304056
384.000000	0.302132
385.000000	0.302744
386.000000	0.303252
387.000000	0.302752
388.000000	0.301509
389.000000	0.301382
390.000000	0.302031
391.000000	0.302035
392.000000	0.302411
393.000000	0.302239
394.000000	0.301510
395.000000	0.304404
396.000000	0.305688
397.000000	0.304476
398.000000	0.305810
399.000000	0.306469
400.000000	0.306584
401.000000	0.307263
402.000000	0.306708
403.000000	0.306580
404.000000	0.308200
405.000000	0.308249
406.000000	0.307978
407.000000	0.308179
408.000000	0.308503
409.000000	0.308700
410.000000	0.309032
411.000000	0.310010
412.000000	0.310336
413.000000	0.310596
414.000000	0.311533
415.000000	0.311977
416.000000	0.312140
417.000000	0.312272
418.000000	0.312373
419.000000	0.312999
420.000000	0.314051
421.000000	0.314865
422.000000	0.314821
423.000000	0.314462
424.000000	0.314762
425.000000	0.315471
426.000000	0.315805
427.000000	0.315396
428.000000	0.315319
429.000000	0.315561
430.000000	0.315991
431.000000	0.316304
432.000000	0.316519
433.000000	0.316844
434.000000	0.317666
435.000000	0.317722
436.000000	0.317652
437.000000	0.318139
438.000000	0.318416
439.000000	0.318618
440.000000	0.318923
441.000000	0.319100
442.000000	0.319075
443.000000	0.318988
444.000000	0.319373
445.000000	0.319981
446.000000	0.320492
447.000000	0.320457
448.000000	0.320705
449.000000	0.321188
450.000000	0.321710
451.000000	0.321822
452.000000	0.322169
453.000000	0.322624
454.000000	0.322419
455.000000	0.322577
456.000000	0.323037
457.000000	0.323104
458.000000	0.323447
459.000000	0.323968
460.000000	0.324473
461.000000	0.324580
462.000000	0.324737
463.000000	0.324939
464.000000	0.325013
465.000000	0.325130
466.000000	0.325275
467.000000	0.325489
468.000000	0.325666
469.000000	0.325782
470.000000	0.326060
471.000000	0.326455
472.000000	0.326767
473.000000	0.326970
474.000000	0.327413
475.000000	0.327571
476.000000	0.327539
477.000000	0.327613
478.000000	0.327993
479.000000	0.328485
480.000000	0.328319
481.000000	0.328305
482.000000	0.328610
483.000000	0.328960
484.000000	0.329434
485.000000	0.329702
486.000000	0.329865
487.000000	0.330037
488.000000	0.330151
489.000000	0.330289
490.000000	0.330595
491.000000	0.330969
492.000000	0.331327
493.000000	0.331471
494.000000	0.331902
495.000000	0.332247
496.000000	0.332263
497.000000	0.332568
498.000000	0.332822
499.000000	0.332994
500.000000	0.333138
501.000000	0.333563
502.000000	0.334127
503.000000	0.334369
504.000000	0.334616
505.000000	0.334824
506.000000	0.334936
507.000000	0.335095
508.000000	0.335384
509.000000	0.335770
510.000000	0.336214
511.000000	0.336521
512.000000	0.336778
513.000000	0.337243
514.000000	0.337745
515.000000	0.338188
516.000000	0.338432
517.000000	0.338679
518.000000	0.338916
519.000000	0.339057
520.000000	0.339421
521.000000	0.339733
522.000000	0.339936
523.000000	0.340281
524.000000	0.340618
525.000000	0.340903
526.000000	0.341195
527.000000	0.341528
528.000000	0.341836
529.000000	0.342107
530.000000	0.342355
531.000000	0.342605
532.000000	0.342791
533.000000	0.343089
534.000000	0.343391
535.000000	0.343648
536.000000	0.343914
537.000000	0.344127
538.000000	0.344352
539.000000	0.344677
540.000000	0.344963
541.000000	0.345161
542.000000	0.345329
543.000000	0.345628
544.000000	0.345945
545.000000	0.346177
546.000000	0.346580
547.000000	0.346927
548.000000	0.347202
549.000000	0.347404
550.000000	0.347711
551.000000	0.348107
552.000000	0.348451
553.000000	0.348748
554.000000	0.349081
555.000000	0.349491
556.000000	0.349834
557.000000	0.350083
558.000000	0.350404
559.000000	0.350768
560.000000	0.351036
561.000000	0.351298
562.000000	0.351565
563.000000	0.351864
564.000000	0.352225
565.000000	0.352541
566.000000	0.352914
567.000000	0.353290
568.000000	0.353614
569.000000	0.353957
570.000000	0.354282
571.000000	0.354580
572.000000	0.354893
573.000000	0.355280
574.000000	0.355610
575.000000	0.355798
576.000000	0.356182
577.000000	0.356564
578.000000	0.356837
579.000000	0.357103
580.000000	0.357367
581.000000	0.357640
582.000000	0.357966
583.000000	0.358242
584.000000	0.358470
585.000000	0.358714
586.000000	0.358960
587.000000	0.359252
588.000000	0.359625
589.000000	0.360004
590.000000	0.360260
591.000000	0.360377
592.000000	0.360609
593.000000	0.360865
594.000000	0.361121
595.000000	0.361423
596.000000	0.361757
597.000000	0.362077
598.000000	0.362203
599.000000	0.362228
600.000000	0.362357
601.000000	0.362614
602.000000	0.362818
603.000000	0.362950
604.000000	0.363048
605.000000	0.363204
606.000000	0.363361
607.000000	0.363510
608.000000	0.363659
609.000000	0.363882
610.000000	0.364108
611.000000	0.364249
612.000000	0.364380
613.000000	0.364518
614.000000	0.364707
615.000000	0.364889
616.000000	0.365109
617.000000	0.365284
618.000000	0.365313
619.000000	0.365417
620.000000	0.365583
621.000000	0.365780
622.000000	0.365949
623.000000	0.366070
624.000000	0.366151
625.000000	0.366270
626.000000	0.366496
627.000000	0.366782
628.000000	0.366865
629.000000	0.367079
630.000000	0.367271
631.000000	0.367399
632.000000	0.367561
633.000000	0.367678
634.000000	0.367661
635.000000	0.367709
636.000000	0.367887
637.000000	0.368147
638.000000	0.368315
639.000000	0.368445
640.000000	0.368611
641.000000	0.368712
642.000000	0.368854
643.000000	0.369018
644.000000	0.369152
645.000000	0.369259
646.000000	0.369360
647.000000	0.369459
648.000000	0.369655
649.000000	0.369815
650.000000	0.369919
651.000000	0.370183
652.000000	0.370372
653.000000	0.370525
654.000000	0.370687
655.000000	0.370788
656.000000	0.370906
657.000000	0.371049
658.000000	0.371205
659.000000	0.371350
660.000000	0.371484
661.000000	0.371752
662.000000	0.371892
663.000000	0.371971
664.000000	0.372115
665.000000	0.372249
666.000000	0.372425
667.000000	0.372653
668.000000	0.372795
669.000000	0.372918
670.000000	0.373051
671.000000	0.373053
672.000000	0.373223
673.000000	0.373512
674.000000	0.373617
675.000000	0.373697
676.000000	0.373808
677.000000	0.373997
678.000000	0.374210
679.000000	0.374382
680.000000	0.374508
681.000000	0.374716
682.000000	0.374847
683.000000	0.374844
684.000000	0.375033
685.000000	0.375200
686.000000	0.375356
687.000000	0.375508
688.000000	0.375656
689.000000	0.375805
690.000000	0.375986
691.000000	0.376113
692.000000	0.376194
693.000000	0.376331
694.000000	0.376521
695.000000	0.376722
696.000000	0.376901
697.000000	0.377043
698.000000	0.377270
699.000000	0.377478
700.000000	0.377594
701.000000	0.377690
702.000000	0.377818
703.000000	0.377954
704.000000	0.378046
705.000000	0.378142
706.000000	0.378273
707.000000	0.378563
708.000000	0.378796
709.000000	0.378947
710.000000	0.379076
711.000000	0.379278
712.000000	0.379471
713.000000	0.379655
714.000000	0.379883
715.000000	0.380072
716.000000	0.380157
717.000000	0.380077
718.000000	0.380158
719.000000	0.380297
720.000000	0.380380
721.000000	0.380484
722.000000	0.380557
723.000000	0.380669
724.000000	0.380834
725.000000	0.380916
726.000000	0.381020
727.000000	0.381140
728.000000	0.381204
729.000000	0.381299
730.000000	0.381433
731.000000	0.381591
732.000000	0.381746
733.000000	0.381932
734.000000	0.382115
735.000000	0.382209
736.000000	0.382302
737.000000	0.382262
738.000000	0.382372
739.000000	0.382621
740.000000	0.382748
741.000000	0.382887
742.000000	0.383039
743.000000	0.383150
744.000000	0.383209
745.000000	0.383172
746.000000	0.383179
747.000000	0.383288
748.000000	0.383468
749.000000	0.383634
750.000000	0.383698
751.000000	0.383735
752.000000	0.383831
753.000000	0.383953
754.000000	0.383919
755.000000	0.383964
756.000000	0.384073
757.000000	0.384117
758.000000	0.384161
759.000000	0.384222
760.000000	0.384213
761.000000	0.384160
762.000000	0.384158
763.000000	0.384201
764.000000	0.384319
765.000000	0.384404
766.000000	0.384482
767.000000	0.384583
768.000000	0.384677
769.000000	0.384700
770.000000	0.384684
771.000000	0.384801
772.000000	0.384896
773.000000	0.384914
774.000000	0.385005
775.000000	0.385014
776.000000	0.385044
777.000000	0.385136
778.000000	0.385170
779.000000	0.385194
780.000000	0.385242
781.000000	0.385306
782.000000	0.385346
783.000000	0.385427
784.000000	0.385413
785.000000	0.385403
786.000000	0.385402
787.000000	0.385406
788.000000	0.385436
789.000000	0.385523
790.000000	0.385629
791.000000	0.385728
792.000000	0.385729
793.000000	0.385731
794.000000	0.385822
795.000000	0.385908
796.000000	0.385983
797.000000	0.386010
798.000000	0.385934
799.000000	0.385944
800.000000	0.386033
801.000000	0.386125
802.000000	0.386088
803.000000	0.386059
804.000000	0.386121
805.000000	0.386065
806.000000	0.385914
807.000000	0.385806
808.000000	0.385760
809.000000	0.385959
810.000000	0.386127
811.000000	0.386048
812.000000	0.385942
813.000000	0.385927
814.000000	0.385964
815.000000	0.385903
816.000000	0.385905
817.000000	0.385979
818.000000	0.385995
819.000000	0.386056
820.000000	0.386080
821.000000	0.386008
822.000000	0.386010
823.000000	0.386002
824.000000	0.385939
825.000000	0.385931
826.000000	0.385865
827.000000	0.385822
828.000000	0.385892
829.000000	0.385938
830.000000	0.385905
831.000000	0.385862
832.000000	0.385756
833.000000	0.385763
834.000000	0.385749
835.000000	0.385671
836.000000	0.385736
837.000000	0.385798
838.000000	0.385779
839.000000	0.385603
840.000000	0.385494
841.000000	0.385467
842.000000	0.385442
843.000000	0.385461
844.000000	0.385541
845.000000	0.385606
846.000000	0.385581
847.000000	0.385552
848.000000	0.385470
849.000000	0.385319
850.000000	0.385142
851.000000	0.384922
852.000000	0.384766
853.000000	0.384820
854.000000	0.384682
855.000000	0.384552
856.000000	0.384534
857.000000	0.384440
858.000000	0.384385
859.000000	0.384334
860.000000	0.384275
861.000000	0.384224
862.000000	0.384169
863.000000	0.384021
864.000000	0.384069
865.000000	0.384114
866.000000	0.384071
867.000000	0.384023
868.000000	0.383968
869.000000	0.383823
870.000000	0.383636
871.000000	0.383516
872.000000	0.383478
873.000000	0.383425
874.000000	0.383343
875.000000	0.383075
876.000000	0.382761
877.000000	0.382568
878.000000	0.382403
879.000000	0.382352
880.000000	0.382266
881.000000	0.382150
882.000000	0.381882
883.000000	0.381557
884.000000	0.381283
885.000000	0.381139
886.000000	0.380974
887.000000	0.380766
888.000000	0.380655
889.000000	0.380577
890.000000	0.380389
891.000000	0.380211
892.000000	0.380024
893.000000	0.379851
894.000000	0.379782
895.000000	0.379499
896.000000	0.379257
897.000000	0.379159
898.000000	0.379200
899.000000	0.379059
900.000000	0.378921
901.000000	0.378817
902.000000	0.378693
903.000000	0.378408
904.000000	0.378166
905.000000	0.378058
906.000000	0.377948
907.000000	0.377813
908.000000	0.377624
909.000000	0.377136
910.000000	0.376902
911.000000	0.376745
912.000000	0.376444
913.000000	0.376162
914.000000	0.376005
915.000000	0.375969
916.000000	0.375763
917.000000	0.375533
918.000000	0.375324
919.000000	0.375093
920.000000	0.374697
921.000000	0.374400
922.000000	0.374285
923.000000	0.374261
924.000000	0.374024
925.000000	0.373659
926.000000	0.373364
927.000000	0.373314
928.000000	0.373160
929.000000	0.372896
930.000000	0.372655
931.000000	0.372568
932.000000	0.372284
933.000000	0.371853
934.000000	0.371640
935.000000	0.371511
936.000000	0.371349
937.000000	0.371013
938.000000	0.370854
939.000000	0.370746
940.000000	0.370553
941.000000	0.370322
942.000000	0.369856
943.000000	0.369417
944.000000	0.369018
945.000000	0.368656
946.000000	0.368332
947.000000	0.368055
948.000000	0.367764
949.000000	0.367570
950.000000	0.367469
951.000000	0.367366
952.000000	0.367234
953.000000	0.367018
954.000000	0.366721
955.000000	0.366306
956.000000	0.365922
957.000000	0.365739
958.000000	0.365617
959.000000	0.365484
960.000000	0.365560
961.000000	0.365514
962.000000	0.365217
963.000000	0.364909
964.000000	0.364636
965.000000	0.364451
966.000000	0.364257
967.000000	0.364231
968.000000	0.364069
969.000000	0.363772
970.000000	0.363630
971.000000	0.363449
972.000000	0.363363
973.000000	0.363276
974.000000	0.363027
975.000000	0.362743
976.000000	0.362515
977.000000	0.362346
978.000000	0.362038
979.000000	0.361895
980.000000	0.361705
981.000000	0.361623
982.000000	0.361456
983.000000	0.361128
984.000000	0.360789
985.000000	0.360594
986.000000	0.360135
987.000000	0.359815
988.000000	0.359749
989.000000	0.359600
990.000000	0.359391
991.000000	0.359325
992.000000	0.359565
993.000000	0.359447
994.000000	0.359137
995.000000	0.358947
996.000000	0.358785
997.000000	0.358883
998.000000	0.358817
999.000000	0.358561
1000.000000	0.358472
1001.000000	0.359084
1002.000000	0.358812
1003.000000	0.357953
1004.000000	0.357647
1005.000000	0.357894
1006.000000	0.357631
1007.000000	0.357390
1008.000000	0.357109
1009.000000	0.356536
1010.000000	0.355385
1011.000000	0.355354
1012.000000	0.356048
1013.000000	0.355850
1014.000000	0.355589
1015.000000	0.355698
1016.000000	0.355673
1017.000000	0.355604
1018.000000	0.356425
1019.000000	0.356630
1020.000000	0.356148
1021.000000	0.355784
1022.000000	0.355742
1023.000000	0.355747
1024.000000	0.355527
1025.000000	0.355695
1026.000000	0.355903
1027.000000	0.355675
1028.000000	0.355275
1029.000000	0.355519
1030.000000	0.355379
1031.000000	0.355178
1032.000000	0.355752
1033.000000	0.356068
1034.000000	0.356221
1035.000000	0.356411
1036.000000	0.356640
1037.000000	0.356524
1038.000000	0.356523
1039.000000	0.356827
1040.000000	0.357212
1041.000000	0.357092
1042.000000	0.357056
1043.000000	0.356975
1044.000000	0.357078
1045.000000	0.357183
1046.000000	0.357497
1047.000000	0.357742
1048.000000	0.357853
1049.000000	0.357899
1050.000000	0.358173
1051.000000	0.358108
1052.000000	0.357466
1053.000000	0.357382
1054.000000	0.357544
1055.000000	0.357911
1056.000000	0.358823
1057.000000	0.359618
1058.000000	0.360009
1059.000000	0.359496
1060.000000	0.358677
1061.000000	0.358719
1062.000000	0.358884
1063.000000	0.359261
1064.000000	0.359809
1065.000000	0.361003
1066.000000	0.361076
1067.000000	0.360476
1068.000000	0.360466
1069.000000	0.359856
1070.000000	0.359772
1071.000000	0.360575
1072.000000	0.361096
1073.000000	0.361568
1074.000000	0.362163
1075.000000	0.362502
1076.000000	0.362638
1077.000000	0.362804
1078.000000	0.362957
1079.000000	0.363107
1080.000000	0.363610
1081.000000	0.363705
1082.000000	0.363391
1083.000000	0.363495
1084.000000	0.363993
1085.000000	0.364063
1086.000000	0.363919
1087.000000	0.364049
1088.000000	0.363758
1089.000000	0.363801
1090.000000	0.364270
1091.000000	0.364725
1092.000000	0.365010
1093.000000	0.365186
1094.000000	0.365289
1095.000000	0.365106
1096.000000	0.365251
1097.000000	0.365442
1098.000000	0.365739
1099.000000	0.366175
1100.000000	0.366556
1101.000000	0.366995
1102.000000	0.367239
1103.000000	0.367159
1104.000000	0.367479
1105.000000	0.368030
1106.000000	0.368343
1107.000000	0.368797
1108.000000	0.369080
1109.000000	0.369372
1110.000000	0.369111
1111.000000	0.369122
1112.000000	0.369184
1113.000000	0.369224
1114.000000	0.369084
1115.000000	0.369286
1116.000000	0.369787
1117.000000	0.369990
1118.000000	0.370196
1119.000000	0.370357
1120.000000	0.370485
1121.000000	0.370399
1122.000000	0.370070
1123.000000	0.370379
1124.000000	0.370646
1125.000000	0.370811
1126.000000	0.371346
1127.000000	0.371601
1128.000000	0.371655
1129.000000	0.371261
1130.000000	0.371339
1131.000000	0.371620
1132.000000	0.371656
1133.000000	0.371772
1134.000000	0.371860
1135.000000	0.371587
1136.000000	0.371724
1137.000000	0.372356
1138.000000	0.372399
1139.000000	0.372333
1140.000000	0.372448
1141.000000	0.372169
1142.000000	0.372132
1143.000000	0.372475
1144.000000	0.372684
1145.000000	0.372561
1146.000000	0.372400
1147.000000	0.372404
1148.000000	0.372237
1149.000000	0.372316
1150.000000	0.372689
1151.000000	0.372831
1152.000000	0.372856
1153.000000	0.372973
1154.000000	0.373104
1155.000000	0.373075
1156.000000	0.373014
1157.000000	0.372944
1158.000000	0.372531
1159.000000	0.372412
1160.000000	0.372553
1161.000000	0.372562
1162.000000	0.372646
1163.000000	0.372904
1164.000000	0.372951
1165.000000	0.372790
1166.000000	0.372877
1167.000000	0.372943
1168.000000	0.373057
1169.000000	0.373474
1170.000000	0.373469
1171.000000	0.373282
1172.000000	0.373247
1173.000000	0.372980
1174.000000	0.372883
1175.000000	0.372941
1176.000000	0.372897
1177.000000	0.372836
1178.000000	0.372886
1179.000000	0.373113
1180.000000	0.373104
1181.000000	0.373108
1182.000000	0.373101
1183.000000	0.373125
1184.000000	0.373149
1185.000000	0.373179
1186.000000	0.373314
1187.000000	0.373375
1188.000000	0.373406
1189.000000	0.373331
1190.000000	0.373326
1191.000000	0.373194
1192.000000	0.372922
1193.000000	0.372908
1194.000000	0.372813
1195.000000	0.372828
1196.000000	0.372930
1197.000000	0.372973
1198.000000	0.373145
1199.000000	0.373186
1200.000000	0.373086
1201.000000	0.373014
1202.000000	0.373082
1203.000000	0.373038
1204.000000	0.373107
1205.000000	0.373320
1206.000000	0.373276
1207.000000	0.373188
1208.000000	0.373104
1209.000000	0.372963
1210.000000	0.372899
1211.000000	0.372899
1212.000000	0.372859
1213.000000	0.372834
1214.000000	0.372884
1215.000000	0.372947
1216.000000	0.373003
1217.000000	0.373094
1218.000000	0.373148
1219.000000	0.373264
1220.000000	0.373274
1221.000000	0.373237
1222.000000	0.373141
1223.000000	0.373053
1224.000000	0.373060
1225.000000	0.373139
1226.000000	0.373234
1227.000000	0.373135
1228.000000	0.373053
1229.000000	0.373038
1230.000000	0.373033
1231.000000	0.372922
1232.000000	0.373014
1233.000000	0.373085
1234.000000	0.372936
1235.000000	0.372978
1236.000000	0.373103
1237.000000	0.373166
1238.000000	0.373258
1239.000000	0.373257
1240.000000	0.373134
1241.000000	0.373048
1242.000000	0.373069
1243.000000	0.372980
1244.000000	0.372994
1245.000000	0.373151
1246.000000	0.373308
1247.000000	0.373556
1248.000000	0.373586
1249.000000	0.373518
1250.000000	0.373457
1251.000000	0.373311
1252.000000	0.373248
1253.000000	0.373391
1254.000000	0.373418
1255.000000	0.373400
1256.000000	0.373327
1257.000000	0.373225
1258.000000	0.373188
1259.000000	0.373040
1260.000000	0.372961
1261.000000	0.372858
1262.000000	0.372852
1263.000000	0.372907
1264.000000	0.372880
1265.000000	0.373109
1266.000000	0.373230
1267.000000	0.373269
1268.000000	0.373456
1269.000000	0.373384
1270.000000	0.373325
1271.000000	0.373265
1272.000000	0.373071
1273.000000	0.373025
1274.000000	0.372903
1275.000000	0.372785
1276.000000	0.372707
1277.000000	0.372661
1278.000000	0.372468
1279.000000	0.372426
1280.000000	0.372353
1281.000000	0.372261
1282.000000	0.372388
1283.000000	0.372408
1284.000000	0.372215
1285.000000	0.372196
1286.000000	0.372171
1287.000000	0.372155
1288.000000	0.372323
1289.000000	0.372303
1290.000000	0.372291
1291.000000	0.372188
1292.000000	0.372027
1293.000000	0.372061
1294.000000	0.372044
1295.000000	0.372069
1296.000000	0.372163
1297.000000	0.372065
1298.000000	0.371869
1299.000000	0.371772
1300.000000	0.371760
1301.000000	0.371724
1302.000000	0.371637
1303.000000	0.371782
1304.000000	0.371698
1305.000000	0.371503
1306.000000	0.371444
1307.000000	0.371501
1308.000000	0.371497
1309.000000	0.371532
1310.000000	0.371526
1311.000000	0.371524
1312.000000	0.371364
1313.000000	0.371276
1314.000000	0.371173
1315.000000	0.371025
1316.000000	0.371040
1317.000000	0.371046
1318.000000	0.371040
1319.000000	0.371002
1320.000000	0.370867
1321.000000	0.370596
1322.000000	0.370344
1323.000000	0.370229
1324.000000	0.370088
1325.000000	0.370003
1326.000000	0.370035
1327.000000	0.369916
1328.000000	0.369792
1329.000000	0.369614
1330.000000	0.369406
1331.000000	0.369212
1332.000000	0.369041
1333.000000	0.368917
1334.000000	0.368933
1335.000000	0.368907
1336.000000	0.368874
1337.000000	0.368756
1338.000000	0.368528
1339.000000	0.368303
1340.000000	0.368088
1341.000000	0.368065
1342.000000	0.368071
1343.000000	0.367974
1344.000000	0.367958
1345.000000	0.367860
1346.000000	0.367737
1347.000000	0.367465
1348.000000	0.367118
1349.000000	0.366814
1350.000000	0.366651
1351.000000	0.366549
1352.000000	0.366479
1353.000000	0.366343
1354.000000	0.366326
1355.000000	0.366365
1356.000000	0.366330
1357.000000	0.366262
1358.000000	0.366034
1359.000000	0.365639
1360.000000	0.365462
1361.000000	0.365515
1362.000000	0.365374
1363.000000	0.365312
1364.000000	0.365126
1365.000000	0.364636
1366.000000	0.364317
1367.000000	0.364058
1368.000000	0.363702
1369.000000	0.363470
1370.000000	0.363288
1371.000000	0.362898
1372.000000	0.362479
1373.000000	0.362070
1374.000000	0.361530
1375.000000	0.360890
1376.000000	0.360123
1377.000000	0.359212
1378.000000	0.358119
1379.000000	0.356659
1380.000000	0.355166
1381.000000	0.353375
1382.000000	0.351095
1383.000000	0.348895
1384.000000	0.346660
1385.000000	0.344380
1386.000000	0.342467
1387.000000	0.340924
1388.000000	0.339443
1389.000000	0.338167
1390.000000	0.337216
1391.000000	0.336458
1392.000000	0.336126
1393.000000	0.336045
1394.000000	0.336611
1395.000000	0.336880
1396.000000	0.337317
1397.000000	0.337446
1398.000000	0.337415
1399.000000	0.337283
1400.000000	0.337003
1401.000000	0.336576
1402.000000	0.336067
1403.000000	0.335443
1404.000000	0.334798
1405.000000	0.334032
1406.000000	0.333257
1407.000000	0.332551
1408.000000	0.331758
1409.000000	0.331079
1410.000000	0.330574
1411.000000	0.330022
1412.000000	0.329446
1413.000000	0.329056
1414.000000	0.328709
1415.000000	0.328416
1416.000000	0.328264
1417.000000	0.328113
1418.000000	0.327762
1419.000000	0.327394
1420.000000	0.327073
1421.000000	0.326903
1422.000000	0.326895
1423.000000	0.326966
1424.000000	0.326873
1425.000000	0.326817
1426.000000	0.326697
1427.000000	0.326549
1428.000000	0.326491
1429.000000	0.326428
1430.000000	0.326501
1431.000000	0.326647
1432.000000	0.326660
1433.000000	0.326691
1434.000000	0.326655
1435.000000	0.326596
1436.000000	0.326488
1437.000000	0.326344
1438.000000	0.326192
1439.000000	0.326011
1440.000000	0.325871
1441.000000	0.325787
1442.000000	0.325665
1443.000000	0.325471
1444.000000	0.325224
1445.000000	0.325055
1446.000000	0.324989
1447.000000	0.324882
1448.000000	0.324822
1449.000000	0.324761
1450.000000	0.324642
1451.000000	0.324606
1452.000000	0.324508
1453.000000	0.324317
1454.000000	0.324104
1455.000000	0.323881
1456.000000	0.323793
1457.000000	0.323849
1458.000000	0.323916
1459.000000	0.323872
1460.000000	0.323806
1461.000000	0.323673
1462.000000	0.323573
1463.000000	0.323639
1464.000000	0.323681
1465.000000	0.323756
1466.000000	0.323880
1467.000000	0.324066
1468.000000	0.324280
1469.000000	0.324442
1470.000000	0.324564
1471.000000	0.324716
1472.000000	0.324805
1473.000000	0.325088
1474.000000	0.325388
1475.000000	0.325586
1476.000000	0.325876
1477.000000	0.326172
1478.000000	0.326440
1479.000000	0.326782
1480.000000	0.327111
1481.000000	0.327400
1482.000000	0.327716
1483.000000	0.328078
1484.000000	0.328436
1485.000000	0.328757
1486.000000	0.329077
1487.000000	0.329441
1488.000000	0.329769
1489.000000	0.330227
1490.000000	0.330703
1491.000000	0.331126
1492.000000	0.331546
1493.000000	0.331901
1494.000000	0.332153
1495.000000	0.332437
1496.000000	0.332648
1497.000000	0.332919
1498.000000	0.333255
1499.000000	0.333528
1500.000000	0.333866
1501.000000	0.334242
1502.000000	0.334477
1503.000000	0.334682
1504.000000	0.334838
1505.000000	0.334950
1506.000000	0.335208
1507.000000	0.335587
1508.000000	0.336013
1509.000000	0.336385
1510.000000	0.336653
1511.000000	0.336856
1512.000000	0.336943
1513.000000	0.337079
1514.000000	0.337329
1515.000000	0.337509
1516.000000	0.337783
1517.000000	0.338014
1518.000000	0.338116
1519.000000	0.338236
1520.000000	0.338396
1521.000000	0.338410
1522.000000	0.338461
1523.000000	0.338570
1524.000000	0.338574
1525.000000	0.338755
1526.000000	0.338961
1527.000000	0.339138
1528.000000	0.339367
1529.000000	0.339429
1530.000000	0.339389
1531.000000	0.339476
1532.000000	0.339620
1533.000000	0.339755
1534.000000	0.339944
1535.000000	0.340090
1536.000000	0.340015
1537.000000	0.340026
1538.000000	0.340190
1539.000000	0.340353
1540.000000	0.340547
1541.000000	0.340716
1542.000000	0.340818
1543.000000	0.340898
1544.000000	0.340937
1545.000000	0.341074
1546.000000	0.341177
1547.000000	0.341158
1548.000000	0.341275
1549.000000	0.341380
1550.000000	0.341423
1551.000000	0.341592
1552.000000	0.341638
1553.000000	0.341606
1554.000000	0.341686
1555.000000	0.341655
1556.000000	0.341692
1557.000000	0.341813
1558.000000	0.341911
1559.000000	0.341996
1560.000000	0.341973
1561.000000	0.341907
1562.000000	0.341864
1563.000000	0.341718
1564.000000	0.341828
1565.000000	0.342172
1566.000000	0.342221
1567.000000	0.342401
1568.000000	0.342375
1569.000000	0.342102
1570.000000	0.342124
1571.000000	0.342255
1572.000000	0.342293
1573.000000	0.342411
1574.000000	0.342462
1575.000000	0.342394
1576.000000	0.342468
1577.000000	0.342654
1578.000000	0.342712
1579.000000	0.342791
1580.000000	0.342908
1581.000000	0.343091
1582.000000	0.343166
1583.000000	0.343253
1584.000000	0.343224
1585.000000	0.343137
1586.000000	0.343120
1587.000000	0.343096
1588.000000	0.343043
1589.000000	0.342996
1590.000000	0.342916
1591.000000	0.342837
1592.000000	0.342772
1593.000000	0.342679
1594.000000	0.342703
1595.000000	0.342844
1596.000000	0.342958
1597.000000	0.343233
1598.000000	0.343287
1599.000000	0.343257
1600.000000	0.343239
1601.000000	0.343182
1602.000000	0.343196
1603.000000	0.343265
1604.000000	0.343308
1605.000000	0.343412
1606.000000	0.343469
1607.000000	0.343552
1608.000000	0.343677
1609.000000	0.343862
1610.000000	0.343968
1611.000000	0.344143
1612.000000	0.344220
1613.000000	0.344298
1614.000000	0.344311
1615.000000	0.344343
1616.000000	0.344418
1617.000000	0.344369
1618.000000	0.344437
1619.000000	0.344607
1620.000000	0.344621
1621.000000	0.344620
1622.000000	0.344704
1623.000000	0.344658
1624.000000	0.344719
1625.000000	0.344822
1626.000000	0.344783
1627.000000	0.344720
1628.000000	0.344723
1629.000000	0.344613
1630.000000	0.344591
1631.000000	0.344552
1632.000000	0.344552
1633.000000	0.344730
1634.000000	0.344688
1635.000000	0.344538
1636.000000	0.344537
1637.000000	0.344440
1638.000000	0.344415
1639.000000	0.344751
1640.000000	0.344772
1641.000000	0.344598
1642.000000	0.344605
1643.000000	0.344616
1644.000000	0.344681
1645.000000	0.344892
1646.000000	0.344971
1647.000000	0.345049
1648.000000	0.345080
1649.000000	0.345167
1650.000000	0.345223
1651.000000	0.345262
1652.000000	0.345378
1653.000000	0.345479
1654.000000	0.345538
1655.000000	0.345548
1656.000000	0.345533
1657.000000	0.345514
1658.000000	0.345525
1659.000000	0.345676
1660.000000	0.345836
1661.000000	0.345917
1662.000000	0.346011
1663.000000	0.346143
1664.000000	0.346183
1665.000000	0.346122
1666.000000	0.346277
1667.000000	0.346420
1668.000000	0.346527
1669.000000	0.346696
1670.000000	0.346670
1671.000000	0.346621
1672.000000	0.346677
1673.000000	0.346645
1674.000000	0.346782
1675.000000	0.347115
1676.000000	0.347430
1677.000000	0.347497
1678.000000	0.347549
1679.000000	0.347580
1680.000000	0.347543
1681.000000	0.347717
1682.000000	0.347725
1683.000000	0.347550
1684.000000	0.347562
1685.000000	0.347553
1686.000000	0.347580
1687.000000	0.347860
1688.000000	0.347946
1689.000000	0.348002
1690.000000	0.348126
1691.000000	0.348079
1692.000000	0.348019
1693.000000	0.348133
1694.000000	0.348103
1695.000000	0.348083
1696.000000	0.347830
1697.000000	0.347672
1698.000000	0.347744
1699.000000	0.347702
1700.000000	0.347569
1701.000000	0.347633
1702.000000	0.347486
1703.000000	0.347378
1704.000000	0.347589
1705.000000	0.347659
1706.000000	0.347697
1707.000000	0.347689
1708.000000	0.347540
1709.000000	0.347441
1710.000000	0.347444
1711.000000	0.347428
1712.000000	0.347472
1713.000000	0.347487
1714.000000	0.347478
1715.000000	0.347544
1716.000000	0.347725
1717.000000	0.347805
1718.000000	0.347841
1719.000000	0.347829
1720.000000	0.347763
1721.000000	0.347778
1722.000000	0.347793
1723.000000	0.347896
1724.000000	0.348145
1725.000000	0.348312
1726.000000	0.348427
1727.000000	0.348486
1728.000000	0.348373
1729.000000	0.348329
1730.000000	0.348454
1731.000000	0.348480
1732.000000	0.348506
1733.000000	0.348591
1734.000000	0.348521
1735.000000	0.348473
1736.000000	0.348399
1737.000000	0.348413
1738.000000	0.348453
1739.000000	0.348450
1740.000000	0.348485
1741.000000	0.348530
1742.000000	0.348506
1743.000000	0.348628
1744.000000	0.348871
1745.000000	0.349008
1746.000000	0.349154
1747.000000	0.349014
1748.000000	0.348947
1749.000000	0.348827
1750.000000	0.348677
1751.000000	0.348770
1752.000000	0.348878
1753.000000	0.348782
1754.000000	0.348692
1755.000000	0.348523
1756.000000	0.348424
1757.000000	0.348343
1758.000000	0.348261
1759.000000	0.348233
1760.000000	0.348174
1761.000000	0.347981
1762.000000	0.347874
1763.000000	0.347873
1764.000000	0.347820
1765.000000	0.347738
1766.000000	0.347668
1767.000000	0.347405
1768.000000	0.347322
1769.000000	0.347495
1770.000000	0.347572
1771.000000	0.347625
1772.000000	0.347747
1773.000000	0.347781
1774.000000	0.347868
1775.000000	0.348195
1776.000000	0.348290
1777.000000	0.348154
1778.000000	0.348227
1779.000000	0.348375
1780.000000	0.348329
1781.000000	0.348201
1782.000000	0.348215
1783.000000	0.348168
1784.000000	0.348321
1785.000000	0.348455
1786.000000	0.348414
1787.000000	0.348326
1788.000000	0.348285
1789.000000	0.348299
1790.000000	0.348284
1791.000000	0.348326
1792.000000	0.348639
1793.000000	0.348746
1794.000000	0.348804
1795.000000	0.348891
1796.000000	0.348783
1797.000000	0.348831
1798.000000	0.349042
1799.000000	0.349152
1800.000000	0.349356
1801.000000	0.348787
1802.000000	0.349186
1803.000000	0.349576
1804.000000	0.349937
1805.000000	0.350187
1806.000000	0.350460
1807.000000	0.351257
1808.000000	0.351230
1809.000000	0.350408
1810.000000	0.350104
1811.000000	0.349586
1812.000000	0.348188
1813.000000	0.347982
1814.000000	0.348757
1815.000000	0.348832
1816.000000	0.349254
1817.000000	0.349260
1818.000000	0.348964
1819.000000	0.348419
1820.000000	0.348553
1821.000000	0.348107
1822.000000	0.347886
1823.000000	0.347613
1824.000000	0.347355
1825.000000	0.346860
1826.000000	0.346893
1827.000000	0.346947
1828.000000	0.347210
1829.000000	0.348532
1830.000000	0.348902
1831.000000	0.349179
1832.000000	0.349508
1833.000000	0.349500
1834.000000	0.348650
1835.000000	0.348645
1836.000000	0.349176
1837.000000	0.349220
1838.000000	0.349053
1839.000000	0.348872
1840.000000	0.349061
1841.000000	0.348507
1842.000000	0.348578
1843.000000	0.349581
1844.000000	0.349642
1845.000000	0.349067
1846.000000	0.348885
1847.000000	0.348600
1848.000000	0.347827
1849.000000	0.347356
1850.000000	0.346912
1851.000000	0.346303
1852.000000	0.345362
1853.000000	0.344676
1854.000000	0.343659
1855.000000	0.343174
1856.000000	0.342776
1857.000000	0.342559
1858.000000	0.343043
1859.000000	0.342761
1860.000000	0.342325
1861.000000	0.341754
1862.000000	0.340936
1863.000000	0.339890
1864.000000	0.338919
1865.000000	0.337623
1866.000000	0.336449
1867.000000	0.335368
1868.000000	0.334100
1869.000000	0.332128
1870.000000	0.330983
1871.000000	0.329293
1872.000000	0.326631
1873.000000	0.324715
1874.000000	0.323088
1875.000000	0.321221
1876.000000	0.319214
1877.000000	0.317274
1878.000000	0.314648
1879.000000	0.312003
1880.000000	0.309062
1881.000000	0.305959
1882.000000	0.302862
1883.000000	0.299530
1884.000000	0.296480
1885.000000	0.293624
1886.000000	0.290101
1887.000000	0.286318
1888.000000	0.282443
1889.000000	0.278154
1890.000000	0.274039
1891.000000	0.270641
1892.000000	0.266885
1893.000000	0.262921
1894.000000	0.258635
1895.000000	0.254434
1896.000000	0.250030
1897.000000	0.246252
1898.000000	0.242295
1899.000000	0.239362
1900.000000	0.236773
1901.000000	0.234131
1902.000000	0.232807
1903.000000	0.231251
1904.000000	0.230125
1905.000000	0.229179
1906.000000	0.227602
1907.000000	0.225440
1908.000000	0.223757
1909.000000	0.221629
1910.000000	0.220061
1911.000000	0.219903
1912.000000	0.219974
1913.000000	0.220643
1914.000000	0.221141
1915.000000	0.220489
1916.000000	0.219993
1917.000000	0.219781
1918.000000	0.219627
1919.000000	0.219578
1920.000000	0.220432
1921.000000	0.221030
1922.000000	0.220990
1923.000000	0.221399
1924.000000	0.221756
1925.000000	0.222113
1926.000000	0.222788
1927.000000	0.223338
1928.000000	0.223532
1929.000000	0.223398
1930.000000	0.223233
1931.000000	0.222960
1932.000000	0.222946
1933.000000	0.223748
1934.000000	0.224954
1935.000000	0.226536
1936.000000	0.227660
1937.000000	0.228036
1938.000000	0.227817
1939.000000	0.227765
1940.000000	0.227212
1941.000000	0.227262
1942.000000	0.227797
1943.000000	0.228548
1944.000000	0.228953
1945.000000	0.229705
1946.000000	0.230519
1947.000000	0.230130
1948.000000	0.229889
1949.000000	0.229814
1950.000000	0.229427
1951.000000	0.229044
1952.000000	0.229149
1953.000000	0.228803
1954.000000	0.228304
1955.000000	0.227921
1956.000000	0.227525
1957.000000	0.228150
1958.000000	0.228824
1959.000000	0.228969
1960.000000	0.229271
1961.000000	0.229727
1962.000000	0.229942
1963.000000	0.229885
1964.000000	0.230196
1965.000000	0.230536
1966.000000	0.230380
1967.000000	0.230887
1968.000000	0.231420
1969.000000	0.232104
1970.000000	0.233098
1971.000000	0.233062
1972.000000	0.233128
1973.000000	0.233134
1974.000000	0.232523
1975.000000	0.232513
1976.000000	0.232986
1977.000000	0.233519
1978.000000	0.233629
1979.000000	0.234457
1980.000000	0.235225
1981.000000	0.235533
1982.000000	0.236373
1983.000000	0.237540
1984.000000	0.238124
1985.000000	0.238557
1986.000000	0.238845
1987.000000	0.238797
1988.000000	0.238660
1989.000000	0.239124
1990.000000	0.239971
1991.000000	0.241266
1992.000000	0.242309
1993.000000	0.243092
1994.000000	0.243998
1995.000000	0.244654
1996.000000	0.245458
1997.000000	0.246272
1998.000000	0.247432
1999.000000	0.248064
2000.000000	0.248443
2001.000000	0.248844
2002.000000	0.249000
2003.000000	0.249003
2004.000000	0.249734
2005.000000	0.250358
2006.000000	0.251269
2007.000000	0.252547
2008.000000	0.253558
2009.000000	0.254479
2010.000000	0.255577
2011.000000	0.256574
2012.000000	0.257443
2013.000000	0.258349
2014.000000	0.259235
2015.000000	0.259342
2016.000000	0.259902
2017.000000	0.260635
2018.000000	0.261327
2019.000000	0.262474
2020.000000	0.263235
2021.000000	0.264239
2022.000000	0.265341
2023.000000	0.266013
2024.000000	0.266877
2025.000000	0.267619
2026.000000	0.267751
2027.000000	0.267994
2028.000000	0.268678
2029.000000	0.269024
2030.000000	0.269866
2031.000000	0.270677
2032.000000	0.271361
2033.000000	0.272431
2034.000000	0.273174
2035.000000	0.273831
2036.000000	0.274293
2037.000000	0.274682
2038.000000	0.275054
2039.000000	0.275281
2040.000000	0.275696
2041.000000	0.275988
2042.000000	0.276274
2043.000000	0.276526
2044.000000	0.276769
2045.000000	0.277366
2046.000000	0.278113
2047.000000	0.278832
2048.000000	0.279764
2049.000000	0.280497
2050.000000	0.280829
2051.000000	0.281171
2052.000000	0.281260
2053.000000	0.281360
2054.000000	0.281391
2055.000000	0.282037
2056.000000	0.282778
2057.000000	0.282500
2058.000000	0.283100
2059.000000	0.283272
2060.000000	0.283294
2061.000000	0.283346
2062.000000	0.283529
2063.000000	0.283115
2064.000000	0.283527
2065.000000	0.284890
2066.000000	0.285631
2067.000000	0.286816
2068.000000	0.288025
2069.000000	0.288216
2070.000000	0.288216
2071.000000	0.288621
2072.000000	0.288945
2073.000000	0.289683
2074.000000	0.291021
2075.000000	0.291802
2076.000000	0.292567
2077.000000	0.292990
2078.000000	0.292903
2079.000000	0.292941
2080.000000	0.292752
2081.000000	0.292805
2082.000000	0.293115
2083.000000	0.293326
2084.000000	0.292933
2085.000000	0.292842
2086.000000	0.292942
2087.000000	0.293002
2088.000000	0.293332
2089.000000	0.294058
2090.000000	0.294784
2091.000000	0.295726
2092.000000	0.296167
2093.000000	0.296728
2094.000000	0.296972
2095.000000	0.296060
2096.000000	0.296296
2097.000000	0.296861
2098.000000	0.298112
2099.000000	0.299326
2100.000000	0.300554
2101.000000	0.300763
2102.000000	0.300362
2103.000000	0.300212
2104.000000	0.300443
2105.000000	0.300679
2106.000000	0.301326
2107.000000	0.301833
2108.000000	0.302302
2109.000000	0.302532
2110.000000	0.302622
2111.000000	0.302929
2112.000000	0.302821
2113.000000	0.302931
2114.000000	0.303333
2115.000000	0.304181
2116.000000	0.305064
2117.000000	0.305300
2118.000000	0.306177
2119.000000	0.306173
2120.000000	0.306415
2121.000000	0.306685
2122.000000	0.306786
2123.000000	0.306584
2124.000000	0.306685
2125.000000	0.306817
2126.000000	0.306806
2127.000000	0.306997
2128.000000	0.307223
2129.000000	0.307111
2130.000000	0.307150
2131.000000	0.307958
2132.000000	0.307966
2133.000000	0.307865
2134.000000	0.308024
2135.000000	0.307117
2136.000000	0.306484
2137.000000	0.306567
2138.000000	0.307343
2139.000000	0.307575
2140.000000	0.308260
2141.000000	0.308457
2142.000000	0.307777
2143.000000	0.307603
2144.000000	0.308021
2145.000000	0.308512
2146.000000	0.309122
2147.000000	0.310072
2148.000000	0.311801
2149.000000	0.312726
2150.000000	0.313291
2151.000000	0.314301
2152.000000	0.314008
2153.000000	0.312928
2154.000000	0.312426
2155.000000	0.311858
2156.000000	0.311220
2157.000000	0.310514
2158.000000	0.310339
2159.000000	0.310317
2160.000000	0.310557
2161.000000	0.312227
2162.000000	0.312520
2163.000000	0.311362
2164.000000	0.310936
2165.000000	0.310519
2166.000000	0.309364
2167.000000	0.308806
2168.000000	0.309948
2169.000000	0.310160
2170.000000	0.310049
2171.000000	0.310113
2172.000000	0.310101
2173.000000	0.309935
2174.000000	0.309620
2175.000000	0.309536
2176.000000	0.309706
2177.000000	0.309857
2178.000000	0.310313
2179.000000	0.310551
2180.000000	0.310166
2181.000000	0.310337
2182.000000	0.309983
2183.000000	0.310240
2184.000000	0.310804
2185.000000	0.311510
2186.000000	0.311883
2187.000000	0.311546
2188.000000	0.311238
2189.000000	0.310533
2190.000000	0.309573
2191.000000	0.309787
2192.000000	0.309984
2193.000000	0.310683
2194.000000	0.310536
2195.000000	0.310828
2196.000000	0.310466
2197.000000	0.307904
2198.000000	0.307221
2199.000000	0.308660
2200.000000	0.308003
2201.000000	0.307155
2202.000000	0.306446
2203.000000	0.303613
2204.000000	0.300906
2205.000000	0.302494
2206.000000	0.305235
2207.000000	0.308043
2208.000000	0.309606
2209.000000	0.310225
2210.000000	0.307647
2211.000000	0.305922
2212.000000	0.306672
2213.000000	0.305626
2214.000000	0.304255
2215.000000	0.302775
2216.000000	0.300147
2217.000000	0.299001
2218.000000	0.297927
2219.000000	0.297639
2220.000000	0.297772
2221.000000	0.298895
2222.000000	0.302353
2223.000000	0.303831
2224.000000	0.305713
2225.000000	0.306123
2226.000000	0.305322
2227.000000	0.304136
2228.000000	0.301417
2229.000000	0.300933
2230.000000	0.301420
2231.000000	0.300732
2232.000000	0.299884
2233.000000	0.300436
2234.000000	0.301349
2235.000000	0.301963
2236.000000	0.304653
2237.000000	0.311739
2238.000000	0.313295
2239.000000	0.314075
2240.000000	0.312777
2241.000000	0.306262
2242.000000	0.303994
2243.000000	0.301641
2244.000000	0.301264
2245.000000	0.304795
2246.000000	0.305070
2247.000000	0.304889
2248.000000	0.304861
2249.000000	0.303053
2250.000000	0.302335
2251.000000	0.302816
2252.000000	0.300806
2253.000000	0.299339
2254.000000	0.297237
2255.000000	0.294912
2256.000000	0.296249
2257.000000	0.298823
2258.000000	0.300276
2259.000000	0.303082
2260.000000	0.302959
2261.000000	0.301858
2262.000000	0.298564
2263.000000	0.297303
2264.000000	0.294663
2265.000000	0.295241
2266.000000	0.297952
2267.000000	0.299487
2268.000000	0.302750
2269.000000	0.304314
2270.000000	0.305709
2271.000000	0.305749
2272.000000	0.304754
2273.000000	0.303584
2274.000000	0.300344
2275.000000	0.297738
2276.000000	0.295267
2277.000000	0.292827
2278.000000	0.290185
2279.000000	0.289218
2280.000000	0.287958
2281.000000	0.286932
2282.000000	0.286440
2283.000000	0.285776
2284.000000	0.284367
2285.000000	0.282472
2286.000000	0.281970
2287.000000	0.281084
2288.000000	0.281304
2289.000000	0.281906
2290.000000	0.280325
2291.000000	0.280159
2292.000000	0.279735
2293.000000	0.279757
2294.000000	0.280207
2295.000000	0.281350
2296.000000	0.281864
2297.000000	0.283133
2298.000000	0.282279
2299.000000	0.280745
2300.000000	0.278141
2301.000000	0.273204
2302.000000	0.269862
2303.000000	0.265910
2304.000000	0.263222
2305.000000	0.262049
2306.000000	0.259899
2307.000000	0.256911
2308.000000	0.256489
2309.000000	0.255956
2310.000000	0.254301
2311.000000	0.256549
2312.000000	0.254861
2313.000000	0.250795
2314.000000	0.250221
2315.000000	0.248923
2316.000000	0.249916
2317.000000	0.253314
2318.000000	0.255420
2319.000000	0.256982
2320.000000	0.258103
2321.000000	0.257864
2322.000000	0.258558
2323.000000	0.257910
2324.000000	0.257941
2325.000000	0.261409
2326.000000	0.262771
2327.000000	0.266016
2328.000000	0.268928
2329.000000	0.269754
2330.000000	0.272570
2331.000000	0.271967
2332.000000	0.272645
2333.000000	0.274502
2334.000000	0.271323
2335.000000	0.270414
2336.000000	0.270369
2337.000000	0.268746
2338.000000	0.266645
2339.000000	0.266395
2340.000000	0.265960
2341.000000	0.266277
2342.000000	0.267694
2343.000000	0.267648
2344.000000	0.267089
2345.000000	0.265720
2346.000000	0.264356
2347.000000	0.262253
2348.000000	0.257933
2349.000000	0.258051
2350.000000	0.256640
2351.000000	0.255664
2352.000000	0.257935
2353.000000	0.258586
2354.000000	0.261797
2355.000000	0.263468
2356.000000	0.263312
2357.000000	0.266247
2358.000000	0.264561
2359.000000	0.262925
2360.000000	0.262872
2361.000000	0.258162
2362.000000	0.255428
2363.000000	0.256591
2364.000000	0.254469
2365.000000	0.251448
2366.000000	0.250648
2367.000000	0.248137
2368.000000	0.245367
2369.000000	0.244272
2370.000000	0.242923
2371.000000	0.240845
2372.000000	0.240783
2373.000000	0.243597
2374.000000	0.248026
2375.000000	0.251345
2376.000000	0.253949
2377.000000	0.254132
2378.000000	0.248581
2379.000000	0.242257
2380.000000	0.235397
2381.000000	0.230082
2382.000000	0.226516
2383.000000	0.224101
2384.000000	0.223236
2385.000000	0.225245
2386.000000	0.229632
2387.000000	0.225798
2388.000000	0.224643
2389.000000	0.228389
2390.000000	0.225364
2391.000000	0.227367
2392.000000	0.231641
2393.000000	0.229801
2394.000000	0.230233
2395.000000	0.233850
2396.000000	0.234637
2397.000000	0.232564
2398.000000	0.229668
2399.000000	0.225577
2400.000000	0.226820
2401.000000	0.231484
2402.000000	0.238872
2403.000000	0.249770
2404.000000	0.250695
2405.000000	0.245177
2406.000000	0.239411
2407.000000	0.231981
2408.000000	0.226470
2409.000000	0.226064
2410.000000	0.226905
2411.000000	0.224679
2412.000000	0.226833
2413.000000	0.234685
2414.000000	0.234964
2415.000000	0.224461
2416.000000	0.218141
2417.000000	0.215509
2418.000000	0.208617
2419.000000	0.208291
2420.000000	0.214648
2421.000000	0.207416
2422.000000	0.201541
2423.000000	0.208596
2424.000000	0.207235
2425.000000	0.209228
2426.000000	0.216276
2427.000000	0.211538
2428.000000	0.208494
2429.000000	0.209712
2430.000000	0.210210
2431.000000	0.213258
2432.000000	0.215554
2433.000000	0.219155
2434.000000	0.215145
2435.000000	0.208706
2436.000000	0.208067
2437.000000	0.197539
2438.000000	0.191575
2439.000000	0.192811
2440.000000	0.186393
2441.000000	0.186054
2442.000000	0.183621
2443.000000	0.174034
2444.000000	0.166062
2445.000000	0.166539
2446.000000	0.176138
2447.000000	0.187026
2448.000000	0.204189
2449.000000	0.221073
2450.000000	0.230909
2451.000000	0.230221
2452.000000	0.220327
2453.000000	0.209027
2454.000000	0.198505
2455.000000	0.193600
2456.000000	0.197345
2457.000000	0.197250
2458.000000	0.185629
2459.000000	0.174397
2460.000000	0.164717
2461.000000	0.169973
2462.000000	0.176139
2463.000000	0.175723
2464.000000	0.183112
2465.000000	0.164878
2466.000000	0.141538
2467.000000	0.138435
2468.000000	0.125637
2469.000000	0.137400
2470.000000	0.163419
2471.000000	0.170343
2472.000000	0.187349
2473.000000	0.183978
2474.000000	0.175919
2475.000000	0.191026
2476.000000	0.214110
2477.000000	0.227685
2478.000000	0.219300
2479.000000	0.196829
2480.000000	0.155677
2481.000000	0.147404
2482.000000	0.153013
2483.000000	0.150609
2484.000000	0.191163
2485.000000	0.193998
2486.000000	0.185428
2487.000000	0.220972
2488.000000	0.196831
2489.000000	0.165398
2490.000000	0.179466
2491.000000	0.098172
2492.000000	0.080396
2493.000000	0.100046
2494.000000	0.102465
2495.000000	0.145971
2496.000000	0.162590
2497.000000	0.136066
2498.000000	0.139015
2499.000000	0.168662
2500.000000	0.165775
