# Wavelength	SM1200H-30_HEX-40_FV7-30_00000.asd.rts.txt
350.000000	0.253367
351.000000	0.275358
352.000000	0.269022
353.000000	0.260714
354.000000	0.266389
355.000000	0.264137
356.000000	0.276675
357.000000	0.295150
358.000000	0.282623
359.000000	0.281903
360.000000	0.287205
361.000000	0.283469
362.000000	0.285288
363.000000	0.283706
364.000000	0.275822
365.000000	0.279560
366.000000	0.285530
367.000000	0.287260
368.000000	0.281054
369.000000	0.277548
370.000000	0.278594
371.000000	0.282368
372.000000	0.282610
373.000000	0.282023
374.000000	0.283484
375.000000	0.285793
376.000000	0.286540
377.000000	0.285330
378.000000	0.283771
379.000000	0.285547
380.000000	0.288739
381.000000	0.290630
382.000000	0.289383
383.000000	0.287583
384.000000	0.287600
385.000000	0.288843
386.000000	0.291201
387.000000	0.294083
388.000000	0.296006
389.000000	0.295870
390.000000	0.294781
391.000000	0.294326
392.000000	0.295263
393.000000	0.296588
394.000000	0.297368
395.000000	0.297829
396.000000	0.297412
397.000000	0.296475
398.000000	0.296825
399.000000	0.297108
400.000000	0.297755
401.000000	0.299578
402.000000	0.300148
403.000000	0.300677
404.000000	0.302207
405.000000	0.301255
406.000000	0.300650
407.000000	0.301496
408.000000	0.301622
409.000000	0.302113
410.000000	0.302967
411.000000	0.303571
412.000000	0.303485
413.000000	0.303278
414.000000	0.303663
415.000000	0.304597
416.000000	0.305342
417.000000	0.305604
418.000000	0.306108
419.000000	0.306415
420.000000	0.306511
421.000000	0.306707
422.000000	0.307296
423.000000	0.307798
424.000000	0.307726
425.000000	0.308073
426.000000	0.308528
427.000000	0.308722
428.000000	0.308630
429.000000	0.308988
430.000000	0.309808
431.000000	0.310098
432.000000	0.310599
433.000000	0.311194
434.000000	0.311530
435.000000	0.311492
436.000000	0.311471
437.000000	0.311740
438.000000	0.311651
439.000000	0.311680
440.000000	0.312126
441.000000	0.312506
442.000000	0.312552
443.000000	0.312465
444.000000	0.313042
445.000000	0.313349
446.000000	0.313672
447.000000	0.314262
448.000000	0.314426
449.000000	0.314559
450.000000	0.314978
451.000000	0.315484
452.000000	0.315792
453.000000	0.315783
454.000000	0.315778
455.000000	0.316010
456.000000	0.316355
457.000000	0.316338
458.000000	0.316647
459.000000	0.317081
460.000000	0.317455
461.000000	0.318021
462.000000	0.318490
463.000000	0.318630
464.000000	0.318993
465.000000	0.319222
466.000000	0.319275
467.000000	0.319465
468.000000	0.319721
469.000000	0.319916
470.000000	0.320130
471.000000	0.320301
472.000000	0.320426
473.000000	0.320568
474.000000	0.320810
475.000000	0.320919
476.000000	0.321085
477.000000	0.321557
478.000000	0.321803
479.000000	0.322038
480.000000	0.322322
481.000000	0.322529
482.000000	0.322823
483.000000	0.323066
484.000000	0.323233
485.000000	0.323276
486.000000	0.323438
487.000000	0.323798
488.000000	0.323930
489.000000	0.324044
490.000000	0.324759
491.000000	0.325071
492.000000	0.325223
493.000000	0.325549
494.000000	0.325739
495.000000	0.326043
496.000000	0.326539
497.000000	0.326942
498.000000	0.327172
499.000000	0.327345
500.000000	0.327585
501.000000	0.327703
502.000000	0.327881
503.000000	0.328337
504.000000	0.328728
505.000000	0.329017
506.000000	0.329243
507.000000	0.329415
508.000000	0.329757
509.000000	0.330251
510.000000	0.330550
511.000000	0.330874
512.000000	0.331239
513.000000	0.331439
514.000000	0.331771
515.000000	0.332196
516.000000	0.332489
517.000000	0.332668
518.000000	0.332920
519.000000	0.333254
520.000000	0.333550
521.000000	0.333801
522.000000	0.334069
523.000000	0.334525
524.000000	0.334818
525.000000	0.334964
526.000000	0.335228
527.000000	0.335591
528.000000	0.335932
529.000000	0.336202
530.000000	0.336463
531.000000	0.336790
532.000000	0.337102
533.000000	0.337366
534.000000	0.337651
535.000000	0.337969
536.000000	0.338334
537.000000	0.338532
538.000000	0.338705
539.000000	0.339099
540.000000	0.339426
541.000000	0.339664
542.000000	0.339895
543.000000	0.340193
544.000000	0.340501
545.000000	0.340731
546.000000	0.341043
547.000000	0.341371
548.000000	0.341709
549.000000	0.341965
550.000000	0.342271
551.000000	0.342661
552.000000	0.343050
553.000000	0.343255
554.000000	0.343487
555.000000	0.343894
556.000000	0.344289
557.000000	0.344544
558.000000	0.344828
559.000000	0.345268
560.000000	0.345584
561.000000	0.345854
562.000000	0.346142
563.000000	0.346487
564.000000	0.346829
565.000000	0.347010
566.000000	0.347431
567.000000	0.347814
568.000000	0.348017
569.000000	0.348403
570.000000	0.348767
571.000000	0.349072
572.000000	0.349451
573.000000	0.349743
574.000000	0.349967
575.000000	0.350265
576.000000	0.350552
577.000000	0.350834
578.000000	0.351186
579.000000	0.351509
580.000000	0.351835
581.000000	0.352163
582.000000	0.352450
583.000000	0.352707
584.000000	0.352970
585.000000	0.353292
586.000000	0.353600
587.000000	0.353880
588.000000	0.354139
589.000000	0.354398
590.000000	0.354665
591.000000	0.354936
592.000000	0.355175
593.000000	0.355439
594.000000	0.355720
595.000000	0.355953
596.000000	0.356125
597.000000	0.356339
598.000000	0.356603
599.000000	0.356801
600.000000	0.356969
601.000000	0.357077
602.000000	0.357257
603.000000	0.357464
604.000000	0.357689
605.000000	0.357966
606.000000	0.358138
607.000000	0.358262
608.000000	0.358530
609.000000	0.358815
610.000000	0.359070
611.000000	0.359280
612.000000	0.359528
613.000000	0.359694
614.000000	0.359775
615.000000	0.359927
616.000000	0.360121
617.000000	0.360266
618.000000	0.360321
619.000000	0.360442
620.000000	0.360579
621.000000	0.360686
622.000000	0.360826
623.000000	0.360932
624.000000	0.360967
625.000000	0.361068
626.000000	0.361199
627.000000	0.361346
628.000000	0.361544
629.000000	0.361768
630.000000	0.361870
631.000000	0.361983
632.000000	0.362102
633.000000	0.362247
634.000000	0.362414
635.000000	0.362589
636.000000	0.362728
637.000000	0.362820
638.000000	0.363004
639.000000	0.363192
640.000000	0.363395
641.000000	0.363498
642.000000	0.363611
643.000000	0.363742
644.000000	0.363884
645.000000	0.364085
646.000000	0.364324
647.000000	0.364530
648.000000	0.364644
649.000000	0.364800
650.000000	0.365000
651.000000	0.365151
652.000000	0.365257
653.000000	0.365404
654.000000	0.365607
655.000000	0.365821
656.000000	0.366034
657.000000	0.366170
658.000000	0.366268
659.000000	0.366398
660.000000	0.366548
661.000000	0.366614
662.000000	0.366666
663.000000	0.366786
664.000000	0.366935
665.000000	0.367101
666.000000	0.367269
667.000000	0.367401
668.000000	0.367583
669.000000	0.367738
670.000000	0.367853
671.000000	0.368062
672.000000	0.368249
673.000000	0.368396
674.000000	0.368586
675.000000	0.368696
676.000000	0.368793
677.000000	0.368994
678.000000	0.369118
679.000000	0.369247
680.000000	0.369440
681.000000	0.369560
682.000000	0.369747
683.000000	0.369939
684.000000	0.370147
685.000000	0.370339
686.000000	0.370549
687.000000	0.370761
688.000000	0.370968
689.000000	0.371145
690.000000	0.371321
691.000000	0.371501
692.000000	0.371625
693.000000	0.371759
694.000000	0.371909
695.000000	0.372076
696.000000	0.372231
697.000000	0.372346
698.000000	0.372476
699.000000	0.372643
700.000000	0.372844
701.000000	0.372955
702.000000	0.373119
703.000000	0.373321
704.000000	0.373382
705.000000	0.373502
706.000000	0.373659
707.000000	0.373859
708.000000	0.374074
709.000000	0.374250
710.000000	0.374378
711.000000	0.374499
712.000000	0.374626
713.000000	0.374774
714.000000	0.374872
715.000000	0.374998
716.000000	0.375143
717.000000	0.375237
718.000000	0.375373
719.000000	0.375505
720.000000	0.375614
721.000000	0.375779
722.000000	0.375928
723.000000	0.376097
724.000000	0.376242
725.000000	0.376358
726.000000	0.376497
727.000000	0.376542
728.000000	0.376614
729.000000	0.376705
730.000000	0.376739
731.000000	0.376837
732.000000	0.376960
733.000000	0.377122
734.000000	0.377260
735.000000	0.377335
736.000000	0.377487
737.000000	0.377613
738.000000	0.377712
739.000000	0.377835
740.000000	0.377833
741.000000	0.377900
742.000000	0.378038
743.000000	0.378162
744.000000	0.378195
745.000000	0.378237
746.000000	0.378331
747.000000	0.378376
748.000000	0.378447
749.000000	0.378558
750.000000	0.378656
751.000000	0.378698
752.000000	0.378761
753.000000	0.378862
754.000000	0.378939
755.000000	0.379037
756.000000	0.379140
757.000000	0.379171
758.000000	0.379212
759.000000	0.379293
760.000000	0.379352
761.000000	0.379487
762.000000	0.379629
763.000000	0.379718
764.000000	0.379791
765.000000	0.379861
766.000000	0.379943
767.000000	0.380028
768.000000	0.380051
769.000000	0.380081
770.000000	0.380137
771.000000	0.380140
772.000000	0.380218
773.000000	0.380267
774.000000	0.380273
775.000000	0.380367
776.000000	0.380443
777.000000	0.380414
778.000000	0.380451
779.000000	0.380527
780.000000	0.380625
781.000000	0.380703
782.000000	0.380726
783.000000	0.380850
784.000000	0.381002
785.000000	0.381014
786.000000	0.380997
787.000000	0.381007
788.000000	0.380963
789.000000	0.381002
790.000000	0.381094
791.000000	0.381180
792.000000	0.381198
793.000000	0.381215
794.000000	0.381283
795.000000	0.381302
796.000000	0.381293
797.000000	0.381266
798.000000	0.381244
799.000000	0.381250
800.000000	0.381283
801.000000	0.381327
802.000000	0.381341
803.000000	0.381348
804.000000	0.381391
805.000000	0.381371
806.000000	0.381267
807.000000	0.381204
808.000000	0.381189
809.000000	0.381161
810.000000	0.381091
811.000000	0.380988
812.000000	0.381015
813.000000	0.381097
814.000000	0.381166
815.000000	0.381182
816.000000	0.381219
817.000000	0.381287
818.000000	0.381292
819.000000	0.381405
820.000000	0.381530
821.000000	0.381535
822.000000	0.381439
823.000000	0.381363
824.000000	0.381300
825.000000	0.381325
826.000000	0.381298
827.000000	0.381232
828.000000	0.381203
829.000000	0.381203
830.000000	0.381181
831.000000	0.381187
832.000000	0.381117
833.000000	0.381010
834.000000	0.380899
835.000000	0.380839
836.000000	0.380771
837.000000	0.380701
838.000000	0.380673
839.000000	0.380698
840.000000	0.380728
841.000000	0.380752
842.000000	0.380715
843.000000	0.380623
844.000000	0.380618
845.000000	0.380654
846.000000	0.380569
847.000000	0.380494
848.000000	0.380442
849.000000	0.380418
850.000000	0.380286
851.000000	0.380157
852.000000	0.380130
853.000000	0.380134
854.000000	0.380097
855.000000	0.380145
856.000000	0.380199
857.000000	0.380113
858.000000	0.380061
859.000000	0.380015
860.000000	0.379894
861.000000	0.379700
862.000000	0.379547
863.000000	0.379471
864.000000	0.379386
865.000000	0.379356
866.000000	0.379391
867.000000	0.379278
868.000000	0.379151
869.000000	0.379000
870.000000	0.378908
871.000000	0.378873
872.000000	0.378795
873.000000	0.378578
874.000000	0.378417
875.000000	0.378272
876.000000	0.378107
877.000000	0.377817
878.000000	0.377558
879.000000	0.377362
880.000000	0.377121
881.000000	0.377125
882.000000	0.377089
883.000000	0.376990
884.000000	0.376832
885.000000	0.376680
886.000000	0.376508
887.000000	0.376322
888.000000	0.376076
889.000000	0.375961
890.000000	0.375881
891.000000	0.375884
892.000000	0.375723
893.000000	0.375423
894.000000	0.375210
895.000000	0.375116
896.000000	0.374852
897.000000	0.374602
898.000000	0.374619
899.000000	0.374443
900.000000	0.374259
901.000000	0.374121
902.000000	0.374019
903.000000	0.373875
904.000000	0.373773
905.000000	0.373659
906.000000	0.373385
907.000000	0.373114
908.000000	0.372940
909.000000	0.372653
910.000000	0.372523
911.000000	0.372429
912.000000	0.372248
913.000000	0.372094
914.000000	0.371982
915.000000	0.371919
916.000000	0.371701
917.000000	0.371297
918.000000	0.371008
919.000000	0.370921
920.000000	0.370524
921.000000	0.370172
922.000000	0.369900
923.000000	0.369594
924.000000	0.369642
925.000000	0.369607
926.000000	0.369318
927.000000	0.369076
928.000000	0.368658
929.000000	0.368277
930.000000	0.368183
931.000000	0.367979
932.000000	0.367699
933.000000	0.367424
934.000000	0.367133
935.000000	0.366949
936.000000	0.366784
937.000000	0.366450
938.000000	0.366168
939.000000	0.365899
940.000000	0.365634
941.000000	0.365542
942.000000	0.365256
943.000000	0.364863
944.000000	0.364386
945.000000	0.364155
946.000000	0.363858
947.000000	0.363581
948.000000	0.363413
949.000000	0.363292
950.000000	0.363110
951.000000	0.362821
952.000000	0.362590
953.000000	0.362341
954.000000	0.362061
955.000000	0.361701
956.000000	0.361446
957.000000	0.361215
958.000000	0.360964
959.000000	0.360814
960.000000	0.360765
961.000000	0.360431
962.000000	0.359863
963.000000	0.359702
964.000000	0.359639
965.000000	0.359436
966.000000	0.358920
967.000000	0.358669
968.000000	0.358484
969.000000	0.358266
970.000000	0.358118
971.000000	0.358022
972.000000	0.357988
973.000000	0.357850
974.000000	0.357471
975.000000	0.357023
976.000000	0.356789
977.000000	0.356816
978.000000	0.356462
979.000000	0.356241
980.000000	0.356040
981.000000	0.356036
982.000000	0.356001
983.000000	0.355692
984.000000	0.355333
985.000000	0.355397
986.000000	0.355103
987.000000	0.354855
988.000000	0.354787
989.000000	0.354428
990.000000	0.354172
991.000000	0.354027
992.000000	0.353892
993.000000	0.353505
994.000000	0.353172
995.000000	0.353203
996.000000	0.353357
997.000000	0.353350
998.000000	0.353090
999.000000	0.352835
1000.000000	0.352961
1001.000000	0.353355
1002.000000	0.353033
1003.000000	0.352497
1004.000000	0.352207
1005.000000	0.352199
1006.000000	0.351916
1007.000000	0.351615
1008.000000	0.351420
1009.000000	0.351163
1010.000000	0.350551
1011.000000	0.350930
1012.000000	0.351198
1013.000000	0.350827
1014.000000	0.351002
1015.000000	0.351041
1016.000000	0.350779
1017.000000	0.350499
1018.000000	0.350467
1019.000000	0.350324
1020.000000	0.349963
1021.000000	0.349792
1022.000000	0.349995
1023.000000	0.350255
1024.000000	0.350555
1025.000000	0.351062
1026.000000	0.350971
1027.000000	0.350493
1028.000000	0.350094
1029.000000	0.350025
1030.000000	0.349933
1031.000000	0.350256
1032.000000	0.350916
1033.000000	0.350796
1034.000000	0.350931
1035.000000	0.351420
1036.000000	0.351522
1037.000000	0.351320
1038.000000	0.351077
1039.000000	0.350650
1040.000000	0.350520
1041.000000	0.350490
1042.000000	0.350815
1043.000000	0.351630
1044.000000	0.351927
1045.000000	0.351817
1046.000000	0.351833
1047.000000	0.351875
1048.000000	0.351491
1049.000000	0.351533
1050.000000	0.352327
1051.000000	0.352287
1052.000000	0.351693
1053.000000	0.351594
1054.000000	0.351304
1055.000000	0.351277
1056.000000	0.351626
1057.000000	0.352294
1058.000000	0.352780
1059.000000	0.353042
1060.000000	0.353260
1061.000000	0.353563
1062.000000	0.353559
1063.000000	0.353717
1064.000000	0.354020
1065.000000	0.354640
1066.000000	0.354724
1067.000000	0.354453
1068.000000	0.354494
1069.000000	0.354293
1070.000000	0.354318
1071.000000	0.354832
1072.000000	0.355168
1073.000000	0.355557
1074.000000	0.355695
1075.000000	0.355909
1076.000000	0.356287
1077.000000	0.356654
1078.000000	0.356749
1079.000000	0.356605
1080.000000	0.356054
1081.000000	0.356149
1082.000000	0.356380
1083.000000	0.356611
1084.000000	0.357402
1085.000000	0.357921
1086.000000	0.358179
1087.000000	0.358441
1088.000000	0.358609
1089.000000	0.358890
1090.000000	0.359219
1091.000000	0.359284
1092.000000	0.359010
1093.000000	0.359238
1094.000000	0.359352
1095.000000	0.359067
1096.000000	0.359206
1097.000000	0.359897
1098.000000	0.360054
1099.000000	0.359754
1100.000000	0.359980
1101.000000	0.360310
1102.000000	0.360565
1103.000000	0.361069
1104.000000	0.361420
1105.000000	0.361548
1106.000000	0.361756
1107.000000	0.361943
1108.000000	0.362136
1109.000000	0.362578
1110.000000	0.362671
1111.000000	0.362714
1112.000000	0.362663
1113.000000	0.362767
1114.000000	0.362754
1115.000000	0.362835
1116.000000	0.362989
1117.000000	0.363297
1118.000000	0.363711
1119.000000	0.363931
1120.000000	0.364415
1121.000000	0.364557
1122.000000	0.364257
1123.000000	0.364492
1124.000000	0.364662
1125.000000	0.364834
1126.000000	0.365152
1127.000000	0.365329
1128.000000	0.365421
1129.000000	0.365348
1130.000000	0.365538
1131.000000	0.365910
1132.000000	0.365969
1133.000000	0.366075
1134.000000	0.366139
1135.000000	0.365874
1136.000000	0.365822
1137.000000	0.365902
1138.000000	0.365912
1139.000000	0.366039
1140.000000	0.366170
1141.000000	0.366280
1142.000000	0.366355
1143.000000	0.366297
1144.000000	0.366391
1145.000000	0.366325
1146.000000	0.366247
1147.000000	0.366147
1148.000000	0.365894
1149.000000	0.365828
1150.000000	0.365717
1151.000000	0.365890
1152.000000	0.366346
1153.000000	0.366500
1154.000000	0.366646
1155.000000	0.366705
1156.000000	0.366479
1157.000000	0.366467
1158.000000	0.366531
1159.000000	0.366551
1160.000000	0.366631
1161.000000	0.366632
1162.000000	0.366652
1163.000000	0.366812
1164.000000	0.366603
1165.000000	0.366355
1166.000000	0.366286
1167.000000	0.366096
1168.000000	0.366018
1169.000000	0.366155
1170.000000	0.366242
1171.000000	0.366418
1172.000000	0.366483
1173.000000	0.366490
1174.000000	0.366522
1175.000000	0.366419
1176.000000	0.366347
1177.000000	0.366424
1178.000000	0.366484
1179.000000	0.366534
1180.000000	0.366472
1181.000000	0.366469
1182.000000	0.366490
1183.000000	0.366399
1184.000000	0.366419
1185.000000	0.366475
1186.000000	0.366601
1187.000000	0.366649
1188.000000	0.366771
1189.000000	0.366721
1190.000000	0.366608
1191.000000	0.366527
1192.000000	0.366429
1193.000000	0.366512
1194.000000	0.366564
1195.000000	0.366617
1196.000000	0.366740
1197.000000	0.366725
1198.000000	0.366576
1199.000000	0.366584
1200.000000	0.366601
1201.000000	0.366604
1202.000000	0.366801
1203.000000	0.366802
1204.000000	0.366561
1205.000000	0.366525
1206.000000	0.366409
1207.000000	0.366331
1208.000000	0.366218
1209.000000	0.366183
1210.000000	0.366138
1211.000000	0.366056
1212.000000	0.366001
1213.000000	0.366085
1214.000000	0.366074
1215.000000	0.365920
1216.000000	0.365908
1217.000000	0.365925
1218.000000	0.365898
1219.000000	0.365969
1220.000000	0.365998
1221.000000	0.365991
1222.000000	0.366024
1223.000000	0.366026
1224.000000	0.366078
1225.000000	0.366006
1226.000000	0.365885
1227.000000	0.365805
1228.000000	0.365799
1229.000000	0.365746
1230.000000	0.365760
1231.000000	0.365609
1232.000000	0.365426
1233.000000	0.365459
1234.000000	0.365503
1235.000000	0.365501
1236.000000	0.365503
1237.000000	0.365563
1238.000000	0.365530
1239.000000	0.365540
1240.000000	0.365644
1241.000000	0.365717
1242.000000	0.365695
1243.000000	0.365693
1244.000000	0.365749
1245.000000	0.365899
1246.000000	0.365935
1247.000000	0.365953
1248.000000	0.365894
1249.000000	0.365730
1250.000000	0.365706
1251.000000	0.365727
1252.000000	0.365771
1253.000000	0.366015
1254.000000	0.366060
1255.000000	0.366006
1256.000000	0.365976
1257.000000	0.365868
1258.000000	0.365876
1259.000000	0.365861
1260.000000	0.365886
1261.000000	0.365961
1262.000000	0.365937
1263.000000	0.365821
1264.000000	0.365832
1265.000000	0.365927
1266.000000	0.365802
1267.000000	0.365656
1268.000000	0.365538
1269.000000	0.365247
1270.000000	0.365174
1271.000000	0.365303
1272.000000	0.365483
1273.000000	0.365785
1274.000000	0.365906
1275.000000	0.365848
1276.000000	0.365531
1277.000000	0.365531
1278.000000	0.365438
1279.000000	0.365429
1280.000000	0.365584
1281.000000	0.365527
1282.000000	0.365342
1283.000000	0.365333
1284.000000	0.365270
1285.000000	0.365288
1286.000000	0.365405
1287.000000	0.365462
1288.000000	0.365513
1289.000000	0.365417
1290.000000	0.365196
1291.000000	0.365005
1292.000000	0.364861
1293.000000	0.364811
1294.000000	0.364854
1295.000000	0.364841
1296.000000	0.364809
1297.000000	0.364839
1298.000000	0.364844
1299.000000	0.364929
1300.000000	0.364971
1301.000000	0.364824
1302.000000	0.364709
1303.000000	0.364723
1304.000000	0.364585
1305.000000	0.364536
1306.000000	0.364433
1307.000000	0.364184
1308.000000	0.364070
1309.000000	0.364050
1310.000000	0.363968
1311.000000	0.363893
1312.000000	0.363929
1313.000000	0.363839
1314.000000	0.363672
1315.000000	0.363489
1316.000000	0.363432
1317.000000	0.363462
1318.000000	0.363363
1319.000000	0.363127
1320.000000	0.362840
1321.000000	0.362530
1322.000000	0.362269
1323.000000	0.362251
1324.000000	0.362371
1325.000000	0.362438
1326.000000	0.362495
1327.000000	0.362308
1328.000000	0.362126
1329.000000	0.361966
1330.000000	0.361738
1331.000000	0.361615
1332.000000	0.361730
1333.000000	0.361617
1334.000000	0.361530
1335.000000	0.361450
1336.000000	0.361188
1337.000000	0.361054
1338.000000	0.361000
1339.000000	0.360741
1340.000000	0.360529
1341.000000	0.360377
1342.000000	0.360114
1343.000000	0.359960
1344.000000	0.359863
1345.000000	0.359716
1346.000000	0.359720
1347.000000	0.359533
1348.000000	0.359382
1349.000000	0.359289
1350.000000	0.358958
1351.000000	0.358624
1352.000000	0.358421
1353.000000	0.358230
1354.000000	0.358288
1355.000000	0.358317
1356.000000	0.358246
1357.000000	0.358050
1358.000000	0.357794
1359.000000	0.357641
1360.000000	0.357408
1361.000000	0.357200
1362.000000	0.356928
1363.000000	0.356496
1364.000000	0.356257
1365.000000	0.356041
1366.000000	0.355846
1367.000000	0.355787
1368.000000	0.355595
1369.000000	0.355320
1370.000000	0.354976
1371.000000	0.354401
1372.000000	0.353928
1373.000000	0.353533
1374.000000	0.353023
1375.000000	0.352628
1376.000000	0.352278
1377.000000	0.351755
1378.000000	0.351152
1379.000000	0.350235
1380.000000	0.348985
1381.000000	0.347620
1382.000000	0.346144
1383.000000	0.344641
1384.000000	0.343037
1385.000000	0.341321
1386.000000	0.339785
1387.000000	0.338466
1388.000000	0.337332
1389.000000	0.336467
1390.000000	0.335764
1391.000000	0.335271
1392.000000	0.335020
1393.000000	0.334677
1394.000000	0.334395
1395.000000	0.334246
1396.000000	0.334219
1397.000000	0.334004
1398.000000	0.333914
1399.000000	0.333605
1400.000000	0.333038
1401.000000	0.332365
1402.000000	0.331633
1403.000000	0.330834
1404.000000	0.329977
1405.000000	0.329076
1406.000000	0.328326
1407.000000	0.327605
1408.000000	0.326687
1409.000000	0.325921
1410.000000	0.325225
1411.000000	0.324360
1412.000000	0.323551
1413.000000	0.322868
1414.000000	0.322163
1415.000000	0.321479
1416.000000	0.320809
1417.000000	0.320161
1418.000000	0.319497
1419.000000	0.318858
1420.000000	0.318232
1421.000000	0.317731
1422.000000	0.317244
1423.000000	0.316847
1424.000000	0.316227
1425.000000	0.315578
1426.000000	0.314988
1427.000000	0.314360
1428.000000	0.313902
1429.000000	0.313469
1430.000000	0.313037
1431.000000	0.312610
1432.000000	0.312173
1433.000000	0.311833
1434.000000	0.311485
1435.000000	0.311194
1436.000000	0.310845
1437.000000	0.310456
1438.000000	0.310078
1439.000000	0.309723
1440.000000	0.309369
1441.000000	0.309066
1442.000000	0.308790
1443.000000	0.308464
1444.000000	0.308087
1445.000000	0.307735
1446.000000	0.307433
1447.000000	0.307121
1448.000000	0.306880
1449.000000	0.306719
1450.000000	0.306542
1451.000000	0.306258
1452.000000	0.305795
1453.000000	0.305379
1454.000000	0.305015
1455.000000	0.304711
1456.000000	0.304632
1457.000000	0.304498
1458.000000	0.304254
1459.000000	0.304172
1460.000000	0.304099
1461.000000	0.304010
1462.000000	0.304097
1463.000000	0.304054
1464.000000	0.303927
1465.000000	0.303917
1466.000000	0.303866
1467.000000	0.303904
1468.000000	0.303913
1469.000000	0.303974
1470.000000	0.304184
1471.000000	0.304281
1472.000000	0.304302
1473.000000	0.304565
1474.000000	0.304703
1475.000000	0.304832
1476.000000	0.305120
1477.000000	0.305276
1478.000000	0.305424
1479.000000	0.305642
1480.000000	0.305887
1481.000000	0.306117
1482.000000	0.306437
1483.000000	0.306745
1484.000000	0.307001
1485.000000	0.307315
1486.000000	0.307666
1487.000000	0.308036
1488.000000	0.308490
1489.000000	0.308901
1490.000000	0.309169
1491.000000	0.309553
1492.000000	0.309899
1493.000000	0.310295
1494.000000	0.310770
1495.000000	0.311164
1496.000000	0.311481
1497.000000	0.311909
1498.000000	0.312430
1499.000000	0.312778
1500.000000	0.313269
1501.000000	0.313601
1502.000000	0.313701
1503.000000	0.314023
1504.000000	0.314316
1505.000000	0.314533
1506.000000	0.314826
1507.000000	0.315123
1508.000000	0.315431
1509.000000	0.315684
1510.000000	0.315796
1511.000000	0.315888
1512.000000	0.316035
1513.000000	0.316215
1514.000000	0.316539
1515.000000	0.316817
1516.000000	0.317078
1517.000000	0.317246
1518.000000	0.317260
1519.000000	0.317366
1520.000000	0.317478
1521.000000	0.317434
1522.000000	0.317642
1523.000000	0.317963
1524.000000	0.318047
1525.000000	0.318238
1526.000000	0.318365
1527.000000	0.318394
1528.000000	0.318627
1529.000000	0.318773
1530.000000	0.318825
1531.000000	0.318990
1532.000000	0.319074
1533.000000	0.319168
1534.000000	0.319308
1535.000000	0.319404
1536.000000	0.319423
1537.000000	0.319488
1538.000000	0.319530
1539.000000	0.319505
1540.000000	0.319542
1541.000000	0.319593
1542.000000	0.319735
1543.000000	0.319945
1544.000000	0.320051
1545.000000	0.320157
1546.000000	0.320268
1547.000000	0.320352
1548.000000	0.320473
1549.000000	0.320535
1550.000000	0.320472
1551.000000	0.320489
1552.000000	0.320517
1553.000000	0.320493
1554.000000	0.320566
1555.000000	0.320628
1556.000000	0.320670
1557.000000	0.320678
1558.000000	0.320699
1559.000000	0.320644
1560.000000	0.320624
1561.000000	0.320652
1562.000000	0.320654
1563.000000	0.320729
1564.000000	0.320671
1565.000000	0.320496
1566.000000	0.320449
1567.000000	0.320467
1568.000000	0.320499
1569.000000	0.320783
1570.000000	0.320810
1571.000000	0.320659
1572.000000	0.320615
1573.000000	0.320549
1574.000000	0.320546
1575.000000	0.320649
1576.000000	0.320668
1577.000000	0.320649
1578.000000	0.320531
1579.000000	0.320353
1580.000000	0.320281
1581.000000	0.320310
1582.000000	0.320270
1583.000000	0.320249
1584.000000	0.320186
1585.000000	0.320067
1586.000000	0.320123
1587.000000	0.320315
1588.000000	0.320430
1589.000000	0.320650
1590.000000	0.320738
1591.000000	0.320723
1592.000000	0.320725
1593.000000	0.320735
1594.000000	0.320717
1595.000000	0.320697
1596.000000	0.320774
1597.000000	0.320912
1598.000000	0.320962
1599.000000	0.321119
1600.000000	0.321122
1601.000000	0.321004
1602.000000	0.321052
1603.000000	0.321238
1604.000000	0.321254
1605.000000	0.321235
1606.000000	0.321252
1607.000000	0.321260
1608.000000	0.321203
1609.000000	0.321240
1610.000000	0.321285
1611.000000	0.321189
1612.000000	0.321273
1613.000000	0.321708
1614.000000	0.321824
1615.000000	0.321869
1616.000000	0.322012
1617.000000	0.322049
1618.000000	0.322083
1619.000000	0.322145
1620.000000	0.322233
1621.000000	0.322256
1622.000000	0.322408
1623.000000	0.322707
1624.000000	0.322876
1625.000000	0.322828
1626.000000	0.322897
1627.000000	0.322990
1628.000000	0.323155
1629.000000	0.323447
1630.000000	0.323605
1631.000000	0.323660
1632.000000	0.323696
1633.000000	0.323645
1634.000000	0.323702
1635.000000	0.323788
1636.000000	0.323939
1637.000000	0.324227
1638.000000	0.324384
1639.000000	0.324646
1640.000000	0.324748
1641.000000	0.324719
1642.000000	0.324829
1643.000000	0.324995
1644.000000	0.325114
1645.000000	0.325270
1646.000000	0.325397
1647.000000	0.325538
1648.000000	0.325552
1649.000000	0.325586
1650.000000	0.325672
1651.000000	0.325725
1652.000000	0.325882
1653.000000	0.326114
1654.000000	0.326323
1655.000000	0.326461
1656.000000	0.326509
1657.000000	0.326641
1658.000000	0.326693
1659.000000	0.326754
1660.000000	0.326877
1661.000000	0.326834
1662.000000	0.327038
1663.000000	0.327391
1664.000000	0.327558
1665.000000	0.327820
1666.000000	0.328008
1667.000000	0.327926
1668.000000	0.328024
1669.000000	0.328202
1670.000000	0.328240
1671.000000	0.328280
1672.000000	0.328513
1673.000000	0.328801
1674.000000	0.328970
1675.000000	0.329236
1676.000000	0.329311
1677.000000	0.329160
1678.000000	0.329120
1679.000000	0.329252
1680.000000	0.329305
1681.000000	0.329326
1682.000000	0.329526
1683.000000	0.329700
1684.000000	0.329755
1685.000000	0.329886
1686.000000	0.329910
1687.000000	0.329847
1688.000000	0.329844
1689.000000	0.330013
1690.000000	0.330136
1691.000000	0.330200
1692.000000	0.330246
1693.000000	0.330262
1694.000000	0.330233
1695.000000	0.330299
1696.000000	0.330177
1697.000000	0.330172
1698.000000	0.330399
1699.000000	0.330491
1700.000000	0.330581
1701.000000	0.330752
1702.000000	0.330688
1703.000000	0.330575
1704.000000	0.330526
1705.000000	0.330552
1706.000000	0.330583
1707.000000	0.330608
1708.000000	0.330808
1709.000000	0.330782
1710.000000	0.330551
1711.000000	0.330566
1712.000000	0.330685
1713.000000	0.330724
1714.000000	0.330969
1715.000000	0.331077
1716.000000	0.331023
1717.000000	0.331047
1718.000000	0.331049
1719.000000	0.331066
1720.000000	0.331159
1721.000000	0.331202
1722.000000	0.331218
1723.000000	0.331296
1724.000000	0.331400
1725.000000	0.331556
1726.000000	0.331753
1727.000000	0.331824
1728.000000	0.331715
1729.000000	0.331735
1730.000000	0.331949
1731.000000	0.331985
1732.000000	0.332043
1733.000000	0.332154
1734.000000	0.331946
1735.000000	0.332031
1736.000000	0.332332
1737.000000	0.332470
1738.000000	0.332617
1739.000000	0.332761
1740.000000	0.332864
1741.000000	0.332932
1742.000000	0.333010
1743.000000	0.333120
1744.000000	0.333176
1745.000000	0.333212
1746.000000	0.333250
1747.000000	0.333421
1748.000000	0.333392
1749.000000	0.333261
1750.000000	0.333190
1751.000000	0.333060
1752.000000	0.333156
1753.000000	0.333358
1754.000000	0.333541
1755.000000	0.333773
1756.000000	0.333924
1757.000000	0.334097
1758.000000	0.334181
1759.000000	0.334137
1760.000000	0.334106
1761.000000	0.333895
1762.000000	0.333855
1763.000000	0.333945
1764.000000	0.333986
1765.000000	0.334110
1766.000000	0.334142
1767.000000	0.333988
1768.000000	0.333880
1769.000000	0.333830
1770.000000	0.333860
1771.000000	0.333848
1772.000000	0.333935
1773.000000	0.334139
1774.000000	0.334187
1775.000000	0.334267
1776.000000	0.334335
1777.000000	0.334250
1778.000000	0.334250
1779.000000	0.334293
1780.000000	0.334368
1781.000000	0.334429
1782.000000	0.334498
1783.000000	0.334660
1784.000000	0.334958
1785.000000	0.334866
1786.000000	0.334822
1787.000000	0.335103
1788.000000	0.335157
1789.000000	0.335174
1790.000000	0.335378
1791.000000	0.335352
1792.000000	0.335269
1793.000000	0.335203
1794.000000	0.334951
1795.000000	0.334870
1796.000000	0.334922
1797.000000	0.334987
1798.000000	0.335150
1799.000000	0.335228
1800.000000	0.335289
1801.000000	0.335081
1802.000000	0.335262
1803.000000	0.335324
1804.000000	0.335561
1805.000000	0.335981
1806.000000	0.336287
1807.000000	0.336614
1808.000000	0.336927
1809.000000	0.337259
1810.000000	0.337362
1811.000000	0.337679
1812.000000	0.338278
1813.000000	0.338315
1814.000000	0.338332
1815.000000	0.338162
1816.000000	0.337476
1817.000000	0.336921
1818.000000	0.336363
1819.000000	0.335954
1820.000000	0.335929
1821.000000	0.334733
1822.000000	0.334629
1823.000000	0.334959
1824.000000	0.335043
1825.000000	0.335487
1826.000000	0.335877
1827.000000	0.336051
1828.000000	0.336051
1829.000000	0.336378
1830.000000	0.336790
1831.000000	0.336844
1832.000000	0.336577
1833.000000	0.336379
1834.000000	0.335994
1835.000000	0.335758
1836.000000	0.335506
1837.000000	0.335331
1838.000000	0.335012
1839.000000	0.334864
1840.000000	0.334419
1841.000000	0.334788
1842.000000	0.334511
1843.000000	0.333909
1844.000000	0.333335
1845.000000	0.332100
1846.000000	0.331677
1847.000000	0.331297
1848.000000	0.331431
1849.000000	0.332338
1850.000000	0.332320
1851.000000	0.332235
1852.000000	0.332039
1853.000000	0.331921
1854.000000	0.331086
1855.000000	0.330823
1856.000000	0.331242
1857.000000	0.330672
1858.000000	0.329506
1859.000000	0.328788
1860.000000	0.327388
1861.000000	0.325400
1862.000000	0.324248
1863.000000	0.323823
1864.000000	0.322801
1865.000000	0.322004
1866.000000	0.321099
1867.000000	0.319731
1868.000000	0.318515
1869.000000	0.317851
1870.000000	0.316663
1871.000000	0.314915
1872.000000	0.312776
1873.000000	0.310858
1874.000000	0.308245
1875.000000	0.306446
1876.000000	0.305072
1877.000000	0.303362
1878.000000	0.301641
1879.000000	0.299266
1880.000000	0.295996
1881.000000	0.292522
1882.000000	0.289155
1883.000000	0.285889
1884.000000	0.282599
1885.000000	0.279406
1886.000000	0.276071
1887.000000	0.272644
1888.000000	0.268777
1889.000000	0.264995
1890.000000	0.261238
1891.000000	0.257296
1892.000000	0.253448
1893.000000	0.249575
1894.000000	0.245908
1895.000000	0.242230
1896.000000	0.238769
1897.000000	0.235184
1898.000000	0.231883
1899.000000	0.228485
1900.000000	0.225538
1901.000000	0.222802
1902.000000	0.219782
1903.000000	0.217861
1904.000000	0.215711
1905.000000	0.213001
1906.000000	0.210709
1907.000000	0.208654
1908.000000	0.206488
1909.000000	0.204713
1910.000000	0.203450
1911.000000	0.202380
1912.000000	0.201341
1913.000000	0.200317
1914.000000	0.199626
1915.000000	0.199309
1916.000000	0.198820
1917.000000	0.198094
1918.000000	0.197476
1919.000000	0.196660
1920.000000	0.195532
1921.000000	0.194325
1922.000000	0.192531
1923.000000	0.191502
1924.000000	0.190681
1925.000000	0.190026
1926.000000	0.190800
1927.000000	0.191642
1928.000000	0.192013
1929.000000	0.192383
1930.000000	0.192614
1931.000000	0.192332
1932.000000	0.191865
1933.000000	0.191648
1934.000000	0.191961
1935.000000	0.192427
1936.000000	0.192948
1937.000000	0.193613
1938.000000	0.193872
1939.000000	0.193973
1940.000000	0.193878
1941.000000	0.193776
1942.000000	0.193532
1943.000000	0.193275
1944.000000	0.193000
1945.000000	0.192782
1946.000000	0.192527
1947.000000	0.192440
1948.000000	0.192540
1949.000000	0.192559
1950.000000	0.192603
1951.000000	0.192373
1952.000000	0.191903
1953.000000	0.191383
1954.000000	0.191327
1955.000000	0.191078
1956.000000	0.190957
1957.000000	0.190824
1958.000000	0.190364
1959.000000	0.190100
1960.000000	0.190154
1961.000000	0.190666
1962.000000	0.190689
1963.000000	0.190579
1964.000000	0.190527
1965.000000	0.190454
1966.000000	0.189824
1967.000000	0.190118
1968.000000	0.190242
1969.000000	0.190149
1970.000000	0.190558
1971.000000	0.190174
1972.000000	0.190327
1973.000000	0.190556
1974.000000	0.190658
1975.000000	0.191111
1976.000000	0.192166
1977.000000	0.193074
1978.000000	0.193519
1979.000000	0.194160
1980.000000	0.194387
1981.000000	0.194479
1982.000000	0.194921
1983.000000	0.195338
1984.000000	0.195592
1985.000000	0.195831
1986.000000	0.196272
1987.000000	0.196714
1988.000000	0.197032
1989.000000	0.197974
1990.000000	0.198153
1991.000000	0.197959
1992.000000	0.198715
1993.000000	0.199094
1994.000000	0.199706
1995.000000	0.200676
1996.000000	0.201043
1997.000000	0.201909
1998.000000	0.203409
1999.000000	0.204460
2000.000000	0.205461
2001.000000	0.206555
2002.000000	0.207207
2003.000000	0.207578
2004.000000	0.208286
2005.000000	0.208754
2006.000000	0.209633
2007.000000	0.210517
2008.000000	0.211279
2009.000000	0.212046
2010.000000	0.212828
2011.000000	0.213289
2012.000000	0.214022
2013.000000	0.214775
2014.000000	0.215722
2015.000000	0.216531
2016.000000	0.217601
2017.000000	0.218599
2018.000000	0.219316
2019.000000	0.220415
2020.000000	0.221285
2021.000000	0.222238
2022.000000	0.223262
2023.000000	0.224298
2024.000000	0.225466
2025.000000	0.226314
2026.000000	0.227047
2027.000000	0.227425
2028.000000	0.227406
2029.000000	0.228030
2030.000000	0.228790
2031.000000	0.229393
2032.000000	0.230005
2033.000000	0.230921
2034.000000	0.231853
2035.000000	0.232943
2036.000000	0.233786
2037.000000	0.235053
2038.000000	0.235711
2039.000000	0.235863
2040.000000	0.236281
2041.000000	0.236725
2042.000000	0.236922
2043.000000	0.237130
2044.000000	0.237287
2045.000000	0.237722
2046.000000	0.238649
2047.000000	0.239626
2048.000000	0.241342
2049.000000	0.242499
2050.000000	0.243138
2051.000000	0.243802
2052.000000	0.244052
2053.000000	0.244450
2054.000000	0.245242
2055.000000	0.245717
2056.000000	0.245931
2057.000000	0.246715
2058.000000	0.247137
2059.000000	0.248043
2060.000000	0.248613
2061.000000	0.249084
2062.000000	0.249677
2063.000000	0.250019
2064.000000	0.250595
2065.000000	0.251990
2066.000000	0.252717
2067.000000	0.253466
2068.000000	0.254183
2069.000000	0.254415
2070.000000	0.254803
2071.000000	0.255125
2072.000000	0.255721
2073.000000	0.255535
2074.000000	0.255188
2075.000000	0.255502
2076.000000	0.255778
2077.000000	0.256219
2078.000000	0.257408
2079.000000	0.258264
2080.000000	0.259045
2081.000000	0.259759
2082.000000	0.260543
2083.000000	0.261258
2084.000000	0.262198
2085.000000	0.262502
2086.000000	0.262261
2087.000000	0.262814
2088.000000	0.263080
2089.000000	0.263462
2090.000000	0.264096
2091.000000	0.265460
2092.000000	0.266190
2093.000000	0.266693
2094.000000	0.267362
2095.000000	0.268166
2096.000000	0.268653
2097.000000	0.268919
2098.000000	0.269071
2099.000000	0.269447
2100.000000	0.270280
2101.000000	0.271091
2102.000000	0.271903
2103.000000	0.271944
2104.000000	0.272295
2105.000000	0.272923
2106.000000	0.273917
2107.000000	0.274557
2108.000000	0.275289
2109.000000	0.275797
2110.000000	0.275795
2111.000000	0.276206
2112.000000	0.276593
2113.000000	0.277062
2114.000000	0.278045
2115.000000	0.278232
2116.000000	0.277880
2117.000000	0.278270
2118.000000	0.278463
2119.000000	0.277956
2120.000000	0.278002
2121.000000	0.278422
2122.000000	0.278499
2123.000000	0.278327
2124.000000	0.278738
2125.000000	0.279586
2126.000000	0.280046
2127.000000	0.280786
2128.000000	0.281280
2129.000000	0.281728
2130.000000	0.281159
2131.000000	0.280752
2132.000000	0.280514
2133.000000	0.280004
2134.000000	0.280942
2135.000000	0.281660
2136.000000	0.282469
2137.000000	0.283214
2138.000000	0.284017
2139.000000	0.284386
2140.000000	0.284596
2141.000000	0.284672
2142.000000	0.284431
2143.000000	0.284073
2144.000000	0.283490
2145.000000	0.283550
2146.000000	0.283902
2147.000000	0.284356
2148.000000	0.285285
2149.000000	0.286154
2150.000000	0.286914
2151.000000	0.286545
2152.000000	0.285630
2153.000000	0.284959
2154.000000	0.285226
2155.000000	0.286288
2156.000000	0.286881
2157.000000	0.288630
2158.000000	0.289153
2159.000000	0.288657
2160.000000	0.288066
2161.000000	0.286628
2162.000000	0.286017
2163.000000	0.285347
2164.000000	0.284769
2165.000000	0.284601
2166.000000	0.284745
2167.000000	0.284397
2168.000000	0.284864
2169.000000	0.285271
2170.000000	0.284925
2171.000000	0.285334
2172.000000	0.285911
2173.000000	0.286122
2174.000000	0.286944
2175.000000	0.287001
2176.000000	0.285839
2177.000000	0.285726
2178.000000	0.286247
2179.000000	0.286583
2180.000000	0.286650
2181.000000	0.287705
2182.000000	0.289048
2183.000000	0.289492
2184.000000	0.291335
2185.000000	0.292921
2186.000000	0.292665
2187.000000	0.292652
2188.000000	0.291290
2189.000000	0.290718
2190.000000	0.291055
2191.000000	0.290620
2192.000000	0.289775
2193.000000	0.288185
2194.000000	0.287285
2195.000000	0.285987
2196.000000	0.285543
2197.000000	0.286997
2198.000000	0.286843
2199.000000	0.285355
2200.000000	0.284846
2201.000000	0.284278
2202.000000	0.284001
2203.000000	0.284493
2204.000000	0.285261
2205.000000	0.283528
2206.000000	0.281017
2207.000000	0.279621
2208.000000	0.278944
2209.000000	0.281877
2210.000000	0.284330
2211.000000	0.284622
2212.000000	0.283883
2213.000000	0.281995
2214.000000	0.275559
2215.000000	0.275527
2216.000000	0.278297
2217.000000	0.279847
2218.000000	0.284963
2219.000000	0.287320
2220.000000	0.287256
2221.000000	0.287483
2222.000000	0.287776
2223.000000	0.287318
2224.000000	0.285093
2225.000000	0.284745
2226.000000	0.284473
2227.000000	0.284034
2228.000000	0.284093
2229.000000	0.284676
2230.000000	0.284714
2231.000000	0.284474
2232.000000	0.284308
2233.000000	0.283746
2234.000000	0.284432
2235.000000	0.286435
2236.000000	0.287005
2237.000000	0.287115
2238.000000	0.287500
2239.000000	0.287725
2240.000000	0.287172
2241.000000	0.287606
2242.000000	0.286422
2243.000000	0.281356
2244.000000	0.279917
2245.000000	0.278958
2246.000000	0.279288
2247.000000	0.283909
2248.000000	0.285808
2249.000000	0.287604
2250.000000	0.287722
2251.000000	0.285806
2252.000000	0.285183
2253.000000	0.284830
2254.000000	0.286055
2255.000000	0.289386
2256.000000	0.290052
2257.000000	0.289210
2258.000000	0.288565
2259.000000	0.286090
2260.000000	0.283496
2261.000000	0.282896
2262.000000	0.284637
2263.000000	0.283180
2264.000000	0.281308
2265.000000	0.280542
2266.000000	0.277843
2267.000000	0.276821
2268.000000	0.278503
2269.000000	0.277945
2270.000000	0.275014
2271.000000	0.274998
2272.000000	0.276400
2273.000000	0.277032
2274.000000	0.280245
2275.000000	0.280765
2276.000000	0.278972
2277.000000	0.277576
2278.000000	0.275614
2279.000000	0.274328
2280.000000	0.274516
2281.000000	0.274222
2282.000000	0.274559
2283.000000	0.274605
2284.000000	0.274657
2285.000000	0.273100
2286.000000	0.271099
2287.000000	0.268029
2288.000000	0.265672
2289.000000	0.264643
2290.000000	0.262327
2291.000000	0.262264
2292.000000	0.261127
2293.000000	0.258774
2294.000000	0.257818
2295.000000	0.257677
2296.000000	0.257399
2297.000000	0.258531
2298.000000	0.258121
2299.000000	0.257216
2300.000000	0.256126
2301.000000	0.252902
2302.000000	0.250886
2303.000000	0.250053
2304.000000	0.249059
2305.000000	0.248283
2306.000000	0.247926
2307.000000	0.248053
2308.000000	0.247316
2309.000000	0.247006
2310.000000	0.246047
2311.000000	0.244870
2312.000000	0.242440
2313.000000	0.240785
2314.000000	0.241553
2315.000000	0.240271
2316.000000	0.239799
2317.000000	0.240431
2318.000000	0.239667
2319.000000	0.241212
2320.000000	0.243817
2321.000000	0.244120
2322.000000	0.243596
2323.000000	0.243809
2324.000000	0.244022
2325.000000	0.244622
2326.000000	0.245348
2327.000000	0.246329
2328.000000	0.246627
2329.000000	0.246890
2330.000000	0.247933
2331.000000	0.247317
2332.000000	0.246670
2333.000000	0.245927
2334.000000	0.244215
2335.000000	0.242867
2336.000000	0.240676
2337.000000	0.238674
2338.000000	0.236022
2339.000000	0.235964
2340.000000	0.236407
2341.000000	0.238171
2342.000000	0.244399
2343.000000	0.246198
2344.000000	0.247241
2345.000000	0.246999
2346.000000	0.243595
2347.000000	0.240255
2348.000000	0.236079
2349.000000	0.231493
2350.000000	0.226880
2351.000000	0.223919
2352.000000	0.223553
2353.000000	0.224844
2354.000000	0.227218
2355.000000	0.230218
2356.000000	0.229786
2357.000000	0.227393
2358.000000	0.224105
2359.000000	0.219579
2360.000000	0.217939
2361.000000	0.219387
2362.000000	0.219858
2363.000000	0.222000
2364.000000	0.224238
2365.000000	0.222787
2366.000000	0.221393
2367.000000	0.219117
2368.000000	0.215428
2369.000000	0.209841
2370.000000	0.203562
2371.000000	0.200819
2372.000000	0.196475
2373.000000	0.195028
2374.000000	0.199140
2375.000000	0.199367
2376.000000	0.200784
2377.000000	0.204321
2378.000000	0.207033
2379.000000	0.209951
2380.000000	0.208322
2381.000000	0.205773
2382.000000	0.201086
2383.000000	0.196284
2384.000000	0.197184
2385.000000	0.194520
2386.000000	0.190091
2387.000000	0.187883
2388.000000	0.183757
2389.000000	0.184927
2390.000000	0.189053
2391.000000	0.185350
2392.000000	0.184259
2393.000000	0.183300
2394.000000	0.180702
2395.000000	0.191050
2396.000000	0.196204
2397.000000	0.191654
2398.000000	0.190450
2399.000000	0.183659
2400.000000	0.180824
2401.000000	0.187014
2402.000000	0.186826
2403.000000	0.184714
2404.000000	0.185819
2405.000000	0.187562
2406.000000	0.189033
2407.000000	0.192274
2408.000000	0.192875
2409.000000	0.188736
2410.000000	0.191456
2411.000000	0.193267
2412.000000	0.195220
2413.000000	0.196957
2414.000000	0.191407
2415.000000	0.185148
2416.000000	0.180543
2417.000000	0.177619
2418.000000	0.179580
2419.000000	0.191302
2420.000000	0.191682
2421.000000	0.184327
2422.000000	0.179466
2423.000000	0.161336
2424.000000	0.161754
2425.000000	0.171401
2426.000000	0.168369
2427.000000	0.180225
2428.000000	0.182275
2429.000000	0.176502
2430.000000	0.175306
2431.000000	0.159426
2432.000000	0.153599
2433.000000	0.146020
2434.000000	0.144338
2435.000000	0.160846
2436.000000	0.164016
2437.000000	0.180590
2438.000000	0.195456
2439.000000	0.185250
2440.000000	0.190287
2441.000000	0.185218
2442.000000	0.166623
2443.000000	0.164868
2444.000000	0.152560
2445.000000	0.146564
2446.000000	0.160818
2447.000000	0.157617
2448.000000	0.160013
2449.000000	0.174247
2450.000000	0.174915
2451.000000	0.188414
2452.000000	0.194065
2453.000000	0.181809
2454.000000	0.168972
2455.000000	0.155114
2456.000000	0.156113
2457.000000	0.155077
2458.000000	0.153123
2459.000000	0.153502
2460.000000	0.148312
2461.000000	0.137334
2462.000000	0.133818
2463.000000	0.139102
2464.000000	0.125042
2465.000000	0.110607
2466.000000	0.102689
2467.000000	0.074227
2468.000000	0.067684
2469.000000	0.091715
2470.000000	0.098618
2471.000000	0.127554
2472.000000	0.152654
2473.000000	0.149398
2474.000000	0.165050
2475.000000	0.161600
2476.000000	0.134226
2477.000000	0.109617
2478.000000	0.074451
2479.000000	0.053808
2480.000000	0.068984
2481.000000	0.072737
2482.000000	0.080691
2483.000000	0.094551
2484.000000	0.059890
2485.000000	0.039869
2486.000000	0.053469
2487.000000	0.034789
2488.000000	0.052213
2489.000000	0.094871
2490.000000	0.095228
2491.000000	0.112605
2492.000000	0.126699
2493.000000	0.165326
2494.000000	0.181141
2495.000000	0.154210
2496.000000	0.156405
2497.000000	0.140971
2498.000000	0.147378
2499.000000	0.216159
2500.000000	0.231092
