# Wavelength	SM1200H-30_FV7-70_00000.asd.rts.txt
350.000000	0.254272
351.000000	0.232158
352.000000	0.236134
353.000000	0.243668
354.000000	0.243495
355.000000	0.240983
356.000000	0.241610
357.000000	0.244264
358.000000	0.239022
359.000000	0.238282
360.000000	0.240628
361.000000	0.241561
362.000000	0.242924
363.000000	0.245883
364.000000	0.249006
365.000000	0.246620
366.000000	0.244011
367.000000	0.243594
368.000000	0.246453
369.000000	0.246152
370.000000	0.244380
371.000000	0.244999
372.000000	0.247143
373.000000	0.248348
374.000000	0.248116
375.000000	0.249493
376.000000	0.249613
377.000000	0.248497
378.000000	0.249212
379.000000	0.250606
380.000000	0.251581
381.000000	0.252049
382.000000	0.253051
383.000000	0.253593
384.000000	0.253096
385.000000	0.251166
386.000000	0.251254
387.000000	0.253437
388.000000	0.253858
389.000000	0.253585
390.000000	0.253977
391.000000	0.255958
392.000000	0.256215
393.000000	0.255888
394.000000	0.256246
395.000000	0.256881
396.000000	0.257678
397.000000	0.258323
398.000000	0.258225
399.000000	0.258609
400.000000	0.259221
401.000000	0.259088
402.000000	0.259074
403.000000	0.259381
404.000000	0.260043
405.000000	0.260128
406.000000	0.260423
407.000000	0.261217
408.000000	0.261770
409.000000	0.262220
410.000000	0.262632
411.000000	0.263017
412.000000	0.263187
413.000000	0.263281
414.000000	0.263507
415.000000	0.263867
416.000000	0.264162
417.000000	0.264359
418.000000	0.264856
419.000000	0.264918
420.000000	0.264749
421.000000	0.265363
422.000000	0.265992
423.000000	0.266376
424.000000	0.266529
425.000000	0.266685
426.000000	0.266769
427.000000	0.266774
428.000000	0.267129
429.000000	0.267508
430.000000	0.267796
431.000000	0.268139
432.000000	0.268459
433.000000	0.268669
434.000000	0.268792
435.000000	0.268972
436.000000	0.269089
437.000000	0.269082
438.000000	0.269565
439.000000	0.269984
440.000000	0.270117
441.000000	0.270030
442.000000	0.270144
443.000000	0.270394
444.000000	0.270530
445.000000	0.270586
446.000000	0.270794
447.000000	0.271178
448.000000	0.271398
449.000000	0.271636
450.000000	0.271998
451.000000	0.272171
452.000000	0.272368
453.000000	0.272595
454.000000	0.272872
455.000000	0.273098
456.000000	0.273351
457.000000	0.273584
458.000000	0.273814
459.000000	0.274096
460.000000	0.274492
461.000000	0.274830
462.000000	0.275005
463.000000	0.274968
464.000000	0.275375
465.000000	0.275663
466.000000	0.275724
467.000000	0.275860
468.000000	0.275996
469.000000	0.276058
470.000000	0.276177
471.000000	0.276461
472.000000	0.276703
473.000000	0.276827
474.000000	0.277051
475.000000	0.277205
476.000000	0.277404
477.000000	0.277706
478.000000	0.277746
479.000000	0.277858
480.000000	0.278240
481.000000	0.278503
482.000000	0.278736
483.000000	0.278868
484.000000	0.279129
485.000000	0.279328
486.000000	0.279540
487.000000	0.279710
488.000000	0.279854
489.000000	0.280034
490.000000	0.280324
491.000000	0.280579
492.000000	0.280886
493.000000	0.281215
494.000000	0.281448
495.000000	0.281676
496.000000	0.281921
497.000000	0.282157
498.000000	0.282357
499.000000	0.282603
500.000000	0.282908
501.000000	0.283206
502.000000	0.283514
503.000000	0.283794
504.000000	0.284112
505.000000	0.284403
506.000000	0.284607
507.000000	0.284775
508.000000	0.284904
509.000000	0.285006
510.000000	0.285298
511.000000	0.285590
512.000000	0.285878
513.000000	0.286226
514.000000	0.286525
515.000000	0.286808
516.000000	0.287080
517.000000	0.287365
518.000000	0.287678
519.000000	0.287936
520.000000	0.288177
521.000000	0.288475
522.000000	0.288836
523.000000	0.289149
524.000000	0.289403
525.000000	0.289645
526.000000	0.290008
527.000000	0.290283
528.000000	0.290494
529.000000	0.290760
530.000000	0.291003
531.000000	0.291282
532.000000	0.291544
533.000000	0.291816
534.000000	0.292092
535.000000	0.292343
536.000000	0.292557
537.000000	0.292750
538.000000	0.292958
539.000000	0.293206
540.000000	0.293441
541.000000	0.293678
542.000000	0.293959
543.000000	0.294177
544.000000	0.294437
545.000000	0.294711
546.000000	0.294985
547.000000	0.295243
548.000000	0.295520
549.000000	0.295791
550.000000	0.296047
551.000000	0.296323
552.000000	0.296609
553.000000	0.296889
554.000000	0.297172
555.000000	0.297470
556.000000	0.297790
557.000000	0.298082
558.000000	0.298453
559.000000	0.298821
560.000000	0.299091
561.000000	0.299359
562.000000	0.299658
563.000000	0.299942
564.000000	0.300242
565.000000	0.300495
566.000000	0.300823
567.000000	0.301153
568.000000	0.301421
569.000000	0.301701
570.000000	0.301966
571.000000	0.302215
572.000000	0.302504
573.000000	0.302790
574.000000	0.303034
575.000000	0.303270
576.000000	0.303561
577.000000	0.303827
578.000000	0.304081
579.000000	0.304410
580.000000	0.304736
581.000000	0.305022
582.000000	0.305297
583.000000	0.305621
584.000000	0.305963
585.000000	0.306235
586.000000	0.306498
587.000000	0.306731
588.000000	0.306921
589.000000	0.307209
590.000000	0.307504
591.000000	0.307743
592.000000	0.307982
593.000000	0.308231
594.000000	0.308485
595.000000	0.308730
596.000000	0.308960
597.000000	0.309222
598.000000	0.309472
599.000000	0.309664
600.000000	0.309896
601.000000	0.310158
602.000000	0.310362
603.000000	0.310579
604.000000	0.310843
605.000000	0.311084
606.000000	0.311308
607.000000	0.311535
608.000000	0.311792
609.000000	0.312010
610.000000	0.312231
611.000000	0.312489
612.000000	0.312568
613.000000	0.312533
614.000000	0.312478
615.000000	0.312329
616.000000	0.312205
617.000000	0.312135
618.000000	0.312184
619.000000	0.312200
620.000000	0.312169
621.000000	0.312199
622.000000	0.312282
623.000000	0.312404
624.000000	0.312556
625.000000	0.312798
626.000000	0.313017
627.000000	0.313172
628.000000	0.313340
629.000000	0.313503
630.000000	0.313531
631.000000	0.313536
632.000000	0.313577
633.000000	0.313651
634.000000	0.313722
635.000000	0.313817
636.000000	0.313977
637.000000	0.314205
638.000000	0.314509
639.000000	0.314759
640.000000	0.314988
641.000000	0.315197
642.000000	0.315367
643.000000	0.315521
644.000000	0.315693
645.000000	0.315825
646.000000	0.315939
647.000000	0.316034
648.000000	0.316131
649.000000	0.316239
650.000000	0.316347
651.000000	0.316481
652.000000	0.316539
653.000000	0.316583
654.000000	0.316660
655.000000	0.316752
656.000000	0.316887
657.000000	0.317023
658.000000	0.317137
659.000000	0.317287
660.000000	0.317467
661.000000	0.317601
662.000000	0.317711
663.000000	0.317848
664.000000	0.317977
665.000000	0.318137
666.000000	0.318282
667.000000	0.318340
668.000000	0.318439
669.000000	0.318547
670.000000	0.318655
671.000000	0.318799
672.000000	0.318952
673.000000	0.319087
674.000000	0.319193
675.000000	0.319308
676.000000	0.319447
677.000000	0.319627
678.000000	0.319805
679.000000	0.319974
680.000000	0.320140
681.000000	0.320284
682.000000	0.320434
683.000000	0.320532
684.000000	0.320671
685.000000	0.320795
686.000000	0.320936
687.000000	0.321095
688.000000	0.321272
689.000000	0.321426
690.000000	0.321558
691.000000	0.321641
692.000000	0.321722
693.000000	0.321881
694.000000	0.322058
695.000000	0.322254
696.000000	0.322456
697.000000	0.322647
698.000000	0.322792
699.000000	0.322924
700.000000	0.323075
701.000000	0.323187
702.000000	0.323301
703.000000	0.323412
704.000000	0.323506
705.000000	0.323632
706.000000	0.323748
707.000000	0.323874
708.000000	0.323977
709.000000	0.324064
710.000000	0.324171
711.000000	0.324303
712.000000	0.324447
713.000000	0.324595
714.000000	0.324683
715.000000	0.324784
716.000000	0.324895
717.000000	0.324953
718.000000	0.325018
719.000000	0.325094
720.000000	0.325194
721.000000	0.325325
722.000000	0.325446
723.000000	0.325595
724.000000	0.325727
725.000000	0.325840
726.000000	0.325989
727.000000	0.326079
728.000000	0.326203
729.000000	0.326322
730.000000	0.326352
731.000000	0.326417
732.000000	0.326474
733.000000	0.326534
734.000000	0.326551
735.000000	0.326579
736.000000	0.326714
737.000000	0.326797
738.000000	0.326782
739.000000	0.326842
740.000000	0.326914
741.000000	0.326974
742.000000	0.327044
743.000000	0.327116
744.000000	0.327243
745.000000	0.327324
746.000000	0.327422
747.000000	0.327536
748.000000	0.327611
749.000000	0.327693
750.000000	0.327781
751.000000	0.327868
752.000000	0.327917
753.000000	0.327923
754.000000	0.327880
755.000000	0.327893
756.000000	0.327953
757.000000	0.327973
758.000000	0.327986
759.000000	0.328039
760.000000	0.328077
761.000000	0.328126
762.000000	0.328188
763.000000	0.328250
764.000000	0.328373
765.000000	0.328487
766.000000	0.328544
767.000000	0.328522
768.000000	0.328514
769.000000	0.328521
770.000000	0.328551
771.000000	0.328604
772.000000	0.328676
773.000000	0.328721
774.000000	0.328808
775.000000	0.328820
776.000000	0.328822
777.000000	0.328850
778.000000	0.328867
779.000000	0.328883
780.000000	0.328900
781.000000	0.328891
782.000000	0.328979
783.000000	0.329133
784.000000	0.329114
785.000000	0.329107
786.000000	0.329087
787.000000	0.329052
788.000000	0.329089
789.000000	0.329126
790.000000	0.329120
791.000000	0.329094
792.000000	0.329050
793.000000	0.329022
794.000000	0.329035
795.000000	0.329050
796.000000	0.329063
797.000000	0.329071
798.000000	0.329083
799.000000	0.329101
800.000000	0.329088
801.000000	0.329019
802.000000	0.329009
803.000000	0.328968
804.000000	0.328918
805.000000	0.328995
806.000000	0.329043
807.000000	0.329098
808.000000	0.329123
809.000000	0.329084
810.000000	0.329055
811.000000	0.329075
812.000000	0.329085
813.000000	0.329101
814.000000	0.329126
815.000000	0.329171
816.000000	0.329202
817.000000	0.329201
818.000000	0.329076
819.000000	0.328946
820.000000	0.328838
821.000000	0.328738
822.000000	0.328736
823.000000	0.328844
824.000000	0.328934
825.000000	0.328966
826.000000	0.328934
827.000000	0.328822
828.000000	0.328697
829.000000	0.328655
830.000000	0.328537
831.000000	0.328429
832.000000	0.328362
833.000000	0.328249
834.000000	0.328163
835.000000	0.328170
836.000000	0.328076
837.000000	0.328048
838.000000	0.328125
839.000000	0.328193
840.000000	0.328251
841.000000	0.328241
842.000000	0.328099
843.000000	0.327959
844.000000	0.327882
845.000000	0.327857
846.000000	0.327881
847.000000	0.327957
848.000000	0.327971
849.000000	0.327854
850.000000	0.327671
851.000000	0.327496
852.000000	0.327404
853.000000	0.327345
854.000000	0.327286
855.000000	0.327290
856.000000	0.327245
857.000000	0.327139
858.000000	0.327064
859.000000	0.326974
860.000000	0.326859
861.000000	0.326700
862.000000	0.326603
863.000000	0.326603
864.000000	0.326537
865.000000	0.326371
866.000000	0.326140
867.000000	0.325884
868.000000	0.325824
869.000000	0.325839
870.000000	0.325797
871.000000	0.325798
872.000000	0.325703
873.000000	0.325450
874.000000	0.325393
875.000000	0.325358
876.000000	0.325302
877.000000	0.325155
878.000000	0.324895
879.000000	0.324667
880.000000	0.324423
881.000000	0.324245
882.000000	0.324084
883.000000	0.323910
884.000000	0.323646
885.000000	0.323494
886.000000	0.323313
887.000000	0.323085
888.000000	0.322983
889.000000	0.322811
890.000000	0.322562
891.000000	0.322499
892.000000	0.322340
893.000000	0.322204
894.000000	0.322193
895.000000	0.321900
896.000000	0.321683
897.000000	0.321516
898.000000	0.321267
899.000000	0.320992
900.000000	0.320813
901.000000	0.320725
902.000000	0.320693
903.000000	0.320535
904.000000	0.320366
905.000000	0.320244
906.000000	0.320197
907.000000	0.320013
908.000000	0.319721
909.000000	0.319424
910.000000	0.319215
911.000000	0.319051
912.000000	0.318864
913.000000	0.318574
914.000000	0.318182
915.000000	0.317792
916.000000	0.317409
917.000000	0.317083
918.000000	0.316846
919.000000	0.316689
920.000000	0.316626
921.000000	0.316511
922.000000	0.316364
923.000000	0.316245
924.000000	0.315957
925.000000	0.315682
926.000000	0.315523
927.000000	0.315251
928.000000	0.314946
929.000000	0.314657
930.000000	0.314410
931.000000	0.314119
932.000000	0.313737
933.000000	0.313337
934.000000	0.313009
935.000000	0.312710
936.000000	0.312467
937.000000	0.312205
938.000000	0.311964
939.000000	0.311892
940.000000	0.311779
941.000000	0.311412
942.000000	0.311104
943.000000	0.310962
944.000000	0.310806
945.000000	0.310435
946.000000	0.310037
947.000000	0.309829
948.000000	0.309851
949.000000	0.309700
950.000000	0.309538
951.000000	0.309333
952.000000	0.308986
953.000000	0.308720
954.000000	0.308485
955.000000	0.308174
956.000000	0.307969
957.000000	0.307865
958.000000	0.307644
959.000000	0.307219
960.000000	0.307002
961.000000	0.306851
962.000000	0.306679
963.000000	0.306570
964.000000	0.306447
965.000000	0.306335
966.000000	0.306146
967.000000	0.305921
968.000000	0.305692
969.000000	0.305366
970.000000	0.304953
971.000000	0.304589
972.000000	0.304318
973.000000	0.304054
974.000000	0.303768
975.000000	0.303464
976.000000	0.303199
977.000000	0.302986
978.000000	0.302705
979.000000	0.302620
980.000000	0.302470
981.000000	0.302287
982.000000	0.302141
983.000000	0.301916
984.000000	0.301706
985.000000	0.301667
986.000000	0.301590
987.000000	0.301430
988.000000	0.301112
989.000000	0.300825
990.000000	0.300773
991.000000	0.300659
992.000000	0.300239
993.000000	0.300185
994.000000	0.300044
995.000000	0.299857
996.000000	0.299632
997.000000	0.299221
998.000000	0.298900
999.000000	0.298858
1000.000000	0.298827
1001.000000	0.299063
1002.000000	0.298901
1003.000000	0.298622
1004.000000	0.298459
1005.000000	0.298136
1006.000000	0.297843
1007.000000	0.297688
1008.000000	0.297467
1009.000000	0.297408
1010.000000	0.297257
1011.000000	0.297500
1012.000000	0.297963
1013.000000	0.297549
1014.000000	0.296980
1015.000000	0.296464
1016.000000	0.296203
1017.000000	0.296346
1018.000000	0.296265
1019.000000	0.296136
1020.000000	0.295866
1021.000000	0.295469
1022.000000	0.295142
1023.000000	0.295303
1024.000000	0.295561
1025.000000	0.295813
1026.000000	0.295996
1027.000000	0.295794
1028.000000	0.295531
1029.000000	0.295583
1030.000000	0.295590
1031.000000	0.295563
1032.000000	0.295849
1033.000000	0.295570
1034.000000	0.295395
1035.000000	0.295309
1036.000000	0.295412
1037.000000	0.295439
1038.000000	0.295412
1039.000000	0.295707
1040.000000	0.295906
1041.000000	0.295699
1042.000000	0.295467
1043.000000	0.295566
1044.000000	0.295665
1045.000000	0.295639
1046.000000	0.295809
1047.000000	0.296157
1048.000000	0.296706
1049.000000	0.296854
1050.000000	0.297119
1051.000000	0.297152
1052.000000	0.296557
1053.000000	0.296422
1054.000000	0.296747
1055.000000	0.296896
1056.000000	0.297080
1057.000000	0.297415
1058.000000	0.297429
1059.000000	0.297162
1060.000000	0.297347
1061.000000	0.297566
1062.000000	0.297751
1063.000000	0.298184
1064.000000	0.298637
1065.000000	0.299189
1066.000000	0.299443
1067.000000	0.299695
1068.000000	0.299825
1069.000000	0.299444
1070.000000	0.299469
1071.000000	0.299789
1072.000000	0.299985
1073.000000	0.300228
1074.000000	0.300664
1075.000000	0.300821
1076.000000	0.301032
1077.000000	0.301270
1078.000000	0.301259
1079.000000	0.301268
1080.000000	0.301120
1081.000000	0.301302
1082.000000	0.301722
1083.000000	0.301959
1084.000000	0.302479
1085.000000	0.302715
1086.000000	0.302442
1087.000000	0.302592
1088.000000	0.302870
1089.000000	0.303088
1090.000000	0.303427
1091.000000	0.303711
1092.000000	0.304078
1093.000000	0.304165
1094.000000	0.304171
1095.000000	0.303931
1096.000000	0.304073
1097.000000	0.304163
1098.000000	0.304401
1099.000000	0.304949
1100.000000	0.305347
1101.000000	0.305713
1102.000000	0.305883
1103.000000	0.305880
1104.000000	0.306051
1105.000000	0.306084
1106.000000	0.306228
1107.000000	0.306567
1108.000000	0.306787
1109.000000	0.306902
1110.000000	0.307157
1111.000000	0.307392
1112.000000	0.307660
1113.000000	0.307939
1114.000000	0.308337
1115.000000	0.308502
1116.000000	0.308566
1117.000000	0.308661
1118.000000	0.308544
1119.000000	0.308598
1120.000000	0.308841
1121.000000	0.308941
1122.000000	0.309116
1123.000000	0.309395
1124.000000	0.309347
1125.000000	0.309491
1126.000000	0.309767
1127.000000	0.309882
1128.000000	0.309952
1129.000000	0.310042
1130.000000	0.310172
1131.000000	0.310215
1132.000000	0.310328
1133.000000	0.310655
1134.000000	0.310800
1135.000000	0.310803
1136.000000	0.310832
1137.000000	0.310772
1138.000000	0.310762
1139.000000	0.310844
1140.000000	0.310992
1141.000000	0.311172
1142.000000	0.311312
1143.000000	0.311398
1144.000000	0.311579
1145.000000	0.311594
1146.000000	0.311539
1147.000000	0.311661
1148.000000	0.311767
1149.000000	0.311893
1150.000000	0.312141
1151.000000	0.312333
1152.000000	0.312500
1153.000000	0.312566
1154.000000	0.312548
1155.000000	0.312536
1156.000000	0.312350
1157.000000	0.312352
1158.000000	0.312494
1159.000000	0.312512
1160.000000	0.312499
1161.000000	0.312502
1162.000000	0.312507
1163.000000	0.312634
1164.000000	0.312571
1165.000000	0.312531
1166.000000	0.312596
1167.000000	0.312609
1168.000000	0.312596
1169.000000	0.312699
1170.000000	0.312770
1171.000000	0.312811
1172.000000	0.312853
1173.000000	0.312884
1174.000000	0.312970
1175.000000	0.313002
1176.000000	0.313023
1177.000000	0.313219
1178.000000	0.313330
1179.000000	0.313346
1180.000000	0.313325
1181.000000	0.313351
1182.000000	0.313390
1183.000000	0.313482
1184.000000	0.313551
1185.000000	0.313595
1186.000000	0.313676
1187.000000	0.313676
1188.000000	0.313589
1189.000000	0.313534
1190.000000	0.313475
1191.000000	0.313485
1192.000000	0.313669
1193.000000	0.313814
1194.000000	0.313861
1195.000000	0.313931
1196.000000	0.313954
1197.000000	0.313924
1198.000000	0.313885
1199.000000	0.313869
1200.000000	0.313801
1201.000000	0.313709
1202.000000	0.313691
1203.000000	0.313617
1204.000000	0.313531
1205.000000	0.313566
1206.000000	0.313539
1207.000000	0.313657
1208.000000	0.313649
1209.000000	0.313622
1210.000000	0.313589
1211.000000	0.313521
1212.000000	0.313492
1213.000000	0.313507
1214.000000	0.313542
1215.000000	0.313631
1216.000000	0.313652
1217.000000	0.313598
1218.000000	0.313554
1219.000000	0.313537
1220.000000	0.313469
1221.000000	0.313407
1222.000000	0.313415
1223.000000	0.313391
1224.000000	0.313339
1225.000000	0.313233
1226.000000	0.313155
1227.000000	0.313097
1228.000000	0.313066
1229.000000	0.312969
1230.000000	0.312812
1231.000000	0.312712
1232.000000	0.312730
1233.000000	0.312772
1234.000000	0.312858
1235.000000	0.312913
1236.000000	0.312859
1237.000000	0.312870
1238.000000	0.312908
1239.000000	0.312891
1240.000000	0.312837
1241.000000	0.312758
1242.000000	0.312774
1243.000000	0.312795
1244.000000	0.312808
1245.000000	0.312870
1246.000000	0.312799
1247.000000	0.312700
1248.000000	0.312653
1249.000000	0.312608
1250.000000	0.312593
1251.000000	0.312623
1252.000000	0.312608
1253.000000	0.312627
1254.000000	0.312614
1255.000000	0.312567
1256.000000	0.312517
1257.000000	0.312433
1258.000000	0.312482
1259.000000	0.312536
1260.000000	0.312621
1261.000000	0.312751
1262.000000	0.312811
1263.000000	0.312838
1264.000000	0.312872
1265.000000	0.312915
1266.000000	0.313023
1267.000000	0.313117
1268.000000	0.313059
1269.000000	0.312878
1270.000000	0.312767
1271.000000	0.312647
1272.000000	0.312586
1273.000000	0.312611
1274.000000	0.312541
1275.000000	0.312443
1276.000000	0.312318
1277.000000	0.312264
1278.000000	0.312111
1279.000000	0.312021
1280.000000	0.311917
1281.000000	0.311804
1282.000000	0.311727
1283.000000	0.311762
1284.000000	0.311810
1285.000000	0.311825
1286.000000	0.311851
1287.000000	0.311860
1288.000000	0.311865
1289.000000	0.311870
1290.000000	0.311815
1291.000000	0.311727
1292.000000	0.311735
1293.000000	0.311726
1294.000000	0.311767
1295.000000	0.311957
1296.000000	0.311939
1297.000000	0.311841
1298.000000	0.311848
1299.000000	0.311747
1300.000000	0.311772
1301.000000	0.311843
1302.000000	0.311738
1303.000000	0.311616
1304.000000	0.311526
1305.000000	0.311464
1306.000000	0.311357
1307.000000	0.311320
1308.000000	0.311292
1309.000000	0.311171
1310.000000	0.311127
1311.000000	0.311192
1312.000000	0.311228
1313.000000	0.311222
1314.000000	0.311199
1315.000000	0.311118
1316.000000	0.311172
1317.000000	0.311297
1318.000000	0.311354
1319.000000	0.311334
1320.000000	0.311339
1321.000000	0.311249
1322.000000	0.311060
1323.000000	0.310974
1324.000000	0.311001
1325.000000	0.311066
1326.000000	0.311119
1327.000000	0.311192
1328.000000	0.311240
1329.000000	0.311109
1330.000000	0.310765
1331.000000	0.310623
1332.000000	0.310534
1333.000000	0.310415
1334.000000	0.310438
1335.000000	0.310418
1336.000000	0.310299
1337.000000	0.310248
1338.000000	0.310202
1339.000000	0.310150
1340.000000	0.310092
1341.000000	0.310009
1342.000000	0.309860
1343.000000	0.309801
1344.000000	0.309848
1345.000000	0.309849
1346.000000	0.310007
1347.000000	0.310056
1348.000000	0.309996
1349.000000	0.309924
1350.000000	0.309832
1351.000000	0.309732
1352.000000	0.309703
1353.000000	0.309707
1354.000000	0.309704
1355.000000	0.309621
1356.000000	0.309528
1357.000000	0.309433
1358.000000	0.309344
1359.000000	0.309263
1360.000000	0.309211
1361.000000	0.309263
1362.000000	0.309168
1363.000000	0.308964
1364.000000	0.308893
1365.000000	0.308780
1366.000000	0.308720
1367.000000	0.308733
1368.000000	0.308773
1369.000000	0.308842
1370.000000	0.308713
1371.000000	0.308560
1372.000000	0.308375
1373.000000	0.308124
1374.000000	0.307967
1375.000000	0.307810
1376.000000	0.307661
1377.000000	0.307417
1378.000000	0.307117
1379.000000	0.306747
1380.000000	0.306255
1381.000000	0.305757
1382.000000	0.305150
1383.000000	0.304469
1384.000000	0.303807
1385.000000	0.303108
1386.000000	0.302509
1387.000000	0.301981
1388.000000	0.301433
1389.000000	0.301032
1390.000000	0.300785
1391.000000	0.300656
1392.000000	0.300752
1393.000000	0.300862
1394.000000	0.301178
1395.000000	0.301393
1396.000000	0.301636
1397.000000	0.301758
1398.000000	0.301762
1399.000000	0.301820
1400.000000	0.301895
1401.000000	0.301847
1402.000000	0.301805
1403.000000	0.301680
1404.000000	0.301562
1405.000000	0.301406
1406.000000	0.301330
1407.000000	0.301318
1408.000000	0.301164
1409.000000	0.301009
1410.000000	0.300988
1411.000000	0.300990
1412.000000	0.300975
1413.000000	0.301027
1414.000000	0.301101
1415.000000	0.301115
1416.000000	0.301149
1417.000000	0.301262
1418.000000	0.301249
1419.000000	0.301304
1420.000000	0.301361
1421.000000	0.301480
1422.000000	0.301668
1423.000000	0.301820
1424.000000	0.301884
1425.000000	0.302000
1426.000000	0.302017
1427.000000	0.302054
1428.000000	0.302263
1429.000000	0.302438
1430.000000	0.302563
1431.000000	0.302715
1432.000000	0.302810
1433.000000	0.302826
1434.000000	0.302897
1435.000000	0.303110
1436.000000	0.303201
1437.000000	0.303228
1438.000000	0.303242
1439.000000	0.303205
1440.000000	0.303253
1441.000000	0.303395
1442.000000	0.303481
1443.000000	0.303507
1444.000000	0.303569
1445.000000	0.303545
1446.000000	0.303477
1447.000000	0.303478
1448.000000	0.303487
1449.000000	0.303510
1450.000000	0.303562
1451.000000	0.303583
1452.000000	0.303542
1453.000000	0.303499
1454.000000	0.303437
1455.000000	0.303443
1456.000000	0.303525
1457.000000	0.303573
1458.000000	0.303631
1459.000000	0.303647
1460.000000	0.303600
1461.000000	0.303575
1462.000000	0.303568
1463.000000	0.303519
1464.000000	0.303525
1465.000000	0.303597
1466.000000	0.303659
1467.000000	0.303761
1468.000000	0.303823
1469.000000	0.303940
1470.000000	0.304020
1471.000000	0.304070
1472.000000	0.304161
1473.000000	0.304330
1474.000000	0.304425
1475.000000	0.304527
1476.000000	0.304665
1477.000000	0.304743
1478.000000	0.304799
1479.000000	0.304858
1480.000000	0.304915
1481.000000	0.304950
1482.000000	0.305004
1483.000000	0.305104
1484.000000	0.305220
1485.000000	0.305310
1486.000000	0.305404
1487.000000	0.305492
1488.000000	0.305591
1489.000000	0.305711
1490.000000	0.305750
1491.000000	0.305782
1492.000000	0.305729
1493.000000	0.305733
1494.000000	0.305706
1495.000000	0.305680
1496.000000	0.305691
1497.000000	0.305670
1498.000000	0.305649
1499.000000	0.305568
1500.000000	0.305509
1501.000000	0.305459
1502.000000	0.305386
1503.000000	0.305389
1504.000000	0.305413
1505.000000	0.305398
1506.000000	0.305440
1507.000000	0.305461
1508.000000	0.305502
1509.000000	0.305598
1510.000000	0.305658
1511.000000	0.305693
1512.000000	0.305668
1513.000000	0.305687
1514.000000	0.305754
1515.000000	0.305768
1516.000000	0.305897
1517.000000	0.305985
1518.000000	0.305971
1519.000000	0.306002
1520.000000	0.306103
1521.000000	0.306150
1522.000000	0.306319
1523.000000	0.306534
1524.000000	0.306585
1525.000000	0.306690
1526.000000	0.306747
1527.000000	0.306779
1528.000000	0.306932
1529.000000	0.307024
1530.000000	0.307034
1531.000000	0.307124
1532.000000	0.307171
1533.000000	0.307155
1534.000000	0.307200
1535.000000	0.307267
1536.000000	0.307247
1537.000000	0.307301
1538.000000	0.307339
1539.000000	0.307252
1540.000000	0.307212
1541.000000	0.307203
1542.000000	0.307166
1543.000000	0.307141
1544.000000	0.307042
1545.000000	0.307010
1546.000000	0.307074
1547.000000	0.307097
1548.000000	0.307155
1549.000000	0.307188
1550.000000	0.307120
1551.000000	0.307074
1552.000000	0.307117
1553.000000	0.307098
1554.000000	0.307035
1555.000000	0.307047
1556.000000	0.307055
1557.000000	0.307078
1558.000000	0.307126
1559.000000	0.307167
1560.000000	0.307204
1561.000000	0.307291
1562.000000	0.307296
1563.000000	0.307304
1564.000000	0.307345
1565.000000	0.307375
1566.000000	0.307299
1567.000000	0.307317
1568.000000	0.307286
1569.000000	0.307191
1570.000000	0.307148
1571.000000	0.307145
1572.000000	0.307099
1573.000000	0.307052
1574.000000	0.307013
1575.000000	0.306973
1576.000000	0.306981
1577.000000	0.306995
1578.000000	0.306978
1579.000000	0.307046
1580.000000	0.307064
1581.000000	0.307115
1582.000000	0.307126
1583.000000	0.307111
1584.000000	0.307050
1585.000000	0.307005
1586.000000	0.306999
1587.000000	0.306998
1588.000000	0.306990
1589.000000	0.307010
1590.000000	0.307015
1591.000000	0.307038
1592.000000	0.307051
1593.000000	0.307085
1594.000000	0.307102
1595.000000	0.307161
1596.000000	0.307172
1597.000000	0.307199
1598.000000	0.307188
1599.000000	0.307126
1600.000000	0.307084
1601.000000	0.307161
1602.000000	0.307160
1603.000000	0.307180
1604.000000	0.307129
1605.000000	0.306991
1606.000000	0.306911
1607.000000	0.306891
1608.000000	0.306857
1609.000000	0.306897
1610.000000	0.306843
1611.000000	0.306722
1612.000000	0.306683
1613.000000	0.306775
1614.000000	0.306799
1615.000000	0.306937
1616.000000	0.306970
1617.000000	0.306845
1618.000000	0.306767
1619.000000	0.306642
1620.000000	0.306567
1621.000000	0.306539
1622.000000	0.306563
1623.000000	0.306631
1624.000000	0.306590
1625.000000	0.306373
1626.000000	0.306228
1627.000000	0.306052
1628.000000	0.305958
1629.000000	0.305914
1630.000000	0.305915
1631.000000	0.305876
1632.000000	0.305854
1633.000000	0.305917
1634.000000	0.305960
1635.000000	0.306051
1636.000000	0.306068
1637.000000	0.306082
1638.000000	0.306055
1639.000000	0.305992
1640.000000	0.305962
1641.000000	0.306024
1642.000000	0.306040
1643.000000	0.306094
1644.000000	0.306081
1645.000000	0.306009
1646.000000	0.305926
1647.000000	0.305838
1648.000000	0.305734
1649.000000	0.305693
1650.000000	0.305683
1651.000000	0.305750
1652.000000	0.305740
1653.000000	0.305644
1654.000000	0.305664
1655.000000	0.305624
1656.000000	0.305506
1657.000000	0.305524
1658.000000	0.305457
1659.000000	0.305345
1660.000000	0.305346
1661.000000	0.305332
1662.000000	0.305327
1663.000000	0.305308
1664.000000	0.305319
1665.000000	0.305365
1666.000000	0.305441
1667.000000	0.305469
1668.000000	0.305483
1669.000000	0.305483
1670.000000	0.305400
1671.000000	0.305358
1672.000000	0.305355
1673.000000	0.305283
1674.000000	0.305290
1675.000000	0.305361
1676.000000	0.305360
1677.000000	0.305315
1678.000000	0.305252
1679.000000	0.305213
1680.000000	0.305183
1681.000000	0.305196
1682.000000	0.305283
1683.000000	0.305363
1684.000000	0.305372
1685.000000	0.305375
1686.000000	0.305274
1687.000000	0.305138
1688.000000	0.304952
1689.000000	0.304799
1690.000000	0.304690
1691.000000	0.304610
1692.000000	0.304526
1693.000000	0.304546
1694.000000	0.304586
1695.000000	0.304625
1696.000000	0.304594
1697.000000	0.304559
1698.000000	0.304508
1699.000000	0.304533
1700.000000	0.304625
1701.000000	0.304803
1702.000000	0.304934
1703.000000	0.304945
1704.000000	0.305022
1705.000000	0.305050
1706.000000	0.304990
1707.000000	0.304983
1708.000000	0.304996
1709.000000	0.304907
1710.000000	0.304818
1711.000000	0.304807
1712.000000	0.304883
1713.000000	0.304827
1714.000000	0.304781
1715.000000	0.304756
1716.000000	0.304617
1717.000000	0.304562
1718.000000	0.304589
1719.000000	0.304566
1720.000000	0.304594
1721.000000	0.304559
1722.000000	0.304536
1723.000000	0.304447
1724.000000	0.304258
1725.000000	0.304181
1726.000000	0.304041
1727.000000	0.303954
1728.000000	0.303862
1729.000000	0.303772
1730.000000	0.303828
1731.000000	0.303821
1732.000000	0.303858
1733.000000	0.303893
1734.000000	0.303763
1735.000000	0.303711
1736.000000	0.303653
1737.000000	0.303615
1738.000000	0.303594
1739.000000	0.303608
1740.000000	0.303671
1741.000000	0.303615
1742.000000	0.303530
1743.000000	0.303529
1744.000000	0.303462
1745.000000	0.303444
1746.000000	0.303504
1747.000000	0.303498
1748.000000	0.303473
1749.000000	0.303476
1750.000000	0.303470
1751.000000	0.303586
1752.000000	0.303748
1753.000000	0.303781
1754.000000	0.303884
1755.000000	0.304028
1756.000000	0.304082
1757.000000	0.304166
1758.000000	0.304188
1759.000000	0.304056
1760.000000	0.303984
1761.000000	0.303882
1762.000000	0.303783
1763.000000	0.303735
1764.000000	0.303632
1765.000000	0.303412
1766.000000	0.303328
1767.000000	0.303229
1768.000000	0.303088
1769.000000	0.303089
1770.000000	0.303089
1771.000000	0.302989
1772.000000	0.302947
1773.000000	0.302914
1774.000000	0.302915
1775.000000	0.302983
1776.000000	0.303046
1777.000000	0.303130
1778.000000	0.303179
1779.000000	0.303214
1780.000000	0.303189
1781.000000	0.303088
1782.000000	0.303038
1783.000000	0.302998
1784.000000	0.302962
1785.000000	0.302860
1786.000000	0.302873
1787.000000	0.302974
1788.000000	0.302991
1789.000000	0.303094
1790.000000	0.302994
1791.000000	0.302917
1792.000000	0.303034
1793.000000	0.303012
1794.000000	0.302921
1795.000000	0.302878
1796.000000	0.302707
1797.000000	0.302663
1798.000000	0.302729
1799.000000	0.302741
1800.000000	0.302829
1801.000000	0.302822
1802.000000	0.302855
1803.000000	0.302623
1804.000000	0.302602
1805.000000	0.302012
1806.000000	0.301970
1807.000000	0.302828
1808.000000	0.302848
1809.000000	0.302320
1810.000000	0.302094
1811.000000	0.301985
1812.000000	0.301431
1813.000000	0.301618
1814.000000	0.302893
1815.000000	0.303143
1816.000000	0.303154
1817.000000	0.302977
1818.000000	0.302342
1819.000000	0.301747
1820.000000	0.301504
1821.000000	0.301484
1822.000000	0.301615
1823.000000	0.302177
1824.000000	0.302175
1825.000000	0.302023
1826.000000	0.302001
1827.000000	0.301765
1828.000000	0.301275
1829.000000	0.301190
1830.000000	0.300881
1831.000000	0.300664
1832.000000	0.300136
1833.000000	0.300195
1834.000000	0.300744
1835.000000	0.300990
1836.000000	0.301599
1837.000000	0.301692
1838.000000	0.301285
1839.000000	0.300655
1840.000000	0.300238
1841.000000	0.299880
1842.000000	0.299877
1843.000000	0.300229
1844.000000	0.300595
1845.000000	0.301298
1846.000000	0.301710
1847.000000	0.302061
1848.000000	0.302150
1849.000000	0.302098
1850.000000	0.301583
1851.000000	0.301458
1852.000000	0.301453
1853.000000	0.301290
1854.000000	0.300900
1855.000000	0.300714
1856.000000	0.300536
1857.000000	0.299933
1858.000000	0.299791
1859.000000	0.299678
1860.000000	0.299229
1861.000000	0.299166
1862.000000	0.298949
1863.000000	0.298745
1864.000000	0.298625
1865.000000	0.298678
1866.000000	0.298442
1867.000000	0.298146
1868.000000	0.297671
1869.000000	0.297032
1870.000000	0.296618
1871.000000	0.296440
1872.000000	0.296728
1873.000000	0.296759
1874.000000	0.296815
1875.000000	0.296821
1876.000000	0.296744
1877.000000	0.295962
1878.000000	0.294923
1879.000000	0.294274
1880.000000	0.293371
1881.000000	0.292361
1882.000000	0.291936
1883.000000	0.291032
1884.000000	0.289996
1885.000000	0.288438
1886.000000	0.287126
1887.000000	0.285592
1888.000000	0.284212
1889.000000	0.283158
1890.000000	0.282173
1891.000000	0.281182
1892.000000	0.280378
1893.000000	0.279572
1894.000000	0.278954
1895.000000	0.277939
1896.000000	0.277115
1897.000000	0.275728
1898.000000	0.274353
1899.000000	0.273267
1900.000000	0.272636
1901.000000	0.272537
1902.000000	0.272267
1903.000000	0.272017
1904.000000	0.271908
1905.000000	0.271714
1906.000000	0.271535
1907.000000	0.271487
1908.000000	0.271455
1909.000000	0.271599
1910.000000	0.271700
1911.000000	0.271640
1912.000000	0.271675
1913.000000	0.271681
1914.000000	0.272042
1915.000000	0.272585
1916.000000	0.273159
1917.000000	0.273605
1918.000000	0.274264
1919.000000	0.274232
1920.000000	0.274110
1921.000000	0.274878
1922.000000	0.275361
1923.000000	0.276119
1924.000000	0.277379
1925.000000	0.277675
1926.000000	0.277671
1927.000000	0.277954
1928.000000	0.278033
1929.000000	0.277836
1930.000000	0.277968
1931.000000	0.278527
1932.000000	0.278878
1933.000000	0.279366
1934.000000	0.279991
1935.000000	0.280191
1936.000000	0.280316
1937.000000	0.280677
1938.000000	0.280946
1939.000000	0.281143
1940.000000	0.281339
1941.000000	0.281614
1942.000000	0.281798
1943.000000	0.281707
1944.000000	0.281542
1945.000000	0.281352
1946.000000	0.281288
1947.000000	0.281367
1948.000000	0.281514
1949.000000	0.281784
1950.000000	0.281852
1951.000000	0.281921
1952.000000	0.282036
1953.000000	0.282047
1954.000000	0.282110
1955.000000	0.282381
1956.000000	0.282378
1957.000000	0.282538
1958.000000	0.282611
1959.000000	0.282584
1960.000000	0.282718
1961.000000	0.282647
1962.000000	0.282581
1963.000000	0.282538
1964.000000	0.282673
1965.000000	0.282571
1966.000000	0.282761
1967.000000	0.283284
1968.000000	0.283514
1969.000000	0.283635
1970.000000	0.283724
1971.000000	0.283667
1972.000000	0.283468
1973.000000	0.283330
1974.000000	0.283440
1975.000000	0.283548
1976.000000	0.283644
1977.000000	0.283859
1978.000000	0.284104
1979.000000	0.284179
1980.000000	0.284342
1981.000000	0.284715
1982.000000	0.284863
1983.000000	0.284814
1984.000000	0.284843
1985.000000	0.284770
1986.000000	0.284791
1987.000000	0.284880
1988.000000	0.285305
1989.000000	0.285623
1990.000000	0.285489
1991.000000	0.285573
1992.000000	0.285564
1993.000000	0.285657
1994.000000	0.286117
1995.000000	0.286366
1996.000000	0.286777
1997.000000	0.286917
1998.000000	0.286810
1999.000000	0.286875
2000.000000	0.287001
2001.000000	0.286763
2002.000000	0.286893
2003.000000	0.287307
2004.000000	0.287361
2005.000000	0.287164
2006.000000	0.287096
2007.000000	0.286982
2008.000000	0.287094
2009.000000	0.287540
2010.000000	0.287875
2011.000000	0.288043
2012.000000	0.288294
2013.000000	0.288560
2014.000000	0.288518
2015.000000	0.288763
2016.000000	0.289015
2017.000000	0.289208
2018.000000	0.289493
2019.000000	0.289511
2020.000000	0.289467
2021.000000	0.289415
2022.000000	0.289015
2023.000000	0.288868
2024.000000	0.288893
2025.000000	0.289085
2026.000000	0.289239
2027.000000	0.289472
2028.000000	0.289966
2029.000000	0.290012
2030.000000	0.290112
2031.000000	0.290155
2032.000000	0.290092
2033.000000	0.290400
2034.000000	0.290584
2035.000000	0.291078
2036.000000	0.291065
2037.000000	0.291058
2038.000000	0.290809
2039.000000	0.290256
2040.000000	0.289524
2041.000000	0.289333
2042.000000	0.289601
2043.000000	0.289876
2044.000000	0.290185
2045.000000	0.290301
2046.000000	0.290038
2047.000000	0.289964
2048.000000	0.289892
2049.000000	0.290014
2050.000000	0.289794
2051.000000	0.289751
2052.000000	0.289722
2053.000000	0.289597
2054.000000	0.289737
2055.000000	0.289926
2056.000000	0.290034
2057.000000	0.290359
2058.000000	0.290110
2059.000000	0.290181
2060.000000	0.290102
2061.000000	0.289632
2062.000000	0.289621
2063.000000	0.290002
2064.000000	0.289988
2065.000000	0.290321
2066.000000	0.290302
2067.000000	0.290197
2068.000000	0.290219
2069.000000	0.290241
2070.000000	0.290477
2071.000000	0.290703
2072.000000	0.290836
2073.000000	0.290987
2074.000000	0.290950
2075.000000	0.290896
2076.000000	0.290839
2077.000000	0.290705
2078.000000	0.290416
2079.000000	0.290119
2080.000000	0.289759
2081.000000	0.289520
2082.000000	0.289169
2083.000000	0.289174
2084.000000	0.289278
2085.000000	0.289237
2086.000000	0.289372
2087.000000	0.289501
2088.000000	0.289552
2089.000000	0.289719
2090.000000	0.289763
2091.000000	0.289710
2092.000000	0.289751
2093.000000	0.289761
2094.000000	0.289818
2095.000000	0.290186
2096.000000	0.290261
2097.000000	0.290028
2098.000000	0.290033
2099.000000	0.289830
2100.000000	0.289214
2101.000000	0.289046
2102.000000	0.289034
2103.000000	0.289194
2104.000000	0.289536
2105.000000	0.289858
2106.000000	0.290444
2107.000000	0.290535
2108.000000	0.290350
2109.000000	0.290402
2110.000000	0.289879
2111.000000	0.289882
2112.000000	0.290218
2113.000000	0.290501
2114.000000	0.290641
2115.000000	0.290681
2116.000000	0.290571
2117.000000	0.289772
2118.000000	0.288990
2119.000000	0.288569
2120.000000	0.288346
2121.000000	0.288234
2122.000000	0.288429
2123.000000	0.289178
2124.000000	0.289526
2125.000000	0.289977
2126.000000	0.290171
2127.000000	0.290083
2128.000000	0.290070
2129.000000	0.289772
2130.000000	0.289820
2131.000000	0.289733
2132.000000	0.289878
2133.000000	0.290179
2134.000000	0.290543
2135.000000	0.290742
2136.000000	0.290846
2137.000000	0.290920
2138.000000	0.290900
2139.000000	0.290930
2140.000000	0.290840
2141.000000	0.291002
2142.000000	0.291306
2143.000000	0.291332
2144.000000	0.291840
2145.000000	0.291894
2146.000000	0.291601
2147.000000	0.291649
2148.000000	0.291332
2149.000000	0.290994
2150.000000	0.290801
2151.000000	0.290705
2152.000000	0.290496
2153.000000	0.290269
2154.000000	0.290066
2155.000000	0.289732
2156.000000	0.289549
2157.000000	0.289576
2158.000000	0.289562
2159.000000	0.289599
2160.000000	0.289935
2161.000000	0.290555
2162.000000	0.290854
2163.000000	0.291064
2164.000000	0.291157
2165.000000	0.290950
2166.000000	0.290817
2167.000000	0.290785
2168.000000	0.291057
2169.000000	0.290591
2170.000000	0.290161
2171.000000	0.290177
2172.000000	0.290124
2173.000000	0.290319
2174.000000	0.291357
2175.000000	0.291423
2176.000000	0.290990
2177.000000	0.290925
2178.000000	0.291023
2179.000000	0.290811
2180.000000	0.290180
2181.000000	0.289973
2182.000000	0.289239
2183.000000	0.288090
2184.000000	0.287730
2185.000000	0.288745
2186.000000	0.289062
2187.000000	0.289360
2188.000000	0.290159
2189.000000	0.290118
2190.000000	0.290330
2191.000000	0.290915
2192.000000	0.291304
2193.000000	0.291751
2194.000000	0.291860
2195.000000	0.291897
2196.000000	0.292048
2197.000000	0.291728
2198.000000	0.291220
2199.000000	0.290795
2200.000000	0.290425
2201.000000	0.289692
2202.000000	0.289328
2203.000000	0.289495
2204.000000	0.288880
2205.000000	0.288197
2206.000000	0.287688
2207.000000	0.286615
2208.000000	0.287229
2209.000000	0.288470
2210.000000	0.289153
2211.000000	0.290079
2212.000000	0.290847
2213.000000	0.291225
2214.000000	0.290669
2215.000000	0.290593
2216.000000	0.290984
2217.000000	0.290979
2218.000000	0.290159
2219.000000	0.290551
2220.000000	0.291532
2221.000000	0.291731
2222.000000	0.292992
2223.000000	0.292836
2224.000000	0.290909
2225.000000	0.290420
2226.000000	0.288752
2227.000000	0.287856
2228.000000	0.289108
2229.000000	0.287914
2230.000000	0.287109
2231.000000	0.286458
2232.000000	0.284907
2233.000000	0.284808
2234.000000	0.285581
2235.000000	0.286640
2236.000000	0.287162
2237.000000	0.287697
2238.000000	0.288046
2239.000000	0.287327
2240.000000	0.288100
2241.000000	0.290110
2242.000000	0.290989
2243.000000	0.292418
2244.000000	0.293282
2245.000000	0.293285
2246.000000	0.292741
2247.000000	0.291176
2248.000000	0.290501
2249.000000	0.289506
2250.000000	0.289258
2251.000000	0.289177
2252.000000	0.289076
2253.000000	0.287609
2254.000000	0.285807
2255.000000	0.285428
2256.000000	0.286375
2257.000000	0.287934
2258.000000	0.289848
2259.000000	0.291034
2260.000000	0.291336
2261.000000	0.290840
2262.000000	0.288920
2263.000000	0.288027
2264.000000	0.286811
2265.000000	0.286452
2266.000000	0.287462
2267.000000	0.286939
2268.000000	0.285194
2269.000000	0.284824
2270.000000	0.284356
2271.000000	0.284351
2272.000000	0.286058
2273.000000	0.286464
2274.000000	0.286213
2275.000000	0.285943
2276.000000	0.285073
2277.000000	0.284568
2278.000000	0.284923
2279.000000	0.284520
2280.000000	0.284679
2281.000000	0.284067
2282.000000	0.281540
2283.000000	0.279275
2284.000000	0.277231
2285.000000	0.276433
2286.000000	0.277800
2287.000000	0.278916
2288.000000	0.279561
2289.000000	0.280052
2290.000000	0.279230
2291.000000	0.277921
2292.000000	0.277028
2293.000000	0.276379
2294.000000	0.275672
2295.000000	0.274798
2296.000000	0.274491
2297.000000	0.274060
2298.000000	0.274486
2299.000000	0.276145
2300.000000	0.276789
2301.000000	0.277924
2302.000000	0.277634
2303.000000	0.276302
2304.000000	0.274899
2305.000000	0.272202
2306.000000	0.271184
2307.000000	0.270708
2308.000000	0.269633
2309.000000	0.270664
2310.000000	0.270186
2311.000000	0.269412
2312.000000	0.268238
2313.000000	0.266183
2314.000000	0.265796
2315.000000	0.265922
2316.000000	0.268201
2317.000000	0.270865
2318.000000	0.272381
2319.000000	0.273574
2320.000000	0.272846
2321.000000	0.273783
2322.000000	0.274899
2323.000000	0.275304
2324.000000	0.277297
2325.000000	0.276868
2326.000000	0.276789
2327.000000	0.279131
2328.000000	0.280144
2329.000000	0.280903
2330.000000	0.281516
2331.000000	0.280749
2332.000000	0.280416
2333.000000	0.280482
2334.000000	0.280353
2335.000000	0.280776
2336.000000	0.280122
2337.000000	0.280984
2338.000000	0.283683
2339.000000	0.284909
2340.000000	0.287193
2341.000000	0.287180
2342.000000	0.284627
2343.000000	0.283258
2344.000000	0.280432
2345.000000	0.279126
2346.000000	0.279585
2347.000000	0.279506
2348.000000	0.279788
2349.000000	0.279370
2350.000000	0.280068
2351.000000	0.280221
2352.000000	0.279461
2353.000000	0.280898
2354.000000	0.280567
2355.000000	0.279041
2356.000000	0.278438
2357.000000	0.277671
2358.000000	0.277215
2359.000000	0.277534
2360.000000	0.278465
2361.000000	0.278061
2362.000000	0.277322
2363.000000	0.276422
2364.000000	0.273293
2365.000000	0.272998
2366.000000	0.276050
2367.000000	0.277588
2368.000000	0.279585
2369.000000	0.280491
2370.000000	0.276561
2371.000000	0.274058
2372.000000	0.274184
2373.000000	0.274015
2374.000000	0.273616
2375.000000	0.272377
2376.000000	0.272572
2377.000000	0.272581
2378.000000	0.274419
2379.000000	0.279520
2380.000000	0.279451
2381.000000	0.278353
2382.000000	0.279603
2383.000000	0.278969
2384.000000	0.279888
2385.000000	0.283524
2386.000000	0.283092
2387.000000	0.277161
2388.000000	0.272286
2389.000000	0.268319
2390.000000	0.264995
2391.000000	0.267045
2392.000000	0.271623
2393.000000	0.271921
2394.000000	0.272609
2395.000000	0.274491
2396.000000	0.274605
2397.000000	0.276105
2398.000000	0.278079
2399.000000	0.277336
2400.000000	0.273765
2401.000000	0.272839
2402.000000	0.273455
2403.000000	0.275607
2404.000000	0.277072
2405.000000	0.273682
2406.000000	0.269330
2407.000000	0.266297
2408.000000	0.267224
2409.000000	0.268973
2410.000000	0.270007
2411.000000	0.265912
2412.000000	0.258752
2413.000000	0.257770
2414.000000	0.260867
2415.000000	0.266767
2416.000000	0.272213
2417.000000	0.274053
2418.000000	0.273392
2419.000000	0.271832
2420.000000	0.271711
2421.000000	0.270085
2422.000000	0.271159
2423.000000	0.274698
2424.000000	0.275922
2425.000000	0.280710
2426.000000	0.279536
2427.000000	0.272312
2428.000000	0.265227
2429.000000	0.257202
2430.000000	0.253408
2431.000000	0.252940
2432.000000	0.258212
2433.000000	0.262912
2434.000000	0.261948
2435.000000	0.262715
2436.000000	0.263541
2437.000000	0.264424
2438.000000	0.267825
2439.000000	0.263412
2440.000000	0.257212
2441.000000	0.260973
2442.000000	0.268280
2443.000000	0.279783
2444.000000	0.285613
2445.000000	0.279582
2446.000000	0.269732
2447.000000	0.254713
2448.000000	0.251682
2449.000000	0.259665
2450.000000	0.262694
2451.000000	0.276076
2452.000000	0.284823
2453.000000	0.282477
2454.000000	0.288439
2455.000000	0.281269
2456.000000	0.266660
2457.000000	0.257052
2458.000000	0.246084
2459.000000	0.248456
2460.000000	0.259390
2461.000000	0.259717
2462.000000	0.254279
2463.000000	0.247399
2464.000000	0.238962
2465.000000	0.250249
2466.000000	0.268508
2467.000000	0.270780
2468.000000	0.277646
2469.000000	0.276026
2470.000000	0.260870
2471.000000	0.249095
2472.000000	0.232486
2473.000000	0.223833
2474.000000	0.220486
2475.000000	0.222188
2476.000000	0.240264
2477.000000	0.250483
2478.000000	0.250293
2479.000000	0.248351
2480.000000	0.247999
2481.000000	0.236954
2482.000000	0.228879
2483.000000	0.231575
2484.000000	0.223235
2485.000000	0.217607
2486.000000	0.217780
2487.000000	0.240455
2488.000000	0.271754
2489.000000	0.289799
2490.000000	0.309300
2491.000000	0.296044
2492.000000	0.272981
2493.000000	0.238737
2494.000000	0.229906
2495.000000	0.217320
2496.000000	0.210673
2497.000000	0.239435
2498.000000	0.245903
2499.000000	0.236774
2500.000000	0.241667
