# Wavelength	SM1200H-80_HEX-10_FV7-10_00001.asd.rts.txt
350.000000	0.424595
351.000000	0.423629
352.000000	0.433493
353.000000	0.440631
354.000000	0.441865
355.000000	0.435322
356.000000	0.428474
357.000000	0.425659
358.000000	0.422283
359.000000	0.429244
360.000000	0.438857
361.000000	0.440339
362.000000	0.442586
363.000000	0.447349
364.000000	0.451022
365.000000	0.439894
366.000000	0.438851
367.000000	0.447284
368.000000	0.443814
369.000000	0.442874
370.000000	0.442957
371.000000	0.439758
372.000000	0.442675
373.000000	0.446921
374.000000	0.449449
375.000000	0.451362
376.000000	0.452109
377.000000	0.452445
378.000000	0.455127
379.000000	0.456254
380.000000	0.455999
381.000000	0.457136
382.000000	0.457229
383.000000	0.456336
384.000000	0.455508
385.000000	0.455843
386.000000	0.457273
387.000000	0.459023
388.000000	0.458697
389.000000	0.458491
390.000000	0.458858
391.000000	0.459278
392.000000	0.461941
393.000000	0.464307
394.000000	0.464525
395.000000	0.464879
396.000000	0.465819
397.000000	0.467059
398.000000	0.467683
399.000000	0.467459
400.000000	0.466709
401.000000	0.465871
402.000000	0.466958
403.000000	0.468198
404.000000	0.468450
405.000000	0.470866
406.000000	0.472161
407.000000	0.471598
408.000000	0.472731
409.000000	0.473041
410.000000	0.472826
411.000000	0.473788
412.000000	0.474052
413.000000	0.473758
414.000000	0.473575
415.000000	0.474089
416.000000	0.474804
417.000000	0.475331
418.000000	0.475648
419.000000	0.475786
420.000000	0.475998
421.000000	0.476745
422.000000	0.477488
423.000000	0.478121
424.000000	0.478838
425.000000	0.479727
426.000000	0.480422
427.000000	0.480644
428.000000	0.480573
429.000000	0.480923
430.000000	0.481819
431.000000	0.482628
432.000000	0.483230
433.000000	0.483763
434.000000	0.484681
435.000000	0.484933
436.000000	0.484956
437.000000	0.485296
438.000000	0.485831
439.000000	0.486244
440.000000	0.486536
441.000000	0.486640
442.000000	0.486747
443.000000	0.486913
444.000000	0.487441
445.000000	0.487561
446.000000	0.487933
447.000000	0.488963
448.000000	0.489012
449.000000	0.488921
450.000000	0.489320
451.000000	0.489423
452.000000	0.489826
453.000000	0.490449
454.000000	0.490888
455.000000	0.491103
456.000000	0.491473
457.000000	0.492154
458.000000	0.492384
459.000000	0.492682
460.000000	0.493571
461.000000	0.494180
462.000000	0.494668
463.000000	0.494855
464.000000	0.494849
465.000000	0.495105
466.000000	0.495580
467.000000	0.496155
468.000000	0.496269
469.000000	0.496147
470.000000	0.496472
471.000000	0.496690
472.000000	0.496943
473.000000	0.497351
474.000000	0.497595
475.000000	0.497624
476.000000	0.497787
477.000000	0.498242
478.000000	0.498353
479.000000	0.498444
480.000000	0.498538
481.000000	0.498676
482.000000	0.498976
483.000000	0.499149
484.000000	0.499624
485.000000	0.499987
486.000000	0.500313
487.000000	0.500423
488.000000	0.500576
489.000000	0.500855
490.000000	0.501191
491.000000	0.501609
492.000000	0.502134
493.000000	0.502514
494.000000	0.502790
495.000000	0.503101
496.000000	0.503467
497.000000	0.503933
498.000000	0.504368
499.000000	0.504804
500.000000	0.505058
501.000000	0.505410
502.000000	0.505931
503.000000	0.506415
504.000000	0.506723
505.000000	0.506998
506.000000	0.507391
507.000000	0.507698
508.000000	0.508075
509.000000	0.508508
510.000000	0.508885
511.000000	0.509273
512.000000	0.509738
513.000000	0.510244
514.000000	0.510680
515.000000	0.511076
516.000000	0.511383
517.000000	0.511614
518.000000	0.511869
519.000000	0.512087
520.000000	0.512451
521.000000	0.512836
522.000000	0.513197
523.000000	0.513580
524.000000	0.513875
525.000000	0.514095
526.000000	0.514411
527.000000	0.514734
528.000000	0.515003
529.000000	0.515272
530.000000	0.515507
531.000000	0.515768
532.000000	0.515966
533.000000	0.516308
534.000000	0.516639
535.000000	0.516902
536.000000	0.517205
537.000000	0.517537
538.000000	0.517871
539.000000	0.518154
540.000000	0.518494
541.000000	0.518834
542.000000	0.519179
543.000000	0.519537
544.000000	0.519909
545.000000	0.520215
546.000000	0.520711
547.000000	0.521134
548.000000	0.521498
549.000000	0.521824
550.000000	0.522225
551.000000	0.522649
552.000000	0.522926
553.000000	0.523320
554.000000	0.523734
555.000000	0.524101
556.000000	0.524535
557.000000	0.524833
558.000000	0.525174
559.000000	0.525550
560.000000	0.525861
561.000000	0.526237
562.000000	0.526628
563.000000	0.526913
564.000000	0.527214
565.000000	0.527465
566.000000	0.527686
567.000000	0.527943
568.000000	0.528237
569.000000	0.528573
570.000000	0.528963
571.000000	0.529337
572.000000	0.529590
573.000000	0.529903
574.000000	0.530219
575.000000	0.530506
576.000000	0.530667
577.000000	0.530788
578.000000	0.531059
579.000000	0.531364
580.000000	0.531693
581.000000	0.532020
582.000000	0.532307
583.000000	0.532528
584.000000	0.532726
585.000000	0.532997
586.000000	0.533248
587.000000	0.533503
588.000000	0.533806
589.000000	0.534114
590.000000	0.534427
591.000000	0.534736
592.000000	0.534989
593.000000	0.535249
594.000000	0.535496
595.000000	0.535642
596.000000	0.535800
597.000000	0.536052
598.000000	0.536277
599.000000	0.536415
600.000000	0.536623
601.000000	0.536869
602.000000	0.537001
603.000000	0.537128
604.000000	0.537340
605.000000	0.537637
606.000000	0.537824
607.000000	0.537954
608.000000	0.538240
609.000000	0.538572
610.000000	0.538820
611.000000	0.538904
612.000000	0.539085
613.000000	0.539273
614.000000	0.539450
615.000000	0.539602
616.000000	0.539725
617.000000	0.539805
618.000000	0.540011
619.000000	0.540192
620.000000	0.540281
621.000000	0.540360
622.000000	0.540398
623.000000	0.540433
624.000000	0.540498
625.000000	0.540610
626.000000	0.540691
627.000000	0.540720
628.000000	0.540747
629.000000	0.540938
630.000000	0.541021
631.000000	0.541002
632.000000	0.541063
633.000000	0.541222
634.000000	0.541415
635.000000	0.541571
636.000000	0.541806
637.000000	0.542093
638.000000	0.542187
639.000000	0.542294
640.000000	0.542498
641.000000	0.542501
642.000000	0.542561
643.000000	0.542652
644.000000	0.542685
645.000000	0.542782
646.000000	0.542927
647.000000	0.543045
648.000000	0.543159
649.000000	0.543261
650.000000	0.543355
651.000000	0.543597
652.000000	0.543749
653.000000	0.543863
654.000000	0.543963
655.000000	0.544087
656.000000	0.544216
657.000000	0.544249
658.000000	0.544384
659.000000	0.544517
660.000000	0.544585
661.000000	0.544702
662.000000	0.544760
663.000000	0.544866
664.000000	0.545062
665.000000	0.545243
666.000000	0.545400
667.000000	0.545504
668.000000	0.545614
669.000000	0.545761
670.000000	0.545940
671.000000	0.546037
672.000000	0.546167
673.000000	0.546321
674.000000	0.546422
675.000000	0.546535
676.000000	0.546657
677.000000	0.546808
678.000000	0.547025
679.000000	0.547209
680.000000	0.547315
681.000000	0.547378
682.000000	0.547491
683.000000	0.547561
684.000000	0.547713
685.000000	0.547836
686.000000	0.547975
687.000000	0.548118
688.000000	0.548219
689.000000	0.548344
690.000000	0.548580
691.000000	0.548770
692.000000	0.548884
693.000000	0.549042
694.000000	0.549216
695.000000	0.549408
696.000000	0.549592
697.000000	0.549743
698.000000	0.549879
699.000000	0.550001
700.000000	0.550121
701.000000	0.550233
702.000000	0.550302
703.000000	0.550328
704.000000	0.550461
705.000000	0.550622
706.000000	0.550721
707.000000	0.550838
708.000000	0.550993
709.000000	0.551146
710.000000	0.551298
711.000000	0.551450
712.000000	0.551587
713.000000	0.551760
714.000000	0.552021
715.000000	0.552149
716.000000	0.552207
717.000000	0.552323
718.000000	0.552347
719.000000	0.552338
720.000000	0.552392
721.000000	0.552503
722.000000	0.552544
723.000000	0.552581
724.000000	0.552616
725.000000	0.552616
726.000000	0.552736
727.000000	0.552893
728.000000	0.553013
729.000000	0.553110
730.000000	0.553126
731.000000	0.553192
732.000000	0.553211
733.000000	0.553216
734.000000	0.553200
735.000000	0.553144
736.000000	0.553245
737.000000	0.553316
738.000000	0.553308
739.000000	0.553359
740.000000	0.553302
741.000000	0.553408
742.000000	0.553469
743.000000	0.553413
744.000000	0.553472
745.000000	0.553497
746.000000	0.553559
747.000000	0.553605
748.000000	0.553672
749.000000	0.553825
750.000000	0.553996
751.000000	0.554000
752.000000	0.553958
753.000000	0.553949
754.000000	0.553981
755.000000	0.554115
756.000000	0.554292
757.000000	0.554363
758.000000	0.554504
759.000000	0.554620
760.000000	0.554577
761.000000	0.554675
762.000000	0.554753
763.000000	0.554752
764.000000	0.554810
765.000000	0.554825
766.000000	0.554855
767.000000	0.554948
768.000000	0.555057
769.000000	0.555112
770.000000	0.555135
771.000000	0.555272
772.000000	0.555434
773.000000	0.555470
774.000000	0.555468
775.000000	0.555559
776.000000	0.555680
777.000000	0.555735
778.000000	0.555756
779.000000	0.555802
780.000000	0.555875
781.000000	0.555894
782.000000	0.555930
783.000000	0.556053
784.000000	0.556020
785.000000	0.556057
786.000000	0.556085
787.000000	0.556060
788.000000	0.556073
789.000000	0.556046
790.000000	0.555965
791.000000	0.555933
792.000000	0.555880
793.000000	0.555892
794.000000	0.556015
795.000000	0.556042
796.000000	0.556046
797.000000	0.556055
798.000000	0.556072
799.000000	0.556158
800.000000	0.556230
801.000000	0.556198
802.000000	0.556155
803.000000	0.556181
804.000000	0.556315
805.000000	0.556284
806.000000	0.556180
807.000000	0.556180
808.000000	0.556215
809.000000	0.556085
810.000000	0.555931
811.000000	0.555862
812.000000	0.555839
813.000000	0.555852
814.000000	0.555893
815.000000	0.555997
816.000000	0.555993
817.000000	0.556018
818.000000	0.556072
819.000000	0.556059
820.000000	0.556070
821.000000	0.556019
822.000000	0.555828
823.000000	0.555789
824.000000	0.555757
825.000000	0.555678
826.000000	0.555695
827.000000	0.555692
828.000000	0.555684
829.000000	0.555746
830.000000	0.555689
831.000000	0.555627
832.000000	0.555541
833.000000	0.555525
834.000000	0.555535
835.000000	0.555563
836.000000	0.555533
837.000000	0.555453
838.000000	0.555349
839.000000	0.555189
840.000000	0.555028
841.000000	0.554940
842.000000	0.554895
843.000000	0.554892
844.000000	0.554867
845.000000	0.554778
846.000000	0.554745
847.000000	0.554729
848.000000	0.554693
849.000000	0.554658
850.000000	0.554571
851.000000	0.554373
852.000000	0.554217
853.000000	0.554353
854.000000	0.554327
855.000000	0.554271
856.000000	0.554148
857.000000	0.553949
858.000000	0.553834
859.000000	0.553724
860.000000	0.553569
861.000000	0.553483
862.000000	0.553498
863.000000	0.553452
864.000000	0.553276
865.000000	0.553207
866.000000	0.553319
867.000000	0.553167
868.000000	0.553137
869.000000	0.553092
870.000000	0.552925
871.000000	0.552772
872.000000	0.552704
873.000000	0.552660
874.000000	0.552736
875.000000	0.552717
876.000000	0.552678
877.000000	0.552658
878.000000	0.552374
879.000000	0.552095
880.000000	0.551781
881.000000	0.551605
882.000000	0.551466
883.000000	0.551342
884.000000	0.551127
885.000000	0.550940
886.000000	0.550707
887.000000	0.550454
888.000000	0.550274
889.000000	0.550061
890.000000	0.549772
891.000000	0.549753
892.000000	0.549637
893.000000	0.549464
894.000000	0.549455
895.000000	0.549352
896.000000	0.549086
897.000000	0.548753
898.000000	0.548506
899.000000	0.548381
900.000000	0.548298
901.000000	0.548158
902.000000	0.548100
903.000000	0.547883
904.000000	0.547659
905.000000	0.547461
906.000000	0.547384
907.000000	0.547316
908.000000	0.547313
909.000000	0.547298
910.000000	0.547161
911.000000	0.546994
912.000000	0.546908
913.000000	0.546738
914.000000	0.546508
915.000000	0.546330
916.000000	0.546096
917.000000	0.546058
918.000000	0.546132
919.000000	0.546107
920.000000	0.545747
921.000000	0.545328
922.000000	0.545016
923.000000	0.544841
924.000000	0.544653
925.000000	0.544428
926.000000	0.544195
927.000000	0.543824
928.000000	0.543600
929.000000	0.543343
930.000000	0.542862
931.000000	0.542800
932.000000	0.542681
933.000000	0.542390
934.000000	0.542068
935.000000	0.541625
936.000000	0.541247
937.000000	0.540902
938.000000	0.540508
939.000000	0.540338
940.000000	0.540167
941.000000	0.539785
942.000000	0.539246
943.000000	0.538767
944.000000	0.538185
945.000000	0.537376
946.000000	0.536587
947.000000	0.536046
948.000000	0.535793
949.000000	0.535784
950.000000	0.535733
951.000000	0.535589
952.000000	0.535733
953.000000	0.535648
954.000000	0.535605
955.000000	0.535632
956.000000	0.535236
957.000000	0.534924
958.000000	0.534646
959.000000	0.534383
960.000000	0.534285
961.000000	0.534169
962.000000	0.533999
963.000000	0.534030
964.000000	0.533934
965.000000	0.533648
966.000000	0.533070
967.000000	0.532674
968.000000	0.532585
969.000000	0.532512
970.000000	0.532262
971.000000	0.532229
972.000000	0.532072
973.000000	0.531677
974.000000	0.531601
975.000000	0.531557
976.000000	0.531436
977.000000	0.531193
978.000000	0.530875
979.000000	0.530926
980.000000	0.530832
981.000000	0.530600
982.000000	0.530406
983.000000	0.530116
984.000000	0.529808
985.000000	0.529525
986.000000	0.529351
987.000000	0.529286
988.000000	0.529111
989.000000	0.528906
990.000000	0.528850
991.000000	0.528780
992.000000	0.528582
993.000000	0.528540
994.000000	0.528364
995.000000	0.528184
996.000000	0.527790
997.000000	0.527860
998.000000	0.527827
999.000000	0.527606
1000.000000	0.527586
1001.000000	0.528442
1002.000000	0.527500
1003.000000	0.527075
1004.000000	0.526645
1005.000000	0.525909
1006.000000	0.526232
1007.000000	0.527579
1008.000000	0.527877
1009.000000	0.528084
1010.000000	0.526893
1011.000000	0.525431
1012.000000	0.525353
1013.000000	0.525430
1014.000000	0.526228
1015.000000	0.526844
1016.000000	0.526411
1017.000000	0.525914
1018.000000	0.525796
1019.000000	0.525787
1020.000000	0.526527
1021.000000	0.525757
1022.000000	0.524124
1023.000000	0.524067
1024.000000	0.523729
1025.000000	0.524069
1026.000000	0.524960
1027.000000	0.525974
1028.000000	0.525953
1029.000000	0.525301
1030.000000	0.525513
1031.000000	0.525839
1032.000000	0.525866
1033.000000	0.526068
1034.000000	0.526327
1035.000000	0.526583
1036.000000	0.526666
1037.000000	0.527166
1038.000000	0.526902
1039.000000	0.525997
1040.000000	0.525668
1041.000000	0.525813
1042.000000	0.525361
1043.000000	0.526102
1044.000000	0.526691
1045.000000	0.525919
1046.000000	0.526057
1047.000000	0.526373
1048.000000	0.526523
1049.000000	0.526685
1050.000000	0.527701
1051.000000	0.527830
1052.000000	0.526842
1053.000000	0.526765
1054.000000	0.527530
1055.000000	0.527593
1056.000000	0.527503
1057.000000	0.527901
1058.000000	0.527671
1059.000000	0.527320
1060.000000	0.527996
1061.000000	0.528680
1062.000000	0.528853
1063.000000	0.529077
1064.000000	0.529367
1065.000000	0.529378
1066.000000	0.529582
1067.000000	0.530002
1068.000000	0.530205
1069.000000	0.530155
1070.000000	0.530111
1071.000000	0.530010
1072.000000	0.530196
1073.000000	0.530509
1074.000000	0.531002
1075.000000	0.531609
1076.000000	0.532023
1077.000000	0.531844
1078.000000	0.531826
1079.000000	0.531748
1080.000000	0.531481
1081.000000	0.531528
1082.000000	0.531929
1083.000000	0.532051
1084.000000	0.532443
1085.000000	0.532604
1086.000000	0.532028
1087.000000	0.532304
1088.000000	0.533260
1089.000000	0.533416
1090.000000	0.533242
1091.000000	0.533566
1092.000000	0.533516
1093.000000	0.533223
1094.000000	0.533218
1095.000000	0.533574
1096.000000	0.533741
1097.000000	0.533690
1098.000000	0.533847
1099.000000	0.534022
1100.000000	0.534442
1101.000000	0.535187
1102.000000	0.535308
1103.000000	0.535041
1104.000000	0.535259
1105.000000	0.535407
1106.000000	0.535423
1107.000000	0.535622
1108.000000	0.535820
1109.000000	0.535969
1110.000000	0.535752
1111.000000	0.535966
1112.000000	0.536713
1113.000000	0.536883
1114.000000	0.536815
1115.000000	0.536868
1116.000000	0.536650
1117.000000	0.536807
1118.000000	0.537305
1119.000000	0.537419
1120.000000	0.537532
1121.000000	0.537599
1122.000000	0.537494
1123.000000	0.537846
1124.000000	0.538289
1125.000000	0.538427
1126.000000	0.538221
1127.000000	0.538137
1128.000000	0.538004
1129.000000	0.537671
1130.000000	0.537653
1131.000000	0.537945
1132.000000	0.537931
1133.000000	0.537941
1134.000000	0.537974
1135.000000	0.537892
1136.000000	0.537751
1137.000000	0.537689
1138.000000	0.537367
1139.000000	0.536857
1140.000000	0.536672
1141.000000	0.536405
1142.000000	0.536247
1143.000000	0.536173
1144.000000	0.536269
1145.000000	0.536228
1146.000000	0.536019
1147.000000	0.535852
1148.000000	0.535521
1149.000000	0.535367
1150.000000	0.535149
1151.000000	0.535249
1152.000000	0.535604
1153.000000	0.535692
1154.000000	0.535806
1155.000000	0.535740
1156.000000	0.535305
1157.000000	0.535204
1158.000000	0.535171
1159.000000	0.535121
1160.000000	0.535191
1161.000000	0.535192
1162.000000	0.535173
1163.000000	0.535382
1164.000000	0.535704
1165.000000	0.535837
1166.000000	0.535927
1167.000000	0.535941
1168.000000	0.535918
1169.000000	0.535728
1170.000000	0.535803
1171.000000	0.536088
1172.000000	0.536330
1173.000000	0.536701
1174.000000	0.536808
1175.000000	0.536801
1176.000000	0.536659
1177.000000	0.536276
1178.000000	0.536140
1179.000000	0.536180
1180.000000	0.535964
1181.000000	0.535814
1182.000000	0.535682
1183.000000	0.535742
1184.000000	0.535726
1185.000000	0.535605
1186.000000	0.535560
1187.000000	0.535528
1188.000000	0.535326
1189.000000	0.535147
1190.000000	0.535191
1191.000000	0.535156
1192.000000	0.535078
1193.000000	0.535241
1194.000000	0.535397
1195.000000	0.535561
1196.000000	0.535781
1197.000000	0.535812
1198.000000	0.535780
1199.000000	0.535790
1200.000000	0.535669
1201.000000	0.535525
1202.000000	0.535518
1203.000000	0.535570
1204.000000	0.535601
1205.000000	0.535602
1206.000000	0.535525
1207.000000	0.535605
1208.000000	0.535519
1209.000000	0.535348
1210.000000	0.535336
1211.000000	0.535358
1212.000000	0.535352
1213.000000	0.535548
1214.000000	0.535623
1215.000000	0.535520
1216.000000	0.535521
1217.000000	0.535462
1218.000000	0.535457
1219.000000	0.535561
1220.000000	0.535779
1221.000000	0.535754
1222.000000	0.535629
1223.000000	0.535570
1224.000000	0.535562
1225.000000	0.535537
1226.000000	0.535573
1227.000000	0.535655
1228.000000	0.535684
1229.000000	0.535615
1230.000000	0.535554
1231.000000	0.535422
1232.000000	0.535248
1233.000000	0.535379
1234.000000	0.535737
1235.000000	0.535888
1236.000000	0.535834
1237.000000	0.535993
1238.000000	0.536145
1239.000000	0.536169
1240.000000	0.536211
1241.000000	0.536348
1242.000000	0.536243
1243.000000	0.536024
1244.000000	0.535968
1245.000000	0.535879
1246.000000	0.535561
1247.000000	0.535586
1248.000000	0.535786
1249.000000	0.535912
1250.000000	0.536190
1251.000000	0.536283
1252.000000	0.536232
1253.000000	0.535986
1254.000000	0.535862
1255.000000	0.535651
1256.000000	0.535552
1257.000000	0.535582
1258.000000	0.535615
1259.000000	0.535539
1260.000000	0.535580
1261.000000	0.535690
1262.000000	0.535619
1263.000000	0.535486
1264.000000	0.535385
1265.000000	0.535278
1266.000000	0.534981
1267.000000	0.534915
1268.000000	0.534851
1269.000000	0.534623
1270.000000	0.534571
1271.000000	0.534354
1272.000000	0.534226
1273.000000	0.534227
1274.000000	0.534157
1275.000000	0.534150
1276.000000	0.534284
1277.000000	0.534438
1278.000000	0.534495
1279.000000	0.534530
1280.000000	0.534459
1281.000000	0.534393
1282.000000	0.534379
1283.000000	0.534423
1284.000000	0.534426
1285.000000	0.534411
1286.000000	0.534337
1287.000000	0.534239
1288.000000	0.534234
1289.000000	0.534020
1290.000000	0.533694
1291.000000	0.533571
1292.000000	0.533422
1293.000000	0.533352
1294.000000	0.533449
1295.000000	0.533486
1296.000000	0.533408
1297.000000	0.533247
1298.000000	0.533133
1299.000000	0.532997
1300.000000	0.533040
1301.000000	0.533219
1302.000000	0.533135
1303.000000	0.533190
1304.000000	0.533008
1305.000000	0.532645
1306.000000	0.532466
1307.000000	0.532409
1308.000000	0.532391
1309.000000	0.532511
1310.000000	0.532467
1311.000000	0.532508
1312.000000	0.532176
1313.000000	0.531709
1314.000000	0.531448
1315.000000	0.530952
1316.000000	0.530731
1317.000000	0.530719
1318.000000	0.530645
1319.000000	0.530503
1320.000000	0.530148
1321.000000	0.529725
1322.000000	0.529310
1323.000000	0.529020
1324.000000	0.528898
1325.000000	0.528684
1326.000000	0.528363
1327.000000	0.528088
1328.000000	0.527968
1329.000000	0.527558
1330.000000	0.526995
1331.000000	0.526596
1332.000000	0.526107
1333.000000	0.525786
1334.000000	0.525872
1335.000000	0.525815
1336.000000	0.525785
1337.000000	0.525519
1338.000000	0.525040
1339.000000	0.524554
1340.000000	0.524013
1341.000000	0.523553
1342.000000	0.523312
1343.000000	0.523029
1344.000000	0.522600
1345.000000	0.522277
1346.000000	0.522135
1347.000000	0.521755
1348.000000	0.521460
1349.000000	0.521129
1350.000000	0.520841
1351.000000	0.520473
1352.000000	0.520064
1353.000000	0.519809
1354.000000	0.519426
1355.000000	0.518899
1356.000000	0.518616
1357.000000	0.518167
1358.000000	0.517662
1359.000000	0.517393
1360.000000	0.517045
1361.000000	0.516835
1362.000000	0.516334
1363.000000	0.515603
1364.000000	0.515051
1365.000000	0.514402
1366.000000	0.513781
1367.000000	0.513299
1368.000000	0.512661
1369.000000	0.511913
1370.000000	0.510850
1371.000000	0.509690
1372.000000	0.508310
1373.000000	0.506554
1374.000000	0.504746
1375.000000	0.502614
1376.000000	0.500067
1377.000000	0.497157
1378.000000	0.493316
1379.000000	0.488806
1380.000000	0.483818
1381.000000	0.477883
1382.000000	0.471605
1383.000000	0.465104
1384.000000	0.458284
1385.000000	0.451718
1386.000000	0.445668
1387.000000	0.440315
1388.000000	0.435729
1389.000000	0.432210
1390.000000	0.429923
1391.000000	0.428586
1392.000000	0.428087
1393.000000	0.428163
1394.000000	0.429561
1395.000000	0.430482
1396.000000	0.431868
1397.000000	0.432742
1398.000000	0.433524
1399.000000	0.433760
1400.000000	0.433778
1401.000000	0.433213
1402.000000	0.432214
1403.000000	0.430826
1404.000000	0.429223
1405.000000	0.427602
1406.000000	0.425995
1407.000000	0.424476
1408.000000	0.423072
1409.000000	0.421756
1410.000000	0.420598
1411.000000	0.419704
1412.000000	0.418927
1413.000000	0.418379
1414.000000	0.418087
1415.000000	0.417843
1416.000000	0.417781
1417.000000	0.417842
1418.000000	0.417848
1419.000000	0.418107
1420.000000	0.418271
1421.000000	0.418635
1422.000000	0.419284
1423.000000	0.419904
1424.000000	0.420537
1425.000000	0.421305
1426.000000	0.421872
1427.000000	0.422523
1428.000000	0.423293
1429.000000	0.423943
1430.000000	0.424631
1431.000000	0.425281
1432.000000	0.425837
1433.000000	0.426363
1434.000000	0.426828
1435.000000	0.427306
1436.000000	0.427773
1437.000000	0.428234
1438.000000	0.428581
1439.000000	0.428886
1440.000000	0.429246
1441.000000	0.429608
1442.000000	0.429912
1443.000000	0.430119
1444.000000	0.430452
1445.000000	0.430651
1446.000000	0.430754
1447.000000	0.430867
1448.000000	0.430938
1449.000000	0.430877
1450.000000	0.430915
1451.000000	0.431144
1452.000000	0.431165
1453.000000	0.431148
1454.000000	0.431101
1455.000000	0.430873
1456.000000	0.430798
1457.000000	0.430955
1458.000000	0.431120
1459.000000	0.431188
1460.000000	0.431225
1461.000000	0.431262
1462.000000	0.431314
1463.000000	0.431369
1464.000000	0.431635
1465.000000	0.432070
1466.000000	0.432417
1467.000000	0.432894
1468.000000	0.433515
1469.000000	0.434170
1470.000000	0.434723
1471.000000	0.435405
1472.000000	0.436140
1473.000000	0.436854
1474.000000	0.437564
1475.000000	0.438383
1476.000000	0.439188
1477.000000	0.439952
1478.000000	0.440699
1479.000000	0.441395
1480.000000	0.442136
1481.000000	0.442831
1482.000000	0.443584
1483.000000	0.444380
1484.000000	0.445163
1485.000000	0.445891
1486.000000	0.446647
1487.000000	0.447397
1488.000000	0.448106
1489.000000	0.448867
1490.000000	0.449502
1491.000000	0.450187
1492.000000	0.450843
1493.000000	0.451528
1494.000000	0.452110
1495.000000	0.452770
1496.000000	0.453462
1497.000000	0.454155
1498.000000	0.454934
1499.000000	0.455709
1500.000000	0.456425
1501.000000	0.457114
1502.000000	0.457630
1503.000000	0.458189
1504.000000	0.458787
1505.000000	0.459312
1506.000000	0.459924
1507.000000	0.460627
1508.000000	0.461326
1509.000000	0.461929
1510.000000	0.462518
1511.000000	0.463095
1512.000000	0.463578
1513.000000	0.464027
1514.000000	0.464524
1515.000000	0.464916
1516.000000	0.465323
1517.000000	0.465742
1518.000000	0.466090
1519.000000	0.466395
1520.000000	0.466730
1521.000000	0.466998
1522.000000	0.467485
1523.000000	0.467988
1524.000000	0.468195
1525.000000	0.468671
1526.000000	0.469042
1527.000000	0.469263
1528.000000	0.469748
1529.000000	0.470041
1530.000000	0.470220
1531.000000	0.470680
1532.000000	0.471113
1533.000000	0.471497
1534.000000	0.471936
1535.000000	0.472264
1536.000000	0.472534
1537.000000	0.472956
1538.000000	0.473257
1539.000000	0.473438
1540.000000	0.473709
1541.000000	0.473991
1542.000000	0.474332
1543.000000	0.474710
1544.000000	0.475102
1545.000000	0.475574
1546.000000	0.475925
1547.000000	0.476305
1548.000000	0.476709
1549.000000	0.476907
1550.000000	0.477050
1551.000000	0.477229
1552.000000	0.477454
1553.000000	0.477645
1554.000000	0.477776
1555.000000	0.477981
1556.000000	0.478154
1557.000000	0.478268
1558.000000	0.478419
1559.000000	0.478545
1560.000000	0.478640
1561.000000	0.478764
1562.000000	0.478758
1563.000000	0.478756
1564.000000	0.478824
1565.000000	0.478806
1566.000000	0.478806
1567.000000	0.479051
1568.000000	0.479149
1569.000000	0.479267
1570.000000	0.479357
1571.000000	0.479384
1572.000000	0.479447
1573.000000	0.479507
1574.000000	0.479610
1575.000000	0.479828
1576.000000	0.479981
1577.000000	0.480092
1578.000000	0.480134
1579.000000	0.480186
1580.000000	0.480273
1581.000000	0.480400
1582.000000	0.480576
1583.000000	0.480859
1584.000000	0.480951
1585.000000	0.481160
1586.000000	0.481284
1587.000000	0.481221
1588.000000	0.481264
1589.000000	0.481358
1590.000000	0.481373
1591.000000	0.481381
1592.000000	0.481485
1593.000000	0.481638
1594.000000	0.481741
1595.000000	0.482057
1596.000000	0.482186
1597.000000	0.482112
1598.000000	0.482207
1599.000000	0.482398
1600.000000	0.482500
1601.000000	0.482882
1602.000000	0.482968
1603.000000	0.482838
1604.000000	0.482819
1605.000000	0.482676
1606.000000	0.482695
1607.000000	0.482984
1608.000000	0.483133
1609.000000	0.483344
1610.000000	0.483524
1611.000000	0.483742
1612.000000	0.483877
1613.000000	0.484141
1614.000000	0.484254
1615.000000	0.484323
1616.000000	0.484429
1617.000000	0.484430
1618.000000	0.484454
1619.000000	0.484443
1620.000000	0.484467
1621.000000	0.484485
1622.000000	0.484684
1623.000000	0.484953
1624.000000	0.485140
1625.000000	0.485211
1626.000000	0.485226
1627.000000	0.485104
1628.000000	0.485329
1629.000000	0.485682
1630.000000	0.486032
1631.000000	0.486521
1632.000000	0.486748
1633.000000	0.486862
1634.000000	0.487004
1635.000000	0.487167
1636.000000	0.487236
1637.000000	0.487253
1638.000000	0.487297
1639.000000	0.487347
1640.000000	0.487372
1641.000000	0.487519
1642.000000	0.487645
1643.000000	0.487800
1644.000000	0.487917
1645.000000	0.488032
1646.000000	0.488082
1647.000000	0.488128
1648.000000	0.488129
1649.000000	0.488252
1650.000000	0.488382
1651.000000	0.488528
1652.000000	0.488666
1653.000000	0.488770
1654.000000	0.488898
1655.000000	0.488919
1656.000000	0.488882
1657.000000	0.488958
1658.000000	0.488965
1659.000000	0.489006
1660.000000	0.489166
1661.000000	0.489235
1662.000000	0.489465
1663.000000	0.489871
1664.000000	0.489987
1665.000000	0.490020
1666.000000	0.490181
1667.000000	0.490014
1668.000000	0.490186
1669.000000	0.490648
1670.000000	0.490767
1671.000000	0.491028
1672.000000	0.491159
1673.000000	0.491043
1674.000000	0.491021
1675.000000	0.491110
1676.000000	0.491168
1677.000000	0.491086
1678.000000	0.491134
1679.000000	0.491251
1680.000000	0.491312
1681.000000	0.491570
1682.000000	0.491710
1683.000000	0.491729
1684.000000	0.491825
1685.000000	0.491821
1686.000000	0.491693
1687.000000	0.491637
1688.000000	0.491404
1689.000000	0.491285
1690.000000	0.491283
1691.000000	0.491278
1692.000000	0.491376
1693.000000	0.491445
1694.000000	0.491369
1695.000000	0.491528
1696.000000	0.491515
1697.000000	0.491366
1698.000000	0.491157
1699.000000	0.491103
1700.000000	0.491055
1701.000000	0.491137
1702.000000	0.491162
1703.000000	0.491087
1704.000000	0.491145
1705.000000	0.491064
1706.000000	0.490832
1707.000000	0.490817
1708.000000	0.490773
1709.000000	0.490690
1710.000000	0.490963
1711.000000	0.491091
1712.000000	0.491126
1713.000000	0.491147
1714.000000	0.491274
1715.000000	0.491275
1716.000000	0.491103
1717.000000	0.491099
1718.000000	0.491089
1719.000000	0.491035
1720.000000	0.491132
1721.000000	0.491191
1722.000000	0.491194
1723.000000	0.491226
1724.000000	0.491366
1725.000000	0.491476
1726.000000	0.491450
1727.000000	0.491375
1728.000000	0.491162
1729.000000	0.490940
1730.000000	0.490807
1731.000000	0.490730
1732.000000	0.490783
1733.000000	0.490794
1734.000000	0.490617
1735.000000	0.490434
1736.000000	0.490101
1737.000000	0.489959
1738.000000	0.489890
1739.000000	0.489822
1740.000000	0.489885
1741.000000	0.489723
1742.000000	0.489398
1743.000000	0.489390
1744.000000	0.489439
1745.000000	0.489321
1746.000000	0.489283
1747.000000	0.489119
1748.000000	0.488886
1749.000000	0.488829
1750.000000	0.488608
1751.000000	0.488304
1752.000000	0.488244
1753.000000	0.488054
1754.000000	0.487915
1755.000000	0.487954
1756.000000	0.487738
1757.000000	0.487228
1758.000000	0.487004
1759.000000	0.486805
1760.000000	0.486572
1761.000000	0.486476
1762.000000	0.486303
1763.000000	0.486004
1764.000000	0.485779
1765.000000	0.485566
1766.000000	0.485408
1767.000000	0.485144
1768.000000	0.484864
1769.000000	0.484766
1770.000000	0.484686
1771.000000	0.484462
1772.000000	0.484413
1773.000000	0.484454
1774.000000	0.484439
1775.000000	0.484617
1776.000000	0.484582
1777.000000	0.484257
1778.000000	0.484269
1779.000000	0.484379
1780.000000	0.484419
1781.000000	0.484626
1782.000000	0.484537
1783.000000	0.484236
1784.000000	0.484177
1785.000000	0.483992
1786.000000	0.484238
1787.000000	0.484631
1788.000000	0.484852
1789.000000	0.485033
1790.000000	0.484539
1791.000000	0.484294
1792.000000	0.484328
1793.000000	0.484201
1794.000000	0.484074
1795.000000	0.484145
1796.000000	0.484161
1797.000000	0.484133
1798.000000	0.484397
1799.000000	0.484419
1800.000000	0.484100
1801.000000	0.485115
1802.000000	0.484690
1803.000000	0.483111
1804.000000	0.482783
1805.000000	0.482932
1806.000000	0.482736
1807.000000	0.482625
1808.000000	0.482781
1809.000000	0.483022
1810.000000	0.482898
1811.000000	0.483024
1812.000000	0.483904
1813.000000	0.484020
1814.000000	0.483775
1815.000000	0.483528
1816.000000	0.482938
1817.000000	0.482436
1818.000000	0.481804
1819.000000	0.481507
1820.000000	0.482003
1821.000000	0.481415
1822.000000	0.481217
1823.000000	0.480991
1824.000000	0.480721
1825.000000	0.480276
1826.000000	0.480045
1827.000000	0.479665
1828.000000	0.479491
1829.000000	0.479040
1830.000000	0.478678
1831.000000	0.478074
1832.000000	0.477004
1833.000000	0.476492
1834.000000	0.476098
1835.000000	0.475677
1836.000000	0.475683
1837.000000	0.475292
1838.000000	0.474248
1839.000000	0.473607
1840.000000	0.473077
1841.000000	0.472124
1842.000000	0.471587
1843.000000	0.471212
1844.000000	0.470993
1845.000000	0.470734
1846.000000	0.470800
1847.000000	0.471385
1848.000000	0.471103
1849.000000	0.470587
1850.000000	0.469793
1851.000000	0.468801
1852.000000	0.466774
1853.000000	0.465818
1854.000000	0.465132
1855.000000	0.464203
1856.000000	0.463328
1857.000000	0.462562
1858.000000	0.461133
1859.000000	0.459130
1860.000000	0.457664
1861.000000	0.456014
1862.000000	0.454145
1863.000000	0.452593
1864.000000	0.450570
1865.000000	0.448199
1866.000000	0.445599
1867.000000	0.442868
1868.000000	0.439568
1869.000000	0.435827
1870.000000	0.431946
1871.000000	0.428673
1872.000000	0.425511
1873.000000	0.421542
1874.000000	0.417555
1875.000000	0.413247
1876.000000	0.407842
1877.000000	0.402105
1878.000000	0.397109
1879.000000	0.391109
1880.000000	0.385658
1881.000000	0.379915
1882.000000	0.373362
1883.000000	0.366850
1884.000000	0.359777
1885.000000	0.351185
1886.000000	0.343397
1887.000000	0.335717
1888.000000	0.327480
1889.000000	0.319631
1890.000000	0.311927
1891.000000	0.303932
1892.000000	0.296395
1893.000000	0.288811
1894.000000	0.281416
1895.000000	0.274478
1896.000000	0.268078
1897.000000	0.261703
1898.000000	0.255685
1899.000000	0.250426
1900.000000	0.245626
1901.000000	0.241622
1902.000000	0.238752
1903.000000	0.236794
1904.000000	0.235024
1905.000000	0.233200
1906.000000	0.231932
1907.000000	0.231016
1908.000000	0.230545
1909.000000	0.230278
1910.000000	0.231023
1911.000000	0.231657
1912.000000	0.231826
1913.000000	0.232701
1914.000000	0.233432
1915.000000	0.234779
1916.000000	0.236385
1917.000000	0.237762
1918.000000	0.239252
1919.000000	0.240942
1920.000000	0.242154
1921.000000	0.243665
1922.000000	0.244844
1923.000000	0.246158
1924.000000	0.247523
1925.000000	0.248653
1926.000000	0.250370
1927.000000	0.251784
1928.000000	0.253092
1929.000000	0.254530
1930.000000	0.255695
1931.000000	0.256252
1932.000000	0.257193
1933.000000	0.258077
1934.000000	0.258720
1935.000000	0.259901
1936.000000	0.261646
1937.000000	0.262865
1938.000000	0.264220
1939.000000	0.265173
1940.000000	0.265958
1941.000000	0.265662
1942.000000	0.265960
1943.000000	0.266286
1944.000000	0.266839
1945.000000	0.267446
1946.000000	0.267555
1947.000000	0.268222
1948.000000	0.268523
1949.000000	0.269167
1950.000000	0.270231
1951.000000	0.270738
1952.000000	0.270800
1953.000000	0.271069
1954.000000	0.271495
1955.000000	0.272026
1956.000000	0.272637
1957.000000	0.272988
1958.000000	0.272885
1959.000000	0.272468
1960.000000	0.272594
1961.000000	0.273145
1962.000000	0.273691
1963.000000	0.274675
1964.000000	0.275824
1965.000000	0.276229
1966.000000	0.276549
1967.000000	0.277207
1968.000000	0.277951
1969.000000	0.278714
1970.000000	0.279530
1971.000000	0.280279
1972.000000	0.280691
1973.000000	0.281359
1974.000000	0.282683
1975.000000	0.283442
1976.000000	0.283946
1977.000000	0.284664
1978.000000	0.285098
1979.000000	0.285848
1980.000000	0.287151
1981.000000	0.288812
1982.000000	0.290568
1983.000000	0.292540
1984.000000	0.293792
1985.000000	0.294378
1986.000000	0.295150
1987.000000	0.295763
1988.000000	0.296323
1989.000000	0.296987
1990.000000	0.298638
1991.000000	0.299937
1992.000000	0.300874
1993.000000	0.302154
1994.000000	0.303397
1995.000000	0.304389
1996.000000	0.305414
1997.000000	0.306624
1998.000000	0.307897
1999.000000	0.309214
2000.000000	0.310794
2001.000000	0.312379
2002.000000	0.313291
2003.000000	0.314347
2004.000000	0.315276
2005.000000	0.315796
2006.000000	0.317829
2007.000000	0.319643
2008.000000	0.321013
2009.000000	0.322648
2010.000000	0.324194
2011.000000	0.324807
2012.000000	0.325795
2013.000000	0.327256
2014.000000	0.327972
2015.000000	0.328197
2016.000000	0.329732
2017.000000	0.331339
2018.000000	0.332682
2019.000000	0.334671
2020.000000	0.335924
2021.000000	0.337378
2022.000000	0.338880
2023.000000	0.340245
2024.000000	0.341677
2025.000000	0.342921
2026.000000	0.343681
2027.000000	0.344539
2028.000000	0.345708
2029.000000	0.346692
2030.000000	0.347619
2031.000000	0.348549
2032.000000	0.349553
2033.000000	0.350352
2034.000000	0.351055
2035.000000	0.351751
2036.000000	0.352599
2037.000000	0.353500
2038.000000	0.354650
2039.000000	0.356278
2040.000000	0.357911
2041.000000	0.359166
2042.000000	0.360264
2043.000000	0.360950
2044.000000	0.361189
2045.000000	0.361439
2046.000000	0.361286
2047.000000	0.362035
2048.000000	0.363522
2049.000000	0.364864
2050.000000	0.366385
2051.000000	0.367380
2052.000000	0.367675
2053.000000	0.368069
2054.000000	0.368628
2055.000000	0.369448
2056.000000	0.369666
2057.000000	0.370257
2058.000000	0.370705
2059.000000	0.371077
2060.000000	0.371606
2061.000000	0.372436
2062.000000	0.373046
2063.000000	0.373823
2064.000000	0.373997
2065.000000	0.374067
2066.000000	0.374457
2067.000000	0.375102
2068.000000	0.375432
2069.000000	0.376193
2070.000000	0.376827
2071.000000	0.377032
2072.000000	0.377577
2073.000000	0.378614
2074.000000	0.379242
2075.000000	0.379840
2076.000000	0.380352
2077.000000	0.380858
2078.000000	0.381177
2079.000000	0.381672
2080.000000	0.382337
2081.000000	0.382922
2082.000000	0.383816
2083.000000	0.383978
2084.000000	0.384366
2085.000000	0.384678
2086.000000	0.384814
2087.000000	0.385867
2088.000000	0.387070
2089.000000	0.388085
2090.000000	0.389034
2091.000000	0.390313
2092.000000	0.390908
2093.000000	0.390997
2094.000000	0.391323
2095.000000	0.391392
2096.000000	0.391643
2097.000000	0.392301
2098.000000	0.392162
2099.000000	0.391580
2100.000000	0.391419
2101.000000	0.391692
2102.000000	0.392507
2103.000000	0.394314
2104.000000	0.395763
2105.000000	0.396416
2106.000000	0.396295
2107.000000	0.396658
2108.000000	0.396372
2109.000000	0.396902
2110.000000	0.397877
2111.000000	0.398687
2112.000000	0.400110
2113.000000	0.399764
2114.000000	0.400410
2115.000000	0.401119
2116.000000	0.400858
2117.000000	0.402125
2118.000000	0.402812
2119.000000	0.402880
2120.000000	0.403583
2121.000000	0.404688
2122.000000	0.405355
2123.000000	0.406222
2124.000000	0.406614
2125.000000	0.406513
2126.000000	0.406640
2127.000000	0.406698
2128.000000	0.406991
2129.000000	0.407447
2130.000000	0.407642
2131.000000	0.407457
2132.000000	0.406705
2133.000000	0.406989
2134.000000	0.407272
2135.000000	0.407613
2136.000000	0.408802
2137.000000	0.409403
2138.000000	0.409612
2139.000000	0.410042
2140.000000	0.410421
2141.000000	0.410747
2142.000000	0.411080
2143.000000	0.411002
2144.000000	0.411003
2145.000000	0.411337
2146.000000	0.411256
2147.000000	0.412757
2148.000000	0.413291
2149.000000	0.414014
2150.000000	0.415354
2151.000000	0.414180
2152.000000	0.413377
2153.000000	0.412640
2154.000000	0.412123
2155.000000	0.411289
2156.000000	0.411125
2157.000000	0.411688
2158.000000	0.411955
2159.000000	0.412486
2160.000000	0.412912
2161.000000	0.413151
2162.000000	0.413818
2163.000000	0.414347
2164.000000	0.415023
2165.000000	0.416346
2166.000000	0.417445
2167.000000	0.417430
2168.000000	0.416775
2169.000000	0.415440
2170.000000	0.413792
2171.000000	0.412905
2172.000000	0.412449
2173.000000	0.412050
2174.000000	0.411824
2175.000000	0.411681
2176.000000	0.411652
2177.000000	0.412120
2178.000000	0.413358
2179.000000	0.414431
2180.000000	0.416057
2181.000000	0.417127
2182.000000	0.417451
2183.000000	0.416716
2184.000000	0.415796
2185.000000	0.414279
2186.000000	0.412773
2187.000000	0.412143
2188.000000	0.411902
2189.000000	0.411062
2190.000000	0.410930
2191.000000	0.411173
2192.000000	0.411333
2193.000000	0.411963
2194.000000	0.412491
2195.000000	0.413773
2196.000000	0.413723
2197.000000	0.412562
2198.000000	0.411982
2199.000000	0.410182
2200.000000	0.409372
2201.000000	0.409861
2202.000000	0.409818
2203.000000	0.409270
2204.000000	0.409556
2205.000000	0.409152
2206.000000	0.409635
2207.000000	0.409883
2208.000000	0.408122
2209.000000	0.407118
2210.000000	0.406106
2211.000000	0.403938
2212.000000	0.404645
2213.000000	0.404673
2214.000000	0.405502
2215.000000	0.404306
2216.000000	0.401572
2217.000000	0.401060
2218.000000	0.399717
2219.000000	0.400076
2220.000000	0.402993
2221.000000	0.405263
2222.000000	0.408846
2223.000000	0.409924
2224.000000	0.409946
2225.000000	0.411292
2226.000000	0.408394
2227.000000	0.403627
2228.000000	0.399491
2229.000000	0.396772
2230.000000	0.396752
2231.000000	0.398901
2232.000000	0.404097
2233.000000	0.407071
2234.000000	0.407274
2235.000000	0.407678
2236.000000	0.405419
2237.000000	0.398805
2238.000000	0.395959
2239.000000	0.392451
2240.000000	0.390500
2241.000000	0.390533
2242.000000	0.390857
2243.000000	0.392328
2244.000000	0.393376
2245.000000	0.395710
2246.000000	0.396327
2247.000000	0.394361
2248.000000	0.395076
2249.000000	0.397577
2250.000000	0.398500
2251.000000	0.398457
2252.000000	0.399375
2253.000000	0.395993
2254.000000	0.393030
2255.000000	0.393457
2256.000000	0.391603
2257.000000	0.392596
2258.000000	0.394185
2259.000000	0.394022
2260.000000	0.396330
2261.000000	0.396701
2262.000000	0.396338
2263.000000	0.395450
2264.000000	0.393246
2265.000000	0.392242
2266.000000	0.390838
2267.000000	0.390122
2268.000000	0.391958
2269.000000	0.390176
2270.000000	0.385616
2271.000000	0.383489
2272.000000	0.380365
2273.000000	0.378380
2274.000000	0.379799
2275.000000	0.378323
2276.000000	0.375278
2277.000000	0.372006
2278.000000	0.367039
2279.000000	0.363760
2280.000000	0.361927
2281.000000	0.359849
2282.000000	0.358735
2283.000000	0.356493
2284.000000	0.354009
2285.000000	0.350171
2286.000000	0.346368
2287.000000	0.344184
2288.000000	0.339407
2289.000000	0.334957
2290.000000	0.332788
2291.000000	0.329557
2292.000000	0.328560
2293.000000	0.328382
2294.000000	0.326837
2295.000000	0.324845
2296.000000	0.322261
2297.000000	0.318311
2298.000000	0.316171
2299.000000	0.314324
2300.000000	0.312905
2301.000000	0.313028
2302.000000	0.310489
2303.000000	0.307309
2304.000000	0.303575
2305.000000	0.296316
2306.000000	0.293180
2307.000000	0.292376
2308.000000	0.290794
2309.000000	0.287551
2310.000000	0.285745
2311.000000	0.283662
2312.000000	0.279437
2313.000000	0.277638
2314.000000	0.280050
2315.000000	0.280064
2316.000000	0.280769
2317.000000	0.286254
2318.000000	0.288993
2319.000000	0.292018
2320.000000	0.295562
2321.000000	0.296951
2322.000000	0.298934
2323.000000	0.302271
2324.000000	0.307844
2325.000000	0.314143
2326.000000	0.319994
2327.000000	0.321983
2328.000000	0.322465
2329.000000	0.324536
2330.000000	0.326978
2331.000000	0.331115
2332.000000	0.333959
2333.000000	0.333326
2334.000000	0.330065
2335.000000	0.329460
2336.000000	0.329010
2337.000000	0.329182
2338.000000	0.331512
2339.000000	0.332261
2340.000000	0.332791
2341.000000	0.331234
2342.000000	0.327741
2343.000000	0.325003
2344.000000	0.318879
2345.000000	0.316828
2346.000000	0.319153
2347.000000	0.319463
2348.000000	0.320626
2349.000000	0.321921
2350.000000	0.319038
2351.000000	0.315385
2352.000000	0.312976
2353.000000	0.312619
2354.000000	0.314453
2355.000000	0.315520
2356.000000	0.317143
2357.000000	0.317431
2358.000000	0.316118
2359.000000	0.315961
2360.000000	0.315470
2361.000000	0.312817
2362.000000	0.310597
2363.000000	0.310503
2364.000000	0.308737
2365.000000	0.310670
2366.000000	0.317433
2367.000000	0.319323
2368.000000	0.319539
2369.000000	0.316019
2370.000000	0.306340
2371.000000	0.301021
2372.000000	0.298946
2373.000000	0.300891
2374.000000	0.305552
2375.000000	0.304324
2376.000000	0.298873
2377.000000	0.288495
2378.000000	0.278821
2379.000000	0.277399
2380.000000	0.278085
2381.000000	0.284135
2382.000000	0.287942
2383.000000	0.280483
2384.000000	0.276493
2385.000000	0.274246
2386.000000	0.272592
2387.000000	0.277093
2388.000000	0.279320
2389.000000	0.277804
2390.000000	0.274869
2391.000000	0.271237
2392.000000	0.270099
2393.000000	0.269758
2394.000000	0.267233
2395.000000	0.270692
2396.000000	0.278829
2397.000000	0.279111
2398.000000	0.280998
2399.000000	0.279439
2400.000000	0.268478
2401.000000	0.265241
2402.000000	0.268722
2403.000000	0.273129
2404.000000	0.278877
2405.000000	0.284077
2406.000000	0.281865
2407.000000	0.275885
2408.000000	0.272359
2409.000000	0.265043
2410.000000	0.256101
2411.000000	0.254838
2412.000000	0.263337
2413.000000	0.272335
2414.000000	0.281257
2415.000000	0.288910
2416.000000	0.280181
2417.000000	0.267691
2418.000000	0.264992
2419.000000	0.260145
2420.000000	0.263068
2421.000000	0.276069
2422.000000	0.278525
2423.000000	0.280975
2424.000000	0.279678
2425.000000	0.274768
2426.000000	0.279822
2427.000000	0.282625
2428.000000	0.286346
2429.000000	0.285145
2430.000000	0.279759
2431.000000	0.263422
2432.000000	0.247488
2433.000000	0.247795
2434.000000	0.238586
2435.000000	0.240512
2436.000000	0.249741
2437.000000	0.259933
2438.000000	0.276807
2439.000000	0.285455
2440.000000	0.296568
2441.000000	0.286940
2442.000000	0.268022
2443.000000	0.268444
2444.000000	0.260342
2445.000000	0.249274
2446.000000	0.248136
2447.000000	0.241352
2448.000000	0.235873
2449.000000	0.245343
2450.000000	0.258308
2451.000000	0.273465
2452.000000	0.281705
2453.000000	0.279334
2454.000000	0.272667
2455.000000	0.270079
2456.000000	0.270103
2457.000000	0.258253
2458.000000	0.238450
2459.000000	0.212241
2460.000000	0.194726
2461.000000	0.191972
2462.000000	0.206496
2463.000000	0.213399
2464.000000	0.199730
2465.000000	0.196678
2466.000000	0.193075
2467.000000	0.187565
2468.000000	0.199284
2469.000000	0.215935
2470.000000	0.209615
2471.000000	0.209920
2472.000000	0.225525
2473.000000	0.214531
2474.000000	0.220358
2475.000000	0.234590
2476.000000	0.221697
2477.000000	0.222048
2478.000000	0.219558
2479.000000	0.204476
2480.000000	0.227181
2481.000000	0.263755
2482.000000	0.294360
2483.000000	0.323786
2484.000000	0.318380
2485.000000	0.324331
2486.000000	0.326142
2487.000000	0.327561
2488.000000	0.355207
2489.000000	0.336242
2490.000000	0.300942
2491.000000	0.288783
2492.000000	0.253988
2493.000000	0.204557
2494.000000	0.172965
2495.000000	0.113557
2496.000000	0.108695
2497.000000	0.156239
2498.000000	0.172283
2499.000000	0.231654
2500.000000	0.260612
