# Wavelength	SM1200H-50_FV7-50_00001.asd.rts.txt
350.000000	0.245204
351.000000	0.237354
352.000000	0.234504
353.000000	0.234582
354.000000	0.236990
355.000000	0.239504
356.000000	0.240507
357.000000	0.240063
358.000000	0.234977
359.000000	0.236012
360.000000	0.239253
361.000000	0.238194
362.000000	0.236917
363.000000	0.237613
364.000000	0.240382
365.000000	0.243946
366.000000	0.244159
367.000000	0.241462
368.000000	0.240896
369.000000	0.241269
370.000000	0.242650
371.000000	0.245046
372.000000	0.246459
373.000000	0.246632
374.000000	0.246249
375.000000	0.245484
376.000000	0.244868
377.000000	0.244812
378.000000	0.246041
379.000000	0.246424
380.000000	0.246832
381.000000	0.249421
382.000000	0.249399
383.000000	0.249329
384.000000	0.251109
385.000000	0.251522
386.000000	0.251566
387.000000	0.251877
388.000000	0.252394
389.000000	0.252735
390.000000	0.252970
391.000000	0.253065
392.000000	0.253464
393.000000	0.254167
394.000000	0.254920
395.000000	0.254934
396.000000	0.254539
397.000000	0.254275
398.000000	0.255215
399.000000	0.256298
400.000000	0.256862
401.000000	0.256348
402.000000	0.257008
403.000000	0.257831
404.000000	0.257922
405.000000	0.258608
406.000000	0.259006
407.000000	0.258877
408.000000	0.258936
409.000000	0.259417
410.000000	0.260000
411.000000	0.259972
412.000000	0.260340
413.000000	0.260776
414.000000	0.260844
415.000000	0.261153
416.000000	0.261435
417.000000	0.261571
418.000000	0.261905
419.000000	0.262235
420.000000	0.262572
421.000000	0.263099
422.000000	0.263323
423.000000	0.263502
424.000000	0.264101
425.000000	0.264132
426.000000	0.264135
427.000000	0.264505
428.000000	0.264732
429.000000	0.264761
430.000000	0.264767
431.000000	0.265263
432.000000	0.265639
433.000000	0.265741
434.000000	0.265739
435.000000	0.265794
436.000000	0.266077
437.000000	0.266610
438.000000	0.266982
439.000000	0.267129
440.000000	0.267202
441.000000	0.267354
442.000000	0.267463
443.000000	0.267451
444.000000	0.267444
445.000000	0.267784
446.000000	0.268171
447.000000	0.268057
448.000000	0.268313
449.000000	0.268615
450.000000	0.268743
451.000000	0.269056
452.000000	0.269381
453.000000	0.269595
454.000000	0.269876
455.000000	0.270038
456.000000	0.270266
457.000000	0.270660
458.000000	0.270753
459.000000	0.270812
460.000000	0.271158
461.000000	0.271511
462.000000	0.271785
463.000000	0.271832
464.000000	0.271938
465.000000	0.272119
466.000000	0.272306
467.000000	0.272500
468.000000	0.272673
469.000000	0.272753
470.000000	0.272857
471.000000	0.272958
472.000000	0.273120
473.000000	0.273387
474.000000	0.273618
475.000000	0.273693
476.000000	0.273801
477.000000	0.274114
478.000000	0.274280
479.000000	0.274486
480.000000	0.274725
481.000000	0.274721
482.000000	0.274834
483.000000	0.275136
484.000000	0.275447
485.000000	0.275635
486.000000	0.275827
487.000000	0.275957
488.000000	0.276077
489.000000	0.276300
490.000000	0.276754
491.000000	0.276990
492.000000	0.277118
493.000000	0.277244
494.000000	0.277418
495.000000	0.277671
496.000000	0.277963
497.000000	0.278275
498.000000	0.278568
499.000000	0.278876
500.000000	0.279103
501.000000	0.279271
502.000000	0.279497
503.000000	0.279830
504.000000	0.280009
505.000000	0.280132
506.000000	0.280335
507.000000	0.280516
508.000000	0.280725
509.000000	0.280950
510.000000	0.281207
511.000000	0.281466
512.000000	0.281746
513.000000	0.282051
514.000000	0.282320
515.000000	0.282602
516.000000	0.282896
517.000000	0.283178
518.000000	0.283445
519.000000	0.283634
520.000000	0.283918
521.000000	0.284185
522.000000	0.284394
523.000000	0.284586
524.000000	0.284798
525.000000	0.285034
526.000000	0.285332
527.000000	0.285593
528.000000	0.285814
529.000000	0.286069
530.000000	0.286305
531.000000	0.286568
532.000000	0.286797
533.000000	0.287037
534.000000	0.287278
535.000000	0.287505
536.000000	0.287737
537.000000	0.287983
538.000000	0.288215
539.000000	0.288388
540.000000	0.288593
541.000000	0.288839
542.000000	0.289131
543.000000	0.289332
544.000000	0.289567
545.000000	0.289831
546.000000	0.290125
547.000000	0.290412
548.000000	0.290703
549.000000	0.290944
550.000000	0.291220
551.000000	0.291518
552.000000	0.291743
553.000000	0.291924
554.000000	0.292108
555.000000	0.292340
556.000000	0.292632
557.000000	0.292898
558.000000	0.293219
559.000000	0.293499
560.000000	0.293735
561.000000	0.294003
562.000000	0.294260
563.000000	0.294539
564.000000	0.294851
565.000000	0.295102
566.000000	0.295424
567.000000	0.295727
568.000000	0.295950
569.000000	0.296211
570.000000	0.296510
571.000000	0.296818
572.000000	0.297099
573.000000	0.297352
574.000000	0.297593
575.000000	0.297900
576.000000	0.298231
577.000000	0.298476
578.000000	0.298650
579.000000	0.298897
580.000000	0.299208
581.000000	0.299540
582.000000	0.299806
583.000000	0.300052
584.000000	0.300295
585.000000	0.300545
586.000000	0.300749
587.000000	0.300984
588.000000	0.301317
589.000000	0.301567
590.000000	0.301773
591.000000	0.301978
592.000000	0.302174
593.000000	0.302385
594.000000	0.302573
595.000000	0.302644
596.000000	0.302738
597.000000	0.302942
598.000000	0.303194
599.000000	0.303365
600.000000	0.303522
601.000000	0.303665
602.000000	0.303851
603.000000	0.304019
604.000000	0.304154
605.000000	0.304295
606.000000	0.304402
607.000000	0.304501
608.000000	0.304650
609.000000	0.304733
610.000000	0.304804
611.000000	0.304936
612.000000	0.305037
613.000000	0.305141
614.000000	0.305319
615.000000	0.305564
616.000000	0.305822
617.000000	0.306054
618.000000	0.306347
619.000000	0.306638
620.000000	0.306874
621.000000	0.307079
622.000000	0.307307
623.000000	0.307516
624.000000	0.307683
625.000000	0.307917
626.000000	0.308133
627.000000	0.308321
628.000000	0.308623
629.000000	0.308854
630.000000	0.308909
631.000000	0.309028
632.000000	0.309177
633.000000	0.309310
634.000000	0.309365
635.000000	0.309349
636.000000	0.309294
637.000000	0.309222
638.000000	0.309211
639.000000	0.309243
640.000000	0.309350
641.000000	0.309428
642.000000	0.309478
643.000000	0.309549
644.000000	0.309702
645.000000	0.309830
646.000000	0.309940
647.000000	0.310025
648.000000	0.310116
649.000000	0.310240
650.000000	0.310362
651.000000	0.310420
652.000000	0.310499
653.000000	0.310646
654.000000	0.310799
655.000000	0.310954
656.000000	0.311129
657.000000	0.311276
658.000000	0.311414
659.000000	0.311562
660.000000	0.311697
661.000000	0.311769
662.000000	0.311830
663.000000	0.311958
664.000000	0.312136
665.000000	0.312291
666.000000	0.312418
667.000000	0.312506
668.000000	0.312600
669.000000	0.312718
670.000000	0.312872
671.000000	0.313058
672.000000	0.313232
673.000000	0.313391
674.000000	0.313590
675.000000	0.313729
676.000000	0.313849
677.000000	0.314024
678.000000	0.314103
679.000000	0.314191
680.000000	0.314368
681.000000	0.314531
682.000000	0.314744
683.000000	0.314932
684.000000	0.315110
685.000000	0.315235
686.000000	0.315356
687.000000	0.315493
688.000000	0.315629
689.000000	0.315740
690.000000	0.315851
691.000000	0.315968
692.000000	0.316055
693.000000	0.316182
694.000000	0.316360
695.000000	0.316542
696.000000	0.316722
697.000000	0.316912
698.000000	0.317080
699.000000	0.317233
700.000000	0.317385
701.000000	0.317517
702.000000	0.317685
703.000000	0.317864
704.000000	0.317976
705.000000	0.318109
706.000000	0.318214
707.000000	0.318291
708.000000	0.318340
709.000000	0.318362
710.000000	0.318394
711.000000	0.318475
712.000000	0.318566
713.000000	0.318680
714.000000	0.318860
715.000000	0.319011
716.000000	0.319168
717.000000	0.319388
718.000000	0.319609
719.000000	0.319812
720.000000	0.319999
721.000000	0.320163
722.000000	0.320270
723.000000	0.320370
724.000000	0.320428
725.000000	0.320453
726.000000	0.320528
727.000000	0.320589
728.000000	0.320613
729.000000	0.320649
730.000000	0.320692
731.000000	0.320808
732.000000	0.320883
733.000000	0.320939
734.000000	0.321040
735.000000	0.321128
736.000000	0.321309
737.000000	0.321474
738.000000	0.321572
739.000000	0.321711
740.000000	0.321802
741.000000	0.321923
742.000000	0.322018
743.000000	0.322075
744.000000	0.322217
745.000000	0.322325
746.000000	0.322442
747.000000	0.322548
748.000000	0.322650
749.000000	0.322749
750.000000	0.322796
751.000000	0.322763
752.000000	0.322708
753.000000	0.322691
754.000000	0.322740
755.000000	0.322847
756.000000	0.322956
757.000000	0.322980
758.000000	0.323082
759.000000	0.323264
760.000000	0.323413
761.000000	0.323502
762.000000	0.323538
763.000000	0.323514
764.000000	0.323502
765.000000	0.323507
766.000000	0.323544
767.000000	0.323602
768.000000	0.323631
769.000000	0.323673
770.000000	0.323742
771.000000	0.323778
772.000000	0.323859
773.000000	0.323922
774.000000	0.323991
775.000000	0.324018
776.000000	0.324051
777.000000	0.324116
778.000000	0.324221
779.000000	0.324272
780.000000	0.324273
781.000000	0.324297
782.000000	0.324308
783.000000	0.324372
784.000000	0.324379
785.000000	0.324345
786.000000	0.324348
787.000000	0.324413
788.000000	0.324473
789.000000	0.324541
790.000000	0.324573
791.000000	0.324560
792.000000	0.324623
793.000000	0.324697
794.000000	0.324720
795.000000	0.324731
796.000000	0.324739
797.000000	0.324747
798.000000	0.324763
799.000000	0.324763
800.000000	0.324746
801.000000	0.324727
802.000000	0.324721
803.000000	0.324667
804.000000	0.324588
805.000000	0.324534
806.000000	0.324522
807.000000	0.324607
808.000000	0.324683
809.000000	0.324715
810.000000	0.324733
811.000000	0.324755
812.000000	0.324794
813.000000	0.324781
814.000000	0.324718
815.000000	0.324694
816.000000	0.324669
817.000000	0.324671
818.000000	0.324637
819.000000	0.324587
820.000000	0.324523
821.000000	0.324415
822.000000	0.324350
823.000000	0.324396
824.000000	0.324433
825.000000	0.324413
826.000000	0.324422
827.000000	0.324393
828.000000	0.324348
829.000000	0.324346
830.000000	0.324340
831.000000	0.324361
832.000000	0.324307
833.000000	0.324328
834.000000	0.324316
835.000000	0.324217
836.000000	0.324093
837.000000	0.323963
838.000000	0.323866
839.000000	0.323804
840.000000	0.323720
841.000000	0.323643
842.000000	0.323564
843.000000	0.323503
844.000000	0.323412
845.000000	0.323286
846.000000	0.323255
847.000000	0.323287
848.000000	0.323315
849.000000	0.323306
850.000000	0.323227
851.000000	0.323198
852.000000	0.323266
853.000000	0.323247
854.000000	0.323097
855.000000	0.322986
856.000000	0.322912
857.000000	0.322705
858.000000	0.322580
859.000000	0.322538
860.000000	0.322462
861.000000	0.322383
862.000000	0.322338
863.000000	0.322275
864.000000	0.322140
865.000000	0.321991
866.000000	0.321876
867.000000	0.321709
868.000000	0.321635
869.000000	0.321588
870.000000	0.321540
871.000000	0.321461
872.000000	0.321348
873.000000	0.321159
874.000000	0.320993
875.000000	0.320900
876.000000	0.320841
877.000000	0.320671
878.000000	0.320460
879.000000	0.320336
880.000000	0.320211
881.000000	0.320132
882.000000	0.319930
883.000000	0.319659
884.000000	0.319406
885.000000	0.319248
886.000000	0.319075
887.000000	0.318840
888.000000	0.318548
889.000000	0.318397
890.000000	0.318258
891.000000	0.318144
892.000000	0.318183
893.000000	0.318110
894.000000	0.317906
895.000000	0.317575
896.000000	0.317231
897.000000	0.316975
898.000000	0.316859
899.000000	0.316699
900.000000	0.316444
901.000000	0.316118
902.000000	0.315964
903.000000	0.315742
904.000000	0.315547
905.000000	0.315413
906.000000	0.315296
907.000000	0.315111
908.000000	0.314929
909.000000	0.314802
910.000000	0.314637
911.000000	0.314432
912.000000	0.314231
913.000000	0.314078
914.000000	0.313949
915.000000	0.313826
916.000000	0.313524
917.000000	0.313212
918.000000	0.313039
919.000000	0.312976
920.000000	0.312661
921.000000	0.312258
922.000000	0.311904
923.000000	0.311680
924.000000	0.311488
925.000000	0.311321
926.000000	0.311210
927.000000	0.311118
928.000000	0.310980
929.000000	0.310765
930.000000	0.310474
931.000000	0.310133
932.000000	0.309859
933.000000	0.309721
934.000000	0.309605
935.000000	0.309387
936.000000	0.309146
937.000000	0.308856
938.000000	0.308461
939.000000	0.308124
940.000000	0.307852
941.000000	0.307688
942.000000	0.307304
943.000000	0.306896
944.000000	0.306525
945.000000	0.306326
946.000000	0.306074
947.000000	0.305823
948.000000	0.305625
949.000000	0.305484
950.000000	0.305383
951.000000	0.305244
952.000000	0.305066
953.000000	0.304970
954.000000	0.304837
955.000000	0.304507
956.000000	0.304121
957.000000	0.303732
958.000000	0.303490
959.000000	0.303596
960.000000	0.303404
961.000000	0.303205
962.000000	0.303028
963.000000	0.302591
964.000000	0.302196
965.000000	0.301984
966.000000	0.301861
967.000000	0.301724
968.000000	0.301545
969.000000	0.301328
970.000000	0.301207
971.000000	0.300988
972.000000	0.300892
973.000000	0.300861
974.000000	0.300663
975.000000	0.300414
976.000000	0.300186
977.000000	0.299983
978.000000	0.299661
979.000000	0.299565
980.000000	0.299365
981.000000	0.299039
982.000000	0.299011
983.000000	0.298909
984.000000	0.298648
985.000000	0.298344
986.000000	0.298018
987.000000	0.297758
988.000000	0.297493
989.000000	0.297225
990.000000	0.297075
991.000000	0.296919
992.000000	0.296687
993.000000	0.296747
994.000000	0.296665
995.000000	0.296542
996.000000	0.296467
997.000000	0.296407
998.000000	0.296209
999.000000	0.295985
1000.000000	0.295988
1001.000000	0.296104
1002.000000	0.296238
1003.000000	0.295840
1004.000000	0.295588
1005.000000	0.294735
1006.000000	0.294434
1007.000000	0.294440
1008.000000	0.294854
1009.000000	0.295009
1010.000000	0.294721
1011.000000	0.294655
1012.000000	0.294743
1013.000000	0.294816
1014.000000	0.294769
1015.000000	0.294292
1016.000000	0.294138
1017.000000	0.293943
1018.000000	0.293850
1019.000000	0.293943
1020.000000	0.294726
1021.000000	0.294494
1022.000000	0.293997
1023.000000	0.293897
1024.000000	0.293394
1025.000000	0.293340
1026.000000	0.293565
1027.000000	0.293293
1028.000000	0.293053
1029.000000	0.292972
1030.000000	0.292804
1031.000000	0.292897
1032.000000	0.293256
1033.000000	0.293484
1034.000000	0.293574
1035.000000	0.293652
1036.000000	0.293634
1037.000000	0.293297
1038.000000	0.293119
1039.000000	0.293055
1040.000000	0.293190
1041.000000	0.292965
1042.000000	0.293144
1043.000000	0.293538
1044.000000	0.293648
1045.000000	0.293695
1046.000000	0.293822
1047.000000	0.294037
1048.000000	0.294015
1049.000000	0.294123
1050.000000	0.294641
1051.000000	0.294730
1052.000000	0.294427
1053.000000	0.294316
1054.000000	0.294274
1055.000000	0.294392
1056.000000	0.294621
1057.000000	0.294929
1058.000000	0.295297
1059.000000	0.295466
1060.000000	0.295766
1061.000000	0.295989
1062.000000	0.295947
1063.000000	0.296091
1064.000000	0.296244
1065.000000	0.296262
1066.000000	0.296442
1067.000000	0.296759
1068.000000	0.296969
1069.000000	0.297196
1070.000000	0.297255
1071.000000	0.297139
1072.000000	0.297280
1073.000000	0.297506
1074.000000	0.297727
1075.000000	0.298060
1076.000000	0.298539
1077.000000	0.298585
1078.000000	0.298735
1079.000000	0.298935
1080.000000	0.299184
1081.000000	0.299373
1082.000000	0.299744
1083.000000	0.299927
1084.000000	0.299982
1085.000000	0.300154
1086.000000	0.300296
1087.000000	0.300450
1088.000000	0.300480
1089.000000	0.300680
1090.000000	0.301084
1091.000000	0.301172
1092.000000	0.301331
1093.000000	0.301675
1094.000000	0.301856
1095.000000	0.301786
1096.000000	0.301985
1097.000000	0.302308
1098.000000	0.302587
1099.000000	0.302924
1100.000000	0.303148
1101.000000	0.303205
1102.000000	0.303397
1103.000000	0.303603
1104.000000	0.303762
1105.000000	0.303961
1106.000000	0.304175
1107.000000	0.304250
1108.000000	0.304367
1109.000000	0.304704
1110.000000	0.304851
1111.000000	0.305028
1112.000000	0.305121
1113.000000	0.305375
1114.000000	0.305713
1115.000000	0.305967
1116.000000	0.306352
1117.000000	0.306518
1118.000000	0.306522
1119.000000	0.306486
1120.000000	0.306227
1121.000000	0.306209
1122.000000	0.306344
1123.000000	0.306626
1124.000000	0.306943
1125.000000	0.307180
1126.000000	0.307310
1127.000000	0.307401
1128.000000	0.307451
1129.000000	0.307471
1130.000000	0.307545
1131.000000	0.307592
1132.000000	0.307689
1133.000000	0.307938
1134.000000	0.308049
1135.000000	0.308077
1136.000000	0.308102
1137.000000	0.307983
1138.000000	0.307981
1139.000000	0.308169
1140.000000	0.308313
1141.000000	0.308358
1142.000000	0.308524
1143.000000	0.308729
1144.000000	0.308932
1145.000000	0.308990
1146.000000	0.309087
1147.000000	0.309167
1148.000000	0.309059
1149.000000	0.309085
1150.000000	0.309237
1151.000000	0.309319
1152.000000	0.309253
1153.000000	0.309349
1154.000000	0.309563
1155.000000	0.309591
1156.000000	0.309567
1157.000000	0.309610
1158.000000	0.309497
1159.000000	0.309473
1160.000000	0.309600
1161.000000	0.309619
1162.000000	0.309546
1163.000000	0.309716
1164.000000	0.309856
1165.000000	0.309916
1166.000000	0.310013
1167.000000	0.310142
1168.000000	0.310124
1169.000000	0.309992
1170.000000	0.310029
1171.000000	0.310156
1172.000000	0.310208
1173.000000	0.310263
1174.000000	0.310340
1175.000000	0.310337
1176.000000	0.310309
1177.000000	0.310411
1178.000000	0.310454
1179.000000	0.310377
1180.000000	0.310329
1181.000000	0.310396
1182.000000	0.310470
1183.000000	0.310476
1184.000000	0.310563
1185.000000	0.310622
1186.000000	0.310663
1187.000000	0.310679
1188.000000	0.310700
1189.000000	0.310696
1190.000000	0.310720
1191.000000	0.310712
1192.000000	0.310811
1193.000000	0.310897
1194.000000	0.310776
1195.000000	0.310771
1196.000000	0.310781
1197.000000	0.310741
1198.000000	0.310728
1199.000000	0.310740
1200.000000	0.310727
1201.000000	0.310689
1202.000000	0.310703
1203.000000	0.310688
1204.000000	0.310622
1205.000000	0.310594
1206.000000	0.310538
1207.000000	0.310586
1208.000000	0.310534
1209.000000	0.310493
1210.000000	0.310451
1211.000000	0.310370
1212.000000	0.310312
1213.000000	0.310306
1214.000000	0.310320
1215.000000	0.310358
1216.000000	0.310326
1217.000000	0.310226
1218.000000	0.310145
1219.000000	0.309989
1220.000000	0.309995
1221.000000	0.310133
1222.000000	0.310202
1223.000000	0.310236
1224.000000	0.310278
1225.000000	0.310235
1226.000000	0.310299
1227.000000	0.310380
1228.000000	0.310430
1229.000000	0.310404
1230.000000	0.310279
1231.000000	0.310143
1232.000000	0.310018
1233.000000	0.310070
1234.000000	0.310199
1235.000000	0.310239
1236.000000	0.310279
1237.000000	0.310317
1238.000000	0.310197
1239.000000	0.310149
1240.000000	0.310145
1241.000000	0.310168
1242.000000	0.310143
1243.000000	0.310151
1244.000000	0.310131
1245.000000	0.310132
1246.000000	0.310119
1247.000000	0.310115
1248.000000	0.310082
1249.000000	0.310106
1250.000000	0.310160
1251.000000	0.310181
1252.000000	0.310202
1253.000000	0.310332
1254.000000	0.310295
1255.000000	0.310109
1256.000000	0.310034
1257.000000	0.309939
1258.000000	0.309901
1259.000000	0.309881
1260.000000	0.309937
1261.000000	0.309939
1262.000000	0.309979
1263.000000	0.310130
1264.000000	0.310222
1265.000000	0.310272
1266.000000	0.310325
1267.000000	0.310370
1268.000000	0.310382
1269.000000	0.310281
1270.000000	0.310254
1271.000000	0.310253
1272.000000	0.310181
1273.000000	0.310192
1274.000000	0.310232
1275.000000	0.310185
1276.000000	0.310043
1277.000000	0.310101
1278.000000	0.310157
1279.000000	0.310179
1280.000000	0.310249
1281.000000	0.310199
1282.000000	0.310021
1283.000000	0.310052
1284.000000	0.310125
1285.000000	0.310169
1286.000000	0.310282
1287.000000	0.310342
1288.000000	0.310251
1289.000000	0.310115
1290.000000	0.309982
1291.000000	0.309830
1292.000000	0.309798
1293.000000	0.309797
1294.000000	0.309687
1295.000000	0.309637
1296.000000	0.309556
1297.000000	0.309445
1298.000000	0.309502
1299.000000	0.309542
1300.000000	0.309566
1301.000000	0.309569
1302.000000	0.309527
1303.000000	0.309535
1304.000000	0.309503
1305.000000	0.309580
1306.000000	0.309575
1307.000000	0.309514
1308.000000	0.309539
1309.000000	0.309591
1310.000000	0.309612
1311.000000	0.309688
1312.000000	0.309717
1313.000000	0.309716
1314.000000	0.309628
1315.000000	0.309518
1316.000000	0.309541
1317.000000	0.309525
1318.000000	0.309515
1319.000000	0.309512
1320.000000	0.309566
1321.000000	0.309637
1322.000000	0.309629
1323.000000	0.309673
1324.000000	0.309667
1325.000000	0.309524
1326.000000	0.309453
1327.000000	0.309312
1328.000000	0.309189
1329.000000	0.309075
1330.000000	0.308981
1331.000000	0.308934
1332.000000	0.309027
1333.000000	0.308975
1334.000000	0.308929
1335.000000	0.308944
1336.000000	0.308885
1337.000000	0.308875
1338.000000	0.308907
1339.000000	0.308911
1340.000000	0.308796
1341.000000	0.308712
1342.000000	0.308614
1343.000000	0.308451
1344.000000	0.308379
1345.000000	0.308331
1346.000000	0.308327
1347.000000	0.308205
1348.000000	0.308065
1349.000000	0.307901
1350.000000	0.307794
1351.000000	0.307738
1352.000000	0.307646
1353.000000	0.307563
1354.000000	0.307549
1355.000000	0.307551
1356.000000	0.307592
1357.000000	0.307564
1358.000000	0.307525
1359.000000	0.307453
1360.000000	0.307391
1361.000000	0.307418
1362.000000	0.307368
1363.000000	0.307241
1364.000000	0.307146
1365.000000	0.307009
1366.000000	0.306893
1367.000000	0.306786
1368.000000	0.306658
1369.000000	0.306554
1370.000000	0.306374
1371.000000	0.306082
1372.000000	0.305806
1373.000000	0.305570
1374.000000	0.305227
1375.000000	0.304873
1376.000000	0.304521
1377.000000	0.304058
1378.000000	0.303572
1379.000000	0.303036
1380.000000	0.302403
1381.000000	0.301477
1382.000000	0.300403
1383.000000	0.299297
1384.000000	0.298005
1385.000000	0.296850
1386.000000	0.295867
1387.000000	0.294899
1388.000000	0.294078
1389.000000	0.293485
1390.000000	0.293117
1391.000000	0.292930
1392.000000	0.292916
1393.000000	0.292987
1394.000000	0.293266
1395.000000	0.293563
1396.000000	0.294013
1397.000000	0.294287
1398.000000	0.294538
1399.000000	0.294686
1400.000000	0.294698
1401.000000	0.294676
1402.000000	0.294685
1403.000000	0.294543
1404.000000	0.294274
1405.000000	0.294039
1406.000000	0.293806
1407.000000	0.293574
1408.000000	0.293405
1409.000000	0.293298
1410.000000	0.293167
1411.000000	0.293034
1412.000000	0.292943
1413.000000	0.292931
1414.000000	0.293002
1415.000000	0.293115
1416.000000	0.293218
1417.000000	0.293339
1418.000000	0.293438
1419.000000	0.293631
1420.000000	0.293783
1421.000000	0.294000
1422.000000	0.294311
1423.000000	0.294578
1424.000000	0.294768
1425.000000	0.295034
1426.000000	0.295169
1427.000000	0.295307
1428.000000	0.295503
1429.000000	0.295674
1430.000000	0.295887
1431.000000	0.296072
1432.000000	0.296252
1433.000000	0.296496
1434.000000	0.296663
1435.000000	0.296894
1436.000000	0.297038
1437.000000	0.297100
1438.000000	0.297150
1439.000000	0.297162
1440.000000	0.297213
1441.000000	0.297314
1442.000000	0.297390
1443.000000	0.297381
1444.000000	0.297450
1445.000000	0.297515
1446.000000	0.297500
1447.000000	0.297534
1448.000000	0.297535
1449.000000	0.297543
1450.000000	0.297611
1451.000000	0.297693
1452.000000	0.297790
1453.000000	0.297873
1454.000000	0.297876
1455.000000	0.297840
1456.000000	0.297891
1457.000000	0.297924
1458.000000	0.297951
1459.000000	0.298086
1460.000000	0.298116
1461.000000	0.298058
1462.000000	0.298069
1463.000000	0.297979
1464.000000	0.297903
1465.000000	0.297973
1466.000000	0.297975
1467.000000	0.298018
1468.000000	0.298165
1469.000000	0.298355
1470.000000	0.298504
1471.000000	0.298664
1472.000000	0.298823
1473.000000	0.299010
1474.000000	0.299131
1475.000000	0.299267
1476.000000	0.299387
1477.000000	0.299501
1478.000000	0.299644
1479.000000	0.299725
1480.000000	0.299810
1481.000000	0.299877
1482.000000	0.299936
1483.000000	0.300026
1484.000000	0.300146
1485.000000	0.300233
1486.000000	0.300266
1487.000000	0.300375
1488.000000	0.300541
1489.000000	0.300705
1490.000000	0.300822
1491.000000	0.300956
1492.000000	0.301006
1493.000000	0.301106
1494.000000	0.301194
1495.000000	0.301257
1496.000000	0.301337
1497.000000	0.301449
1498.000000	0.301605
1499.000000	0.301666
1500.000000	0.301730
1501.000000	0.301715
1502.000000	0.301673
1503.000000	0.301690
1504.000000	0.301733
1505.000000	0.301787
1506.000000	0.301798
1507.000000	0.301794
1508.000000	0.301865
1509.000000	0.301867
1510.000000	0.301844
1511.000000	0.301901
1512.000000	0.301884
1513.000000	0.301876
1514.000000	0.301955
1515.000000	0.301992
1516.000000	0.302101
1517.000000	0.302236
1518.000000	0.302331
1519.000000	0.302339
1520.000000	0.302355
1521.000000	0.302352
1522.000000	0.302398
1523.000000	0.302541
1524.000000	0.302573
1525.000000	0.302577
1526.000000	0.302506
1527.000000	0.302393
1528.000000	0.302415
1529.000000	0.302419
1530.000000	0.302353
1531.000000	0.302370
1532.000000	0.302348
1533.000000	0.302269
1534.000000	0.302313
1535.000000	0.302405
1536.000000	0.302364
1537.000000	0.302407
1538.000000	0.302478
1539.000000	0.302440
1540.000000	0.302525
1541.000000	0.302686
1542.000000	0.302746
1543.000000	0.302830
1544.000000	0.302921
1545.000000	0.303045
1546.000000	0.303237
1547.000000	0.303391
1548.000000	0.303490
1549.000000	0.303526
1550.000000	0.303514
1551.000000	0.303519
1552.000000	0.303566
1553.000000	0.303626
1554.000000	0.303708
1555.000000	0.303761
1556.000000	0.303783
1557.000000	0.303755
1558.000000	0.303728
1559.000000	0.303592
1560.000000	0.303537
1561.000000	0.303535
1562.000000	0.303507
1563.000000	0.303553
1564.000000	0.303541
1565.000000	0.303460
1566.000000	0.303408
1567.000000	0.303459
1568.000000	0.303457
1569.000000	0.303526
1570.000000	0.303568
1571.000000	0.303558
1572.000000	0.303562
1573.000000	0.303603
1574.000000	0.303629
1575.000000	0.303662
1576.000000	0.303680
1577.000000	0.303694
1578.000000	0.303664
1579.000000	0.303643
1580.000000	0.303608
1581.000000	0.303629
1582.000000	0.303575
1583.000000	0.303473
1584.000000	0.303354
1585.000000	0.303253
1586.000000	0.303191
1587.000000	0.303119
1588.000000	0.303075
1589.000000	0.303060
1590.000000	0.303075
1591.000000	0.303189
1592.000000	0.303241
1593.000000	0.303322
1594.000000	0.303341
1595.000000	0.303327
1596.000000	0.303316
1597.000000	0.303352
1598.000000	0.303330
1599.000000	0.303291
1600.000000	0.303234
1601.000000	0.303173
1602.000000	0.303144
1603.000000	0.303197
1604.000000	0.303186
1605.000000	0.303197
1606.000000	0.303182
1607.000000	0.303156
1608.000000	0.303107
1609.000000	0.303078
1610.000000	0.303067
1611.000000	0.303106
1612.000000	0.303085
1613.000000	0.303153
1614.000000	0.303158
1615.000000	0.303115
1616.000000	0.303161
1617.000000	0.303220
1618.000000	0.303256
1619.000000	0.303278
1620.000000	0.303321
1621.000000	0.303413
1622.000000	0.303509
1623.000000	0.303601
1624.000000	0.303637
1625.000000	0.303463
1626.000000	0.303400
1627.000000	0.303401
1628.000000	0.303409
1629.000000	0.303449
1630.000000	0.303504
1631.000000	0.303477
1632.000000	0.303475
1633.000000	0.303545
1634.000000	0.303571
1635.000000	0.303608
1636.000000	0.303615
1637.000000	0.303637
1638.000000	0.303596
1639.000000	0.303550
1640.000000	0.303526
1641.000000	0.303544
1642.000000	0.303545
1643.000000	0.303597
1644.000000	0.303607
1645.000000	0.303585
1646.000000	0.303521
1647.000000	0.303474
1648.000000	0.303379
1649.000000	0.303323
1650.000000	0.303276
1651.000000	0.303251
1652.000000	0.303235
1653.000000	0.303171
1654.000000	0.303137
1655.000000	0.303049
1656.000000	0.302949
1657.000000	0.302928
1658.000000	0.302847
1659.000000	0.302870
1660.000000	0.302864
1661.000000	0.302707
1662.000000	0.302660
1663.000000	0.302633
1664.000000	0.302553
1665.000000	0.302473
1666.000000	0.302512
1667.000000	0.302473
1668.000000	0.302507
1669.000000	0.302653
1670.000000	0.302639
1671.000000	0.302663
1672.000000	0.302701
1673.000000	0.302674
1674.000000	0.302632
1675.000000	0.302629
1676.000000	0.302639
1677.000000	0.302642
1678.000000	0.302576
1679.000000	0.302564
1680.000000	0.302517
1681.000000	0.302403
1682.000000	0.302454
1683.000000	0.302590
1684.000000	0.302644
1685.000000	0.302687
1686.000000	0.302696
1687.000000	0.302680
1688.000000	0.302645
1689.000000	0.302659
1690.000000	0.302595
1691.000000	0.302557
1692.000000	0.302503
1693.000000	0.302502
1694.000000	0.302448
1695.000000	0.302421
1696.000000	0.302413
1697.000000	0.302368
1698.000000	0.302447
1699.000000	0.302508
1700.000000	0.302510
1701.000000	0.302621
1702.000000	0.302679
1703.000000	0.302633
1704.000000	0.302600
1705.000000	0.302582
1706.000000	0.302513
1707.000000	0.302514
1708.000000	0.302592
1709.000000	0.302568
1710.000000	0.302588
1711.000000	0.302631
1712.000000	0.302696
1713.000000	0.302708
1714.000000	0.302747
1715.000000	0.302802
1716.000000	0.302857
1717.000000	0.302864
1718.000000	0.302869
1719.000000	0.302812
1720.000000	0.302708
1721.000000	0.302610
1722.000000	0.302509
1723.000000	0.302403
1724.000000	0.302248
1725.000000	0.302233
1726.000000	0.302249
1727.000000	0.302193
1728.000000	0.302124
1729.000000	0.301983
1730.000000	0.301800
1731.000000	0.301786
1732.000000	0.301933
1733.000000	0.301975
1734.000000	0.301925
1735.000000	0.301886
1736.000000	0.301687
1737.000000	0.301682
1738.000000	0.301831
1739.000000	0.301882
1740.000000	0.301981
1741.000000	0.301928
1742.000000	0.301744
1743.000000	0.301794
1744.000000	0.301878
1745.000000	0.301843
1746.000000	0.301892
1747.000000	0.301701
1748.000000	0.301520
1749.000000	0.301370
1750.000000	0.301242
1751.000000	0.301218
1752.000000	0.301289
1753.000000	0.301356
1754.000000	0.301395
1755.000000	0.301385
1756.000000	0.301381
1757.000000	0.301392
1758.000000	0.301379
1759.000000	0.301322
1760.000000	0.301288
1761.000000	0.301165
1762.000000	0.301119
1763.000000	0.301184
1764.000000	0.301194
1765.000000	0.301156
1766.000000	0.301185
1767.000000	0.301167
1768.000000	0.301114
1769.000000	0.301200
1770.000000	0.301231
1771.000000	0.301162
1772.000000	0.301090
1773.000000	0.300933
1774.000000	0.300864
1775.000000	0.300838
1776.000000	0.300850
1777.000000	0.300922
1778.000000	0.300925
1779.000000	0.300905
1780.000000	0.300879
1781.000000	0.300810
1782.000000	0.300731
1783.000000	0.300643
1784.000000	0.300732
1785.000000	0.300688
1786.000000	0.300681
1787.000000	0.300864
1788.000000	0.300893
1789.000000	0.300842
1790.000000	0.300844
1791.000000	0.300799
1792.000000	0.300811
1793.000000	0.300823
1794.000000	0.300854
1795.000000	0.300902
1796.000000	0.300982
1797.000000	0.300965
1798.000000	0.300843
1799.000000	0.300800
1800.000000	0.300800
1801.000000	0.299899
1802.000000	0.300588
1803.000000	0.301957
1804.000000	0.302463
1805.000000	0.302771
1806.000000	0.303060
1807.000000	0.302869
1808.000000	0.302810
1809.000000	0.302833
1810.000000	0.303059
1811.000000	0.302777
1812.000000	0.302073
1813.000000	0.301716
1814.000000	0.301219
1815.000000	0.300969
1816.000000	0.300849
1817.000000	0.300752
1818.000000	0.300938
1819.000000	0.301130
1820.000000	0.300862
1821.000000	0.300966
1822.000000	0.300802
1823.000000	0.300046
1824.000000	0.299862
1825.000000	0.299968
1826.000000	0.299985
1827.000000	0.300038
1828.000000	0.300173
1829.000000	0.299888
1830.000000	0.299807
1831.000000	0.299850
1832.000000	0.299774
1833.000000	0.300005
1834.000000	0.300840
1835.000000	0.301018
1836.000000	0.301010
1837.000000	0.300969
1838.000000	0.300658
1839.000000	0.300023
1840.000000	0.299049
1841.000000	0.298518
1842.000000	0.298306
1843.000000	0.297964
1844.000000	0.298149
1845.000000	0.299185
1846.000000	0.299734
1847.000000	0.300315
1848.000000	0.300549
1849.000000	0.300104
1850.000000	0.299781
1851.000000	0.299797
1852.000000	0.299551
1853.000000	0.299611
1854.000000	0.300163
1855.000000	0.300215
1856.000000	0.299969
1857.000000	0.299838
1858.000000	0.298866
1859.000000	0.298207
1860.000000	0.297970
1861.000000	0.297237
1862.000000	0.296732
1863.000000	0.296849
1864.000000	0.296553
1865.000000	0.295810
1866.000000	0.295491
1867.000000	0.295460
1868.000000	0.295253
1869.000000	0.294988
1870.000000	0.294262
1871.000000	0.293720
1872.000000	0.293364
1873.000000	0.292769
1874.000000	0.292176
1875.000000	0.291598
1876.000000	0.290736
1877.000000	0.289371
1878.000000	0.288488
1879.000000	0.287526
1880.000000	0.286194
1881.000000	0.284840
1882.000000	0.283351
1883.000000	0.281423
1884.000000	0.279760
1885.000000	0.278057
1886.000000	0.276331
1887.000000	0.274545
1888.000000	0.272701
1889.000000	0.271062
1890.000000	0.269221
1891.000000	0.267392
1892.000000	0.265389
1893.000000	0.263065
1894.000000	0.260803
1895.000000	0.258694
1896.000000	0.256645
1897.000000	0.255117
1898.000000	0.253793
1899.000000	0.252547
1900.000000	0.251034
1901.000000	0.249556
1902.000000	0.248396
1903.000000	0.247282
1904.000000	0.247077
1905.000000	0.247097
1906.000000	0.246986
1907.000000	0.246854
1908.000000	0.247286
1909.000000	0.247844
1910.000000	0.248262
1911.000000	0.248669
1912.000000	0.248827
1913.000000	0.248901
1914.000000	0.249207
1915.000000	0.249711
1916.000000	0.250784
1917.000000	0.251606
1918.000000	0.252633
1919.000000	0.253271
1920.000000	0.253971
1921.000000	0.254447
1922.000000	0.254950
1923.000000	0.255715
1924.000000	0.256334
1925.000000	0.257315
1926.000000	0.258067
1927.000000	0.258788
1928.000000	0.259474
1929.000000	0.260392
1930.000000	0.260724
1931.000000	0.260917
1932.000000	0.261279
1933.000000	0.261647
1934.000000	0.261923
1935.000000	0.262446
1936.000000	0.262751
1937.000000	0.262831
1938.000000	0.262925
1939.000000	0.263023
1940.000000	0.263006
1941.000000	0.263315
1942.000000	0.263550
1943.000000	0.263811
1944.000000	0.264320
1945.000000	0.264626
1946.000000	0.265198
1947.000000	0.265713
1948.000000	0.265925
1949.000000	0.266421
1950.000000	0.266638
1951.000000	0.266652
1952.000000	0.266536
1953.000000	0.266569
1954.000000	0.266532
1955.000000	0.266805
1956.000000	0.267273
1957.000000	0.267833
1958.000000	0.268337
1959.000000	0.268294
1960.000000	0.268130
1961.000000	0.268102
1962.000000	0.268013
1963.000000	0.267760
1964.000000	0.267869
1965.000000	0.268220
1966.000000	0.268374
1967.000000	0.268627
1968.000000	0.269100
1969.000000	0.269300
1970.000000	0.269442
1971.000000	0.269899
1972.000000	0.270231
1973.000000	0.270380
1974.000000	0.270762
1975.000000	0.270909
1976.000000	0.270735
1977.000000	0.270731
1978.000000	0.270847
1979.000000	0.270954
1980.000000	0.271322
1981.000000	0.271602
1982.000000	0.271618
1983.000000	0.271941
1984.000000	0.272202
1985.000000	0.272448
1986.000000	0.272741
1987.000000	0.273293
1988.000000	0.273530
1989.000000	0.273767
1990.000000	0.274156
1991.000000	0.274269
1992.000000	0.274432
1993.000000	0.274697
1994.000000	0.274879
1995.000000	0.274972
1996.000000	0.275408
1997.000000	0.275905
1998.000000	0.276653
1999.000000	0.277264
2000.000000	0.278094
2001.000000	0.278625
2002.000000	0.278773
2003.000000	0.278801
2004.000000	0.278623
2005.000000	0.278213
2006.000000	0.278177
2007.000000	0.278041
2008.000000	0.278223
2009.000000	0.278693
2010.000000	0.279259
2011.000000	0.280047
2012.000000	0.280653
2013.000000	0.281408
2014.000000	0.281542
2015.000000	0.281563
2016.000000	0.281451
2017.000000	0.281237
2018.000000	0.281242
2019.000000	0.281450
2020.000000	0.281471
2021.000000	0.281438
2022.000000	0.281270
2023.000000	0.281252
2024.000000	0.281062
2025.000000	0.281294
2026.000000	0.281826
2027.000000	0.282055
2028.000000	0.282412
2029.000000	0.282647
2030.000000	0.282519
2031.000000	0.282361
2032.000000	0.282080
2033.000000	0.282300
2034.000000	0.282484
2035.000000	0.283000
2036.000000	0.283165
2037.000000	0.283527
2038.000000	0.283570
2039.000000	0.283411
2040.000000	0.283230
2041.000000	0.283017
2042.000000	0.283133
2043.000000	0.283300
2044.000000	0.283464
2045.000000	0.283508
2046.000000	0.283367
2047.000000	0.283463
2048.000000	0.283561
2049.000000	0.283739
2050.000000	0.283833
2051.000000	0.283837
2052.000000	0.283415
2053.000000	0.283367
2054.000000	0.283830
2055.000000	0.284108
2056.000000	0.284357
2057.000000	0.284869
2058.000000	0.285171
2059.000000	0.285439
2060.000000	0.285565
2061.000000	0.285699
2062.000000	0.285709
2063.000000	0.285419
2064.000000	0.285317
2065.000000	0.285570
2066.000000	0.285554
2067.000000	0.285753
2068.000000	0.285980
2069.000000	0.285746
2070.000000	0.286034
2071.000000	0.286089
2072.000000	0.286039
2073.000000	0.285652
2074.000000	0.285194
2075.000000	0.285245
2076.000000	0.285513
2077.000000	0.285501
2078.000000	0.285996
2079.000000	0.285929
2080.000000	0.284970
2081.000000	0.284826
2082.000000	0.285211
2083.000000	0.285179
2084.000000	0.285354
2085.000000	0.285524
2086.000000	0.285103
2087.000000	0.285012
2088.000000	0.284975
2089.000000	0.284991
2090.000000	0.285052
2091.000000	0.285215
2092.000000	0.285380
2093.000000	0.285696
2094.000000	0.285845
2095.000000	0.286002
2096.000000	0.286242
2097.000000	0.286412
2098.000000	0.286487
2099.000000	0.286759
2100.000000	0.286301
2101.000000	0.285895
2102.000000	0.285650
2103.000000	0.285163
2104.000000	0.285087
2105.000000	0.285040
2106.000000	0.284977
2107.000000	0.285134
2108.000000	0.285663
2109.000000	0.285942
2110.000000	0.286109
2111.000000	0.286298
2112.000000	0.286410
2113.000000	0.286116
2114.000000	0.286033
2115.000000	0.285973
2116.000000	0.285942
2117.000000	0.285885
2118.000000	0.285616
2119.000000	0.285447
2120.000000	0.285222
2121.000000	0.284539
2122.000000	0.284574
2123.000000	0.285157
2124.000000	0.285257
2125.000000	0.285582
2126.000000	0.285595
2127.000000	0.285035
2128.000000	0.285090
2129.000000	0.285312
2130.000000	0.285619
2131.000000	0.285677
2132.000000	0.285564
2133.000000	0.285871
2134.000000	0.286111
2135.000000	0.286258
2136.000000	0.286562
2137.000000	0.286375
2138.000000	0.285256
2139.000000	0.284988
2140.000000	0.285112
2141.000000	0.284901
2142.000000	0.284732
2143.000000	0.284537
2144.000000	0.284375
2145.000000	0.284255
2146.000000	0.284301
2147.000000	0.284636
2148.000000	0.284866
2149.000000	0.285098
2150.000000	0.285428
2151.000000	0.285692
2152.000000	0.286257
2153.000000	0.286748
2154.000000	0.287003
2155.000000	0.287532
2156.000000	0.287661
2157.000000	0.287192
2158.000000	0.286943
2159.000000	0.286772
2160.000000	0.286716
2161.000000	0.286573
2162.000000	0.286666
2163.000000	0.286612
2164.000000	0.286776
2165.000000	0.287297
2166.000000	0.287833
2167.000000	0.287806
2168.000000	0.288078
2169.000000	0.287501
2170.000000	0.286763
2171.000000	0.286461
2172.000000	0.286347
2173.000000	0.286250
2174.000000	0.286389
2175.000000	0.286393
2176.000000	0.286458
2177.000000	0.286449
2178.000000	0.286452
2179.000000	0.286509
2180.000000	0.286386
2181.000000	0.286595
2182.000000	0.286630
2183.000000	0.286334
2184.000000	0.286178
2185.000000	0.286373
2186.000000	0.285935
2187.000000	0.286072
2188.000000	0.286038
2189.000000	0.285381
2190.000000	0.285066
2191.000000	0.284810
2192.000000	0.284337
2193.000000	0.283407
2194.000000	0.283172
2195.000000	0.283208
2196.000000	0.283432
2197.000000	0.284560
2198.000000	0.285073
2199.000000	0.285366
2200.000000	0.285685
2201.000000	0.286078
2202.000000	0.285986
2203.000000	0.285269
2204.000000	0.284590
2205.000000	0.283676
2206.000000	0.283099
2207.000000	0.282913
2208.000000	0.282934
2209.000000	0.282388
2210.000000	0.281127
2211.000000	0.280573
2212.000000	0.281337
2213.000000	0.281638
2214.000000	0.282790
2215.000000	0.283022
2216.000000	0.282520
2217.000000	0.282199
2218.000000	0.281756
2219.000000	0.281661
2220.000000	0.281531
2221.000000	0.281915
2222.000000	0.282674
2223.000000	0.283036
2224.000000	0.283625
2225.000000	0.284111
2226.000000	0.283462
2227.000000	0.283469
2228.000000	0.284040
2229.000000	0.283741
2230.000000	0.283667
2231.000000	0.283795
2232.000000	0.283095
2233.000000	0.282933
2234.000000	0.283455
2235.000000	0.284215
2236.000000	0.284425
2237.000000	0.284593
2238.000000	0.284665
2239.000000	0.284534
2240.000000	0.283816
2241.000000	0.282569
2242.000000	0.281834
2243.000000	0.280665
2244.000000	0.279956
2245.000000	0.279815
2246.000000	0.280207
2247.000000	0.280576
2248.000000	0.280750
2249.000000	0.281710
2250.000000	0.282297
2251.000000	0.281842
2252.000000	0.282699
2253.000000	0.283052
2254.000000	0.283251
2255.000000	0.283634
2256.000000	0.283817
2257.000000	0.285543
2258.000000	0.286435
2259.000000	0.286266
2260.000000	0.286112
2261.000000	0.285588
2262.000000	0.284405
2263.000000	0.283270
2264.000000	0.281898
2265.000000	0.281004
2266.000000	0.279530
2267.000000	0.278387
2268.000000	0.277758
2269.000000	0.277706
2270.000000	0.278093
2271.000000	0.278426
2272.000000	0.279796
2273.000000	0.280074
2274.000000	0.278924
2275.000000	0.278935
2276.000000	0.279656
2277.000000	0.279492
2278.000000	0.279157
2279.000000	0.278503
2280.000000	0.275996
2281.000000	0.273223
2282.000000	0.271672
2283.000000	0.270078
2284.000000	0.269442
2285.000000	0.269227
2286.000000	0.268906
2287.000000	0.268723
2288.000000	0.267708
2289.000000	0.266950
2290.000000	0.265180
2291.000000	0.264070
2292.000000	0.264905
2293.000000	0.264834
2294.000000	0.264948
2295.000000	0.266440
2296.000000	0.265719
2297.000000	0.263081
2298.000000	0.262038
2299.000000	0.260387
2300.000000	0.259782
2301.000000	0.260814
2302.000000	0.260850
2303.000000	0.261382
2304.000000	0.260267
2305.000000	0.258011
2306.000000	0.256231
2307.000000	0.253018
2308.000000	0.250763
2309.000000	0.251847
2310.000000	0.250125
2311.000000	0.250462
2312.000000	0.251356
2313.000000	0.250652
2314.000000	0.252555
2315.000000	0.252265
2316.000000	0.252331
2317.000000	0.253958
2318.000000	0.253798
2319.000000	0.255852
2320.000000	0.258354
2321.000000	0.260038
2322.000000	0.262124
2323.000000	0.262600
2324.000000	0.263643
2325.000000	0.264422
2326.000000	0.264469
2327.000000	0.266065
2328.000000	0.268178
2329.000000	0.269398
2330.000000	0.270160
2331.000000	0.270520
2332.000000	0.269814
2333.000000	0.270210
2334.000000	0.271295
2335.000000	0.272228
2336.000000	0.273209
2337.000000	0.273668
2338.000000	0.273654
2339.000000	0.273394
2340.000000	0.273093
2341.000000	0.272340
2342.000000	0.270657
2343.000000	0.269753
2344.000000	0.268877
2345.000000	0.268495
2346.000000	0.269215
2347.000000	0.268994
2348.000000	0.268803
2349.000000	0.267251
2350.000000	0.266297
2351.000000	0.266490
2352.000000	0.267650
2353.000000	0.268946
2354.000000	0.268817
2355.000000	0.268373
2356.000000	0.268310
2357.000000	0.268121
2358.000000	0.268553
2359.000000	0.269114
2360.000000	0.268467
2361.000000	0.267891
2362.000000	0.266877
2363.000000	0.266769
2364.000000	0.265905
2365.000000	0.264741
2366.000000	0.266602
2367.000000	0.265634
2368.000000	0.265236
2369.000000	0.267477
2370.000000	0.264870
2371.000000	0.264262
2372.000000	0.265992
2373.000000	0.263144
2374.000000	0.260504
2375.000000	0.259693
2376.000000	0.257956
2377.000000	0.258119
2378.000000	0.261948
2379.000000	0.263435
2380.000000	0.261710
2381.000000	0.260761
2382.000000	0.257434
2383.000000	0.254178
2384.000000	0.253644
2385.000000	0.252039
2386.000000	0.251690
2387.000000	0.251587
2388.000000	0.250848
2389.000000	0.250144
2390.000000	0.247834
2391.000000	0.247827
2392.000000	0.250128
2393.000000	0.255445
2394.000000	0.262951
2395.000000	0.267303
2396.000000	0.269650
2397.000000	0.268759
2398.000000	0.264889
2399.000000	0.260907
2400.000000	0.255383
2401.000000	0.252272
2402.000000	0.251432
2403.000000	0.251926
2404.000000	0.259263
2405.000000	0.263807
2406.000000	0.267018
2407.000000	0.276806
2408.000000	0.278152
2409.000000	0.274297
2410.000000	0.273672
2411.000000	0.264078
2412.000000	0.256937
2413.000000	0.259888
2414.000000	0.260011
2415.000000	0.261221
2416.000000	0.263721
2417.000000	0.268721
2418.000000	0.270366
2419.000000	0.270114
2420.000000	0.276650
2421.000000	0.269018
2422.000000	0.262617
2423.000000	0.269285
2424.000000	0.263651
2425.000000	0.260761
2426.000000	0.265816
2427.000000	0.261759
2428.000000	0.258791
2429.000000	0.258044
2430.000000	0.250780
2431.000000	0.241795
2432.000000	0.237161
2433.000000	0.242008
2434.000000	0.249725
2435.000000	0.253585
2436.000000	0.254660
2437.000000	0.250477
2438.000000	0.247041
2439.000000	0.250667
2440.000000	0.255205
2441.000000	0.256311
2442.000000	0.255677
2443.000000	0.256863
2444.000000	0.258233
2445.000000	0.260600
2446.000000	0.261940
2447.000000	0.253285
2448.000000	0.248213
2449.000000	0.245492
2450.000000	0.241359
2451.000000	0.251591
2452.000000	0.256780
2453.000000	0.253162
2454.000000	0.256438
2455.000000	0.247334
2456.000000	0.234553
2457.000000	0.235232
2458.000000	0.237144
2459.000000	0.244996
2460.000000	0.249341
2461.000000	0.250014
2462.000000	0.246804
2463.000000	0.230252
2464.000000	0.228073
2465.000000	0.229556
2466.000000	0.232934
2467.000000	0.248198
2468.000000	0.250963
2469.000000	0.244387
2470.000000	0.236798
2471.000000	0.226922
2472.000000	0.218946
2473.000000	0.232151
2474.000000	0.248798
2475.000000	0.259013
2476.000000	0.281416
2477.000000	0.274522
2478.000000	0.244684
2479.000000	0.225574
2480.000000	0.210672
2481.000000	0.217294
2482.000000	0.246557
2483.000000	0.265870
2484.000000	0.264461
2485.000000	0.271477
2486.000000	0.282424
2487.000000	0.281083
2488.000000	0.299075
2489.000000	0.293680
2490.000000	0.266741
2491.000000	0.273225
2492.000000	0.259128
2493.000000	0.245773
2494.000000	0.238487
2495.000000	0.207581
2496.000000	0.193307
2497.000000	0.181018
2498.000000	0.191068
2499.000000	0.248473
2500.000000	0.292653
