# Wavelength	SM1200H-50_HEX-30_FV7-20_00001.asd.rts.txt
350.000000	0.332094
351.000000	0.376684
352.000000	0.362017
353.000000	0.336906
354.000000	0.337297
355.000000	0.359738
356.000000	0.364916
357.000000	0.353980
358.000000	0.348831
359.000000	0.345645
360.000000	0.344668
361.000000	0.345625
362.000000	0.346233
363.000000	0.347962
364.000000	0.350570
365.000000	0.352382
366.000000	0.351009
367.000000	0.347385
368.000000	0.346323
369.000000	0.343759
370.000000	0.341521
371.000000	0.342753
372.000000	0.347507
373.000000	0.352281
374.000000	0.355202
375.000000	0.356353
376.000000	0.355486
377.000000	0.354916
378.000000	0.360461
379.000000	0.360451
380.000000	0.357160
381.000000	0.357846
382.000000	0.357348
383.000000	0.356704
384.000000	0.356843
385.000000	0.354365
386.000000	0.356236
387.000000	0.361552
388.000000	0.360279
389.000000	0.359043
390.000000	0.359197
391.000000	0.359902
392.000000	0.359948
393.000000	0.360717
394.000000	0.362745
395.000000	0.362697
396.000000	0.362375
397.000000	0.362762
398.000000	0.364052
399.000000	0.365641
400.000000	0.367134
401.000000	0.367944
402.000000	0.366547
403.000000	0.365850
404.000000	0.367962
405.000000	0.367639
406.000000	0.367518
407.000000	0.368536
408.000000	0.368077
409.000000	0.367903
410.000000	0.368749
411.000000	0.370771
412.000000	0.370713
413.000000	0.370288
414.000000	0.371629
415.000000	0.371956
416.000000	0.371869
417.000000	0.372070
418.000000	0.373069
419.000000	0.373550
420.000000	0.373559
421.000000	0.374295
422.000000	0.374493
423.000000	0.374358
424.000000	0.374640
425.000000	0.375403
426.000000	0.375878
427.000000	0.375710
428.000000	0.376246
429.000000	0.376549
430.000000	0.376530
431.000000	0.377306
432.000000	0.377343
433.000000	0.377081
434.000000	0.377933
435.000000	0.378266
436.000000	0.378385
437.000000	0.378793
438.000000	0.379344
439.000000	0.379494
440.000000	0.379297
441.000000	0.379432
442.000000	0.379784
443.000000	0.380174
444.000000	0.380583
445.000000	0.380861
446.000000	0.381258
447.000000	0.381753
448.000000	0.381736
449.000000	0.381903
450.000000	0.382598
451.000000	0.382775
452.000000	0.382959
453.000000	0.383201
454.000000	0.383357
455.000000	0.383754
456.000000	0.384422
457.000000	0.384959
458.000000	0.385059
459.000000	0.385196
460.000000	0.385771
461.000000	0.385820
462.000000	0.386084
463.000000	0.386578
464.000000	0.386752
465.000000	0.386849
466.000000	0.386931
467.000000	0.387181
468.000000	0.387416
469.000000	0.387545
470.000000	0.387778
471.000000	0.388210
472.000000	0.388461
473.000000	0.388402
474.000000	0.388447
475.000000	0.388523
476.000000	0.388846
477.000000	0.389459
478.000000	0.389562
479.000000	0.389553
480.000000	0.389768
481.000000	0.389929
482.000000	0.390275
483.000000	0.390663
484.000000	0.390962
485.000000	0.391089
486.000000	0.391326
487.000000	0.391760
488.000000	0.392032
489.000000	0.392149
490.000000	0.392330
491.000000	0.392671
492.000000	0.393127
493.000000	0.393417
494.000000	0.393758
495.000000	0.394099
496.000000	0.394388
497.000000	0.394979
498.000000	0.395297
499.000000	0.395342
500.000000	0.395492
501.000000	0.395816
502.000000	0.396220
503.000000	0.396391
504.000000	0.396630
505.000000	0.396914
506.000000	0.397189
507.000000	0.397529
508.000000	0.397916
509.000000	0.398275
510.000000	0.398656
511.000000	0.398935
512.000000	0.399187
513.000000	0.399569
514.000000	0.399956
515.000000	0.400301
516.000000	0.400500
517.000000	0.400761
518.000000	0.401094
519.000000	0.401369
520.000000	0.401706
521.000000	0.402076
522.000000	0.402442
523.000000	0.402711
524.000000	0.402971
525.000000	0.403280
526.000000	0.403752
527.000000	0.404138
528.000000	0.404316
529.000000	0.404360
530.000000	0.404675
531.000000	0.405115
532.000000	0.405414
533.000000	0.405628
534.000000	0.405853
535.000000	0.406132
536.000000	0.406522
537.000000	0.406835
538.000000	0.407083
539.000000	0.407339
540.000000	0.407607
541.000000	0.407860
542.000000	0.408128
543.000000	0.408417
544.000000	0.408748
545.000000	0.409029
546.000000	0.409306
547.000000	0.409555
548.000000	0.409852
549.000000	0.410213
550.000000	0.410607
551.000000	0.411002
552.000000	0.411303
553.000000	0.411655
554.000000	0.411968
555.000000	0.412217
556.000000	0.412629
557.000000	0.412935
558.000000	0.413243
559.000000	0.413621
560.000000	0.413913
561.000000	0.414217
562.000000	0.414526
563.000000	0.414789
564.000000	0.415082
565.000000	0.415339
566.000000	0.415695
567.000000	0.416033
568.000000	0.416278
569.000000	0.416616
570.000000	0.416953
571.000000	0.417274
572.000000	0.417669
573.000000	0.418019
574.000000	0.418282
575.000000	0.418545
576.000000	0.418893
577.000000	0.419206
578.000000	0.419471
579.000000	0.419724
580.000000	0.419983
581.000000	0.420272
582.000000	0.420649
583.000000	0.420991
584.000000	0.421301
585.000000	0.421655
586.000000	0.421952
587.000000	0.422233
588.000000	0.422553
589.000000	0.422796
590.000000	0.423000
591.000000	0.423214
592.000000	0.423499
593.000000	0.423803
594.000000	0.424101
595.000000	0.424401
596.000000	0.424609
597.000000	0.424808
598.000000	0.425001
599.000000	0.425186
600.000000	0.425408
601.000000	0.425607
602.000000	0.425938
603.000000	0.426167
604.000000	0.426263
605.000000	0.426523
606.000000	0.426725
607.000000	0.426833
608.000000	0.426912
609.000000	0.427010
610.000000	0.427157
611.000000	0.427364
612.000000	0.427556
613.000000	0.427749
614.000000	0.428003
615.000000	0.428256
616.000000	0.428438
617.000000	0.428518
618.000000	0.428661
619.000000	0.428828
620.000000	0.428965
621.000000	0.429099
622.000000	0.429204
623.000000	0.429290
624.000000	0.429377
625.000000	0.429486
626.000000	0.429625
627.000000	0.429794
628.000000	0.429976
629.000000	0.430233
630.000000	0.430399
631.000000	0.430594
632.000000	0.430733
633.000000	0.430888
634.000000	0.431093
635.000000	0.431179
636.000000	0.431300
637.000000	0.431485
638.000000	0.431555
639.000000	0.431636
640.000000	0.431776
641.000000	0.431728
642.000000	0.431813
643.000000	0.431994
644.000000	0.432140
645.000000	0.432324
646.000000	0.432525
647.000000	0.432693
648.000000	0.432882
649.000000	0.433095
650.000000	0.433284
651.000000	0.433420
652.000000	0.433508
653.000000	0.433620
654.000000	0.433733
655.000000	0.433880
656.000000	0.434051
657.000000	0.434157
658.000000	0.434292
659.000000	0.434443
660.000000	0.434571
661.000000	0.434665
662.000000	0.434789
663.000000	0.434991
664.000000	0.435150
665.000000	0.435309
666.000000	0.435454
667.000000	0.435542
668.000000	0.435738
669.000000	0.435907
670.000000	0.436003
671.000000	0.436186
672.000000	0.436410
673.000000	0.436640
674.000000	0.436876
675.000000	0.437044
676.000000	0.437175
677.000000	0.437349
678.000000	0.437511
679.000000	0.437669
680.000000	0.437828
681.000000	0.437895
682.000000	0.438057
683.000000	0.438248
684.000000	0.438477
685.000000	0.438669
686.000000	0.438818
687.000000	0.438882
688.000000	0.439042
689.000000	0.439223
690.000000	0.439398
691.000000	0.439583
692.000000	0.439754
693.000000	0.439956
694.000000	0.440041
695.000000	0.440102
696.000000	0.440193
697.000000	0.440354
698.000000	0.440506
699.000000	0.440624
700.000000	0.440717
701.000000	0.440815
702.000000	0.440995
703.000000	0.441198
704.000000	0.441245
705.000000	0.441318
706.000000	0.441426
707.000000	0.441637
708.000000	0.441855
709.000000	0.442028
710.000000	0.442163
711.000000	0.442299
712.000000	0.442428
713.000000	0.442581
714.000000	0.442752
715.000000	0.442925
716.000000	0.443083
717.000000	0.443178
718.000000	0.443298
719.000000	0.443414
720.000000	0.443517
721.000000	0.443659
722.000000	0.443740
723.000000	0.443827
724.000000	0.443965
725.000000	0.444070
726.000000	0.444239
727.000000	0.444394
728.000000	0.444452
729.000000	0.444559
730.000000	0.444742
731.000000	0.444870
732.000000	0.445024
733.000000	0.445240
734.000000	0.445323
735.000000	0.445344
736.000000	0.445480
737.000000	0.445578
738.000000	0.445561
739.000000	0.445588
740.000000	0.445556
741.000000	0.445606
742.000000	0.445699
743.000000	0.445768
744.000000	0.445845
745.000000	0.445961
746.000000	0.446123
747.000000	0.446185
748.000000	0.446255
749.000000	0.446342
750.000000	0.446393
751.000000	0.446424
752.000000	0.446493
753.000000	0.446599
754.000000	0.446649
755.000000	0.446752
756.000000	0.446862
757.000000	0.446843
758.000000	0.446819
759.000000	0.446878
760.000000	0.446962
761.000000	0.447152
762.000000	0.447294
763.000000	0.447349
764.000000	0.447463
765.000000	0.447534
766.000000	0.447587
767.000000	0.447666
768.000000	0.447835
769.000000	0.447916
770.000000	0.447872
771.000000	0.447851
772.000000	0.447898
773.000000	0.447954
774.000000	0.448090
775.000000	0.448179
776.000000	0.448242
777.000000	0.448281
778.000000	0.448306
779.000000	0.448293
780.000000	0.448289
781.000000	0.448376
782.000000	0.448355
783.000000	0.448396
784.000000	0.448460
785.000000	0.448497
786.000000	0.448528
787.000000	0.448550
788.000000	0.448514
789.000000	0.448540
790.000000	0.448601
791.000000	0.448656
792.000000	0.448688
793.000000	0.448702
794.000000	0.448702
795.000000	0.448606
796.000000	0.448553
797.000000	0.448586
798.000000	0.448662
799.000000	0.448747
800.000000	0.448811
801.000000	0.448833
802.000000	0.448803
803.000000	0.448796
804.000000	0.448873
805.000000	0.448861
806.000000	0.448836
807.000000	0.448880
808.000000	0.448864
809.000000	0.448855
810.000000	0.448842
811.000000	0.448800
812.000000	0.448769
813.000000	0.448798
814.000000	0.448865
815.000000	0.448911
816.000000	0.448900
817.000000	0.448879
818.000000	0.448789
819.000000	0.448712
820.000000	0.448763
821.000000	0.448852
822.000000	0.448810
823.000000	0.448751
824.000000	0.448640
825.000000	0.448570
826.000000	0.448502
827.000000	0.448468
828.000000	0.448533
829.000000	0.448606
830.000000	0.448605
831.000000	0.448570
832.000000	0.448384
833.000000	0.448260
834.000000	0.448188
835.000000	0.448170
836.000000	0.448155
837.000000	0.448100
838.000000	0.448041
839.000000	0.448011
840.000000	0.447993
841.000000	0.447985
842.000000	0.447935
843.000000	0.447896
844.000000	0.447851
845.000000	0.447789
846.000000	0.447821
847.000000	0.447946
848.000000	0.447985
849.000000	0.447839
850.000000	0.447735
851.000000	0.447652
852.000000	0.447624
853.000000	0.447616
854.000000	0.447546
855.000000	0.447497
856.000000	0.447345
857.000000	0.447258
858.000000	0.447199
859.000000	0.447050
860.000000	0.446929
861.000000	0.446832
862.000000	0.446815
863.000000	0.446808
864.000000	0.446664
865.000000	0.446493
866.000000	0.446405
867.000000	0.446351
868.000000	0.446299
869.000000	0.446165
870.000000	0.446023
871.000000	0.445886
872.000000	0.445709
873.000000	0.445444
874.000000	0.445367
875.000000	0.445317
876.000000	0.445233
877.000000	0.445019
878.000000	0.444919
879.000000	0.444862
880.000000	0.444622
881.000000	0.444476
882.000000	0.444291
883.000000	0.444089
884.000000	0.443857
885.000000	0.443686
886.000000	0.443529
887.000000	0.443390
888.000000	0.443262
889.000000	0.443201
890.000000	0.443016
891.000000	0.442781
892.000000	0.442497
893.000000	0.442298
894.000000	0.442308
895.000000	0.442042
896.000000	0.441767
897.000000	0.441550
898.000000	0.441399
899.000000	0.441365
900.000000	0.441248
901.000000	0.440990
902.000000	0.440948
903.000000	0.440878
904.000000	0.440706
905.000000	0.440338
906.000000	0.440322
907.000000	0.440305
908.000000	0.440167
909.000000	0.439827
910.000000	0.439586
911.000000	0.439391
912.000000	0.439168
913.000000	0.438964
914.000000	0.438839
915.000000	0.438806
916.000000	0.438608
917.000000	0.438387
918.000000	0.438181
919.000000	0.437962
920.000000	0.437707
921.000000	0.437472
922.000000	0.437280
923.000000	0.437084
924.000000	0.436842
925.000000	0.436422
926.000000	0.435945
927.000000	0.435808
928.000000	0.435636
929.000000	0.435359
930.000000	0.435045
931.000000	0.434849
932.000000	0.434525
933.000000	0.434150
934.000000	0.434012
935.000000	0.433852
936.000000	0.433618
937.000000	0.433188
938.000000	0.432703
939.000000	0.432467
940.000000	0.432373
941.000000	0.432263
942.000000	0.431856
943.000000	0.431543
944.000000	0.431291
945.000000	0.430754
946.000000	0.430226
947.000000	0.429907
948.000000	0.429784
949.000000	0.429601
950.000000	0.429415
951.000000	0.429208
952.000000	0.429049
953.000000	0.428858
954.000000	0.428687
955.000000	0.428499
956.000000	0.428390
957.000000	0.428176
958.000000	0.427798
959.000000	0.427458
960.000000	0.427260
961.000000	0.427050
962.000000	0.426746
963.000000	0.426451
964.000000	0.426131
965.000000	0.425958
966.000000	0.425832
967.000000	0.425490
968.000000	0.425157
969.000000	0.424841
970.000000	0.424628
971.000000	0.424500
972.000000	0.424402
973.000000	0.424191
974.000000	0.423918
975.000000	0.423793
976.000000	0.423690
977.000000	0.423492
978.000000	0.423366
979.000000	0.423592
980.000000	0.423579
981.000000	0.423166
982.000000	0.422647
983.000000	0.422321
984.000000	0.422259
985.000000	0.422075
986.000000	0.421875
987.000000	0.421784
988.000000	0.421650
989.000000	0.421257
990.000000	0.421282
991.000000	0.421306
992.000000	0.420881
993.000000	0.421055
994.000000	0.421011
995.000000	0.420745
996.000000	0.420363
997.000000	0.420247
998.000000	0.420149
999.000000	0.419999
1000.000000	0.419755
1001.000000	0.419746
1002.000000	0.420347
1003.000000	0.419810
1004.000000	0.419340
1005.000000	0.418115
1006.000000	0.417461
1007.000000	0.416810
1008.000000	0.416855
1009.000000	0.417050
1010.000000	0.416470
1011.000000	0.415930
1012.000000	0.415480
1013.000000	0.415385
1014.000000	0.415148
1015.000000	0.414830
1016.000000	0.415420
1017.000000	0.415448
1018.000000	0.415512
1019.000000	0.415828
1020.000000	0.416780
1021.000000	0.416737
1022.000000	0.416574
1023.000000	0.416842
1024.000000	0.416807
1025.000000	0.417152
1026.000000	0.417119
1027.000000	0.416488
1028.000000	0.415880
1029.000000	0.415408
1030.000000	0.415458
1031.000000	0.415911
1032.000000	0.416652
1033.000000	0.416841
1034.000000	0.416732
1035.000000	0.416044
1036.000000	0.416273
1037.000000	0.416570
1038.000000	0.416605
1039.000000	0.417234
1040.000000	0.417996
1041.000000	0.417271
1042.000000	0.416904
1043.000000	0.417186
1044.000000	0.416820
1045.000000	0.416864
1046.000000	0.417411
1047.000000	0.417652
1048.000000	0.417795
1049.000000	0.417837
1050.000000	0.417676
1051.000000	0.417856
1052.000000	0.417920
1053.000000	0.418197
1054.000000	0.419570
1055.000000	0.419896
1056.000000	0.419634
1057.000000	0.419800
1058.000000	0.419544
1059.000000	0.418352
1060.000000	0.418164
1061.000000	0.418775
1062.000000	0.419170
1063.000000	0.419715
1064.000000	0.420131
1065.000000	0.420455
1066.000000	0.420683
1067.000000	0.420955
1068.000000	0.420910
1069.000000	0.420127
1070.000000	0.420161
1071.000000	0.420578
1072.000000	0.420858
1073.000000	0.421588
1074.000000	0.422525
1075.000000	0.422764
1076.000000	0.422603
1077.000000	0.422168
1078.000000	0.421948
1079.000000	0.422146
1080.000000	0.422656
1081.000000	0.422945
1082.000000	0.423889
1083.000000	0.424098
1084.000000	0.423648
1085.000000	0.423632
1086.000000	0.423487
1087.000000	0.423589
1088.000000	0.423898
1089.000000	0.424059
1090.000000	0.424126
1091.000000	0.424302
1092.000000	0.424584
1093.000000	0.424975
1094.000000	0.425130
1095.000000	0.425179
1096.000000	0.425345
1097.000000	0.425377
1098.000000	0.425509
1099.000000	0.425716
1100.000000	0.426028
1101.000000	0.426447
1102.000000	0.426512
1103.000000	0.426347
1104.000000	0.426455
1105.000000	0.426373
1106.000000	0.426399
1107.000000	0.426547
1108.000000	0.426848
1109.000000	0.427279
1110.000000	0.427773
1111.000000	0.428051
1112.000000	0.428558
1113.000000	0.428710
1114.000000	0.428374
1115.000000	0.428456
1116.000000	0.428703
1117.000000	0.428850
1118.000000	0.429042
1119.000000	0.429142
1120.000000	0.429148
1121.000000	0.429210
1122.000000	0.429406
1123.000000	0.429786
1124.000000	0.429875
1125.000000	0.430140
1126.000000	0.430718
1127.000000	0.430810
1128.000000	0.430707
1129.000000	0.430423
1130.000000	0.430444
1131.000000	0.430325
1132.000000	0.430212
1133.000000	0.430503
1134.000000	0.430483
1135.000000	0.429864
1136.000000	0.429832
1137.000000	0.430167
1138.000000	0.430223
1139.000000	0.430519
1140.000000	0.430769
1141.000000	0.430828
1142.000000	0.430870
1143.000000	0.430762
1144.000000	0.430913
1145.000000	0.430862
1146.000000	0.430781
1147.000000	0.430800
1148.000000	0.430903
1149.000000	0.430855
1150.000000	0.430753
1151.000000	0.430687
1152.000000	0.430484
1153.000000	0.430382
1154.000000	0.430185
1155.000000	0.430164
1156.000000	0.430390
1157.000000	0.430372
1158.000000	0.430177
1159.000000	0.430152
1160.000000	0.430048
1161.000000	0.429953
1162.000000	0.429948
1163.000000	0.430355
1164.000000	0.430458
1165.000000	0.430477
1166.000000	0.430563
1167.000000	0.430702
1168.000000	0.430608
1169.000000	0.430345
1170.000000	0.430348
1171.000000	0.430436
1172.000000	0.430487
1173.000000	0.430651
1174.000000	0.430705
1175.000000	0.430576
1176.000000	0.430482
1177.000000	0.430472
1178.000000	0.430538
1179.000000	0.430736
1180.000000	0.430676
1181.000000	0.430719
1182.000000	0.430587
1183.000000	0.430463
1184.000000	0.430346
1185.000000	0.430291
1186.000000	0.430393
1187.000000	0.430362
1188.000000	0.430253
1189.000000	0.430134
1190.000000	0.430041
1191.000000	0.429955
1192.000000	0.429983
1193.000000	0.430118
1194.000000	0.430169
1195.000000	0.430227
1196.000000	0.430251
1197.000000	0.430237
1198.000000	0.430182
1199.000000	0.430188
1200.000000	0.430180
1201.000000	0.430221
1202.000000	0.430225
1203.000000	0.430321
1204.000000	0.430370
1205.000000	0.430359
1206.000000	0.430325
1207.000000	0.430399
1208.000000	0.430387
1209.000000	0.430412
1210.000000	0.430388
1211.000000	0.430310
1212.000000	0.430292
1213.000000	0.430324
1214.000000	0.430361
1215.000000	0.430450
1216.000000	0.430463
1217.000000	0.430368
1218.000000	0.430298
1219.000000	0.430215
1220.000000	0.430245
1221.000000	0.430283
1222.000000	0.430331
1223.000000	0.430458
1224.000000	0.430370
1225.000000	0.430161
1226.000000	0.430146
1227.000000	0.430109
1228.000000	0.430128
1229.000000	0.430080
1230.000000	0.430017
1231.000000	0.429931
1232.000000	0.429935
1233.000000	0.430052
1234.000000	0.430267
1235.000000	0.430350
1236.000000	0.430361
1237.000000	0.430321
1238.000000	0.430057
1239.000000	0.429922
1240.000000	0.429774
1241.000000	0.429604
1242.000000	0.429708
1243.000000	0.429725
1244.000000	0.429608
1245.000000	0.429825
1246.000000	0.430027
1247.000000	0.430184
1248.000000	0.430361
1249.000000	0.430321
1250.000000	0.430081
1251.000000	0.429961
1252.000000	0.429869
1253.000000	0.429869
1254.000000	0.429844
1255.000000	0.429865
1256.000000	0.429823
1257.000000	0.429772
1258.000000	0.429820
1259.000000	0.429813
1260.000000	0.429827
1261.000000	0.429784
1262.000000	0.429804
1263.000000	0.429872
1264.000000	0.429899
1265.000000	0.429949
1266.000000	0.430003
1267.000000	0.429976
1268.000000	0.429904
1269.000000	0.429948
1270.000000	0.430095
1271.000000	0.430138
1272.000000	0.430225
1273.000000	0.430263
1274.000000	0.430154
1275.000000	0.430053
1276.000000	0.429931
1277.000000	0.429921
1278.000000	0.429832
1279.000000	0.429757
1280.000000	0.429589
1281.000000	0.429501
1282.000000	0.429508
1283.000000	0.429533
1284.000000	0.429574
1285.000000	0.429584
1286.000000	0.429524
1287.000000	0.429453
1288.000000	0.429474
1289.000000	0.429545
1290.000000	0.429317
1291.000000	0.429102
1292.000000	0.429036
1293.000000	0.428779
1294.000000	0.428731
1295.000000	0.428887
1296.000000	0.428711
1297.000000	0.428544
1298.000000	0.428513
1299.000000	0.428378
1300.000000	0.428514
1301.000000	0.428705
1302.000000	0.428646
1303.000000	0.428656
1304.000000	0.428546
1305.000000	0.428261
1306.000000	0.428124
1307.000000	0.428152
1308.000000	0.428172
1309.000000	0.428293
1310.000000	0.428305
1311.000000	0.428376
1312.000000	0.428145
1313.000000	0.427974
1314.000000	0.427882
1315.000000	0.427730
1316.000000	0.427765
1317.000000	0.427661
1318.000000	0.427335
1319.000000	0.427076
1320.000000	0.426842
1321.000000	0.426534
1322.000000	0.426376
1323.000000	0.426333
1324.000000	0.426312
1325.000000	0.426157
1326.000000	0.425833
1327.000000	0.425465
1328.000000	0.425103
1329.000000	0.424795
1330.000000	0.424690
1331.000000	0.424469
1332.000000	0.424244
1333.000000	0.424075
1334.000000	0.423983
1335.000000	0.423949
1336.000000	0.424058
1337.000000	0.423974
1338.000000	0.423735
1339.000000	0.423492
1340.000000	0.423271
1341.000000	0.423036
1342.000000	0.422956
1343.000000	0.422875
1344.000000	0.422762
1345.000000	0.422566
1346.000000	0.422270
1347.000000	0.421940
1348.000000	0.421636
1349.000000	0.421287
1350.000000	0.421271
1351.000000	0.421233
1352.000000	0.420962
1353.000000	0.420740
1354.000000	0.420482
1355.000000	0.420180
1356.000000	0.420122
1357.000000	0.419974
1358.000000	0.419693
1359.000000	0.419313
1360.000000	0.418890
1361.000000	0.418272
1362.000000	0.417914
1363.000000	0.417709
1364.000000	0.417448
1365.000000	0.417275
1366.000000	0.417001
1367.000000	0.416679
1368.000000	0.416148
1369.000000	0.415833
1370.000000	0.415387
1371.000000	0.414823
1372.000000	0.414233
1373.000000	0.413555
1374.000000	0.412910
1375.000000	0.412062
1376.000000	0.411040
1377.000000	0.409757
1378.000000	0.408020
1379.000000	0.405940
1380.000000	0.403655
1381.000000	0.400966
1382.000000	0.398105
1383.000000	0.395304
1384.000000	0.392211
1385.000000	0.389132
1386.000000	0.386343
1387.000000	0.383816
1388.000000	0.381672
1389.000000	0.379989
1390.000000	0.378759
1391.000000	0.377886
1392.000000	0.377502
1393.000000	0.377354
1394.000000	0.377827
1395.000000	0.378070
1396.000000	0.378597
1397.000000	0.378696
1398.000000	0.378635
1399.000000	0.378368
1400.000000	0.377868
1401.000000	0.377177
1402.000000	0.376346
1403.000000	0.375369
1404.000000	0.374335
1405.000000	0.373209
1406.000000	0.372104
1407.000000	0.371004
1408.000000	0.369819
1409.000000	0.368814
1410.000000	0.367971
1411.000000	0.367162
1412.000000	0.366405
1413.000000	0.365669
1414.000000	0.365028
1415.000000	0.364567
1416.000000	0.364128
1417.000000	0.363741
1418.000000	0.363338
1419.000000	0.362907
1420.000000	0.362486
1421.000000	0.362278
1422.000000	0.362040
1423.000000	0.361859
1424.000000	0.361627
1425.000000	0.361357
1426.000000	0.361150
1427.000000	0.360934
1428.000000	0.360726
1429.000000	0.360621
1430.000000	0.360429
1431.000000	0.360209
1432.000000	0.360025
1433.000000	0.359881
1434.000000	0.359715
1435.000000	0.359697
1436.000000	0.359545
1437.000000	0.359388
1438.000000	0.359131
1439.000000	0.358764
1440.000000	0.358490
1441.000000	0.358191
1442.000000	0.357953
1443.000000	0.357682
1444.000000	0.357533
1445.000000	0.357336
1446.000000	0.357154
1447.000000	0.357032
1448.000000	0.356785
1449.000000	0.356528
1450.000000	0.356340
1451.000000	0.356102
1452.000000	0.355818
1453.000000	0.355584
1454.000000	0.355274
1455.000000	0.354877
1456.000000	0.354630
1457.000000	0.354430
1458.000000	0.354236
1459.000000	0.354139
1460.000000	0.354011
1461.000000	0.353905
1462.000000	0.353816
1463.000000	0.353595
1464.000000	0.353567
1465.000000	0.353715
1466.000000	0.353844
1467.000000	0.354122
1468.000000	0.354277
1469.000000	0.354484
1470.000000	0.354687
1471.000000	0.354813
1472.000000	0.355024
1473.000000	0.355324
1474.000000	0.355744
1475.000000	0.356234
1476.000000	0.356639
1477.000000	0.357116
1478.000000	0.357558
1479.000000	0.357935
1480.000000	0.358473
1481.000000	0.358960
1482.000000	0.359492
1483.000000	0.359981
1484.000000	0.360486
1485.000000	0.360935
1486.000000	0.361246
1487.000000	0.361717
1488.000000	0.362312
1489.000000	0.362838
1490.000000	0.363332
1491.000000	0.363773
1492.000000	0.363970
1493.000000	0.364357
1494.000000	0.364770
1495.000000	0.365169
1496.000000	0.365667
1497.000000	0.366119
1498.000000	0.366542
1499.000000	0.367003
1500.000000	0.367476
1501.000000	0.367921
1502.000000	0.368333
1503.000000	0.368708
1504.000000	0.369132
1505.000000	0.369568
1506.000000	0.369983
1507.000000	0.370395
1508.000000	0.370808
1509.000000	0.371222
1510.000000	0.371612
1511.000000	0.371975
1512.000000	0.372232
1513.000000	0.372418
1514.000000	0.372735
1515.000000	0.372995
1516.000000	0.373247
1517.000000	0.373571
1518.000000	0.373787
1519.000000	0.373974
1520.000000	0.374314
1521.000000	0.374485
1522.000000	0.374629
1523.000000	0.374889
1524.000000	0.374982
1525.000000	0.375073
1526.000000	0.375192
1527.000000	0.375286
1528.000000	0.375424
1529.000000	0.375595
1530.000000	0.375722
1531.000000	0.375912
1532.000000	0.376133
1533.000000	0.376255
1534.000000	0.376467
1535.000000	0.376737
1536.000000	0.376824
1537.000000	0.377116
1538.000000	0.377466
1539.000000	0.377484
1540.000000	0.377554
1541.000000	0.377811
1542.000000	0.377997
1543.000000	0.378190
1544.000000	0.378430
1545.000000	0.378548
1546.000000	0.378622
1547.000000	0.378865
1548.000000	0.379059
1549.000000	0.379068
1550.000000	0.379108
1551.000000	0.379122
1552.000000	0.379108
1553.000000	0.379202
1554.000000	0.379286
1555.000000	0.379314
1556.000000	0.379362
1557.000000	0.379473
1558.000000	0.379523
1559.000000	0.379410
1560.000000	0.379384
1561.000000	0.379467
1562.000000	0.379401
1563.000000	0.379330
1564.000000	0.379330
1565.000000	0.379225
1566.000000	0.379136
1567.000000	0.379292
1568.000000	0.379334
1569.000000	0.379379
1570.000000	0.379436
1571.000000	0.379454
1572.000000	0.379505
1573.000000	0.379583
1574.000000	0.379638
1575.000000	0.379768
1576.000000	0.379827
1577.000000	0.379783
1578.000000	0.379830
1579.000000	0.379967
1580.000000	0.380038
1581.000000	0.380273
1582.000000	0.380331
1583.000000	0.380204
1584.000000	0.380135
1585.000000	0.380098
1586.000000	0.380137
1587.000000	0.380213
1588.000000	0.380332
1589.000000	0.380604
1590.000000	0.380663
1591.000000	0.380704
1592.000000	0.380755
1593.000000	0.380668
1594.000000	0.380652
1595.000000	0.380755
1596.000000	0.380793
1597.000000	0.380872
1598.000000	0.380914
1599.000000	0.380953
1600.000000	0.380980
1601.000000	0.381088
1602.000000	0.381081
1603.000000	0.381096
1604.000000	0.381059
1605.000000	0.380944
1606.000000	0.380874
1607.000000	0.380845
1608.000000	0.380798
1609.000000	0.380799
1610.000000	0.380784
1611.000000	0.380849
1612.000000	0.380841
1613.000000	0.380888
1614.000000	0.380904
1615.000000	0.380929
1616.000000	0.381019
1617.000000	0.381072
1618.000000	0.381192
1619.000000	0.381312
1620.000000	0.381469
1621.000000	0.381781
1622.000000	0.382039
1623.000000	0.382258
1624.000000	0.382462
1625.000000	0.382478
1626.000000	0.382501
1627.000000	0.382569
1628.000000	0.382591
1629.000000	0.382486
1630.000000	0.382555
1631.000000	0.382602
1632.000000	0.382626
1633.000000	0.382735
1634.000000	0.382854
1635.000000	0.382967
1636.000000	0.383154
1637.000000	0.383528
1638.000000	0.383651
1639.000000	0.383742
1640.000000	0.383808
1641.000000	0.383785
1642.000000	0.383897
1643.000000	0.384128
1644.000000	0.384301
1645.000000	0.384512
1646.000000	0.384644
1647.000000	0.384737
1648.000000	0.384838
1649.000000	0.385073
1650.000000	0.385237
1651.000000	0.385417
1652.000000	0.385620
1653.000000	0.385682
1654.000000	0.385879
1655.000000	0.386110
1656.000000	0.386275
1657.000000	0.386620
1658.000000	0.386719
1659.000000	0.386764
1660.000000	0.386932
1661.000000	0.386934
1662.000000	0.386999
1663.000000	0.387159
1664.000000	0.387229
1665.000000	0.387170
1666.000000	0.387353
1667.000000	0.387576
1668.000000	0.387720
1669.000000	0.387865
1670.000000	0.387922
1671.000000	0.388060
1672.000000	0.388191
1673.000000	0.388240
1674.000000	0.388519
1675.000000	0.388673
1676.000000	0.388760
1677.000000	0.388896
1678.000000	0.388943
1679.000000	0.388878
1680.000000	0.388815
1681.000000	0.388930
1682.000000	0.389092
1683.000000	0.389304
1684.000000	0.389505
1685.000000	0.389622
1686.000000	0.389705
1687.000000	0.389707
1688.000000	0.389675
1689.000000	0.389778
1690.000000	0.389824
1691.000000	0.389893
1692.000000	0.389993
1693.000000	0.390080
1694.000000	0.390111
1695.000000	0.390180
1696.000000	0.390066
1697.000000	0.390005
1698.000000	0.389918
1699.000000	0.389964
1700.000000	0.390202
1701.000000	0.390453
1702.000000	0.390580
1703.000000	0.390632
1704.000000	0.390680
1705.000000	0.390801
1706.000000	0.391068
1707.000000	0.391166
1708.000000	0.391184
1709.000000	0.391148
1710.000000	0.391041
1711.000000	0.391013
1712.000000	0.391043
1713.000000	0.391090
1714.000000	0.391197
1715.000000	0.391331
1716.000000	0.391657
1717.000000	0.391716
1718.000000	0.391493
1719.000000	0.391501
1720.000000	0.391610
1721.000000	0.391585
1722.000000	0.391632
1723.000000	0.391696
1724.000000	0.391623
1725.000000	0.391680
1726.000000	0.391818
1727.000000	0.391914
1728.000000	0.391872
1729.000000	0.391837
1730.000000	0.392038
1731.000000	0.392102
1732.000000	0.392138
1733.000000	0.392145
1734.000000	0.391886
1735.000000	0.391843
1736.000000	0.391739
1737.000000	0.391791
1738.000000	0.392068
1739.000000	0.392226
1740.000000	0.392390
1741.000000	0.392443
1742.000000	0.392462
1743.000000	0.392524
1744.000000	0.392518
1745.000000	0.392471
1746.000000	0.392401
1747.000000	0.392421
1748.000000	0.392334
1749.000000	0.392298
1750.000000	0.392204
1751.000000	0.392125
1752.000000	0.392172
1753.000000	0.392107
1754.000000	0.392089
1755.000000	0.392064
1756.000000	0.392022
1757.000000	0.391981
1758.000000	0.392000
1759.000000	0.392025
1760.000000	0.392038
1761.000000	0.392049
1762.000000	0.392036
1763.000000	0.391976
1764.000000	0.391989
1765.000000	0.392100
1766.000000	0.392032
1767.000000	0.391719
1768.000000	0.391579
1769.000000	0.391523
1770.000000	0.391487
1771.000000	0.391572
1772.000000	0.391548
1773.000000	0.391261
1774.000000	0.391260
1775.000000	0.391533
1776.000000	0.391621
1777.000000	0.391746
1778.000000	0.391694
1779.000000	0.391405
1780.000000	0.391363
1781.000000	0.391322
1782.000000	0.391275
1783.000000	0.391345
1784.000000	0.391405
1785.000000	0.391469
1786.000000	0.391684
1787.000000	0.391954
1788.000000	0.392003
1789.000000	0.391973
1790.000000	0.392318
1791.000000	0.392439
1792.000000	0.392720
1793.000000	0.392926
1794.000000	0.392976
1795.000000	0.392974
1796.000000	0.392876
1797.000000	0.392937
1798.000000	0.392989
1799.000000	0.392975
1800.000000	0.393145
1801.000000	0.392988
1802.000000	0.393000
1803.000000	0.393121
1804.000000	0.393378
1805.000000	0.394658
1806.000000	0.394877
1807.000000	0.394226
1808.000000	0.394118
1809.000000	0.394084
1810.000000	0.393830
1811.000000	0.393608
1812.000000	0.393184
1813.000000	0.393521
1814.000000	0.394873
1815.000000	0.394773
1816.000000	0.394351
1817.000000	0.394138
1818.000000	0.393708
1819.000000	0.392035
1820.000000	0.391859
1821.000000	0.391885
1822.000000	0.391976
1823.000000	0.392213
1824.000000	0.391915
1825.000000	0.391219
1826.000000	0.391281
1827.000000	0.391054
1828.000000	0.391010
1829.000000	0.392021
1830.000000	0.392435
1831.000000	0.392201
1832.000000	0.391012
1833.000000	0.390591
1834.000000	0.389804
1835.000000	0.389669
1836.000000	0.390247
1837.000000	0.390357
1838.000000	0.390179
1839.000000	0.390198
1840.000000	0.390656
1841.000000	0.390769
1842.000000	0.390544
1843.000000	0.390302
1844.000000	0.389840
1845.000000	0.388063
1846.000000	0.387686
1847.000000	0.387902
1848.000000	0.388158
1849.000000	0.388180
1850.000000	0.387791
1851.000000	0.387253
1852.000000	0.385391
1853.000000	0.385110
1854.000000	0.385810
1855.000000	0.385662
1856.000000	0.385684
1857.000000	0.385229
1858.000000	0.384556
1859.000000	0.382933
1860.000000	0.381385
1861.000000	0.380629
1862.000000	0.378914
1863.000000	0.376399
1864.000000	0.374812
1865.000000	0.373307
1866.000000	0.371326
1867.000000	0.369578
1868.000000	0.367852
1869.000000	0.364835
1870.000000	0.362712
1871.000000	0.360847
1872.000000	0.358362
1873.000000	0.355877
1874.000000	0.353000
1875.000000	0.350535
1876.000000	0.347831
1877.000000	0.345125
1878.000000	0.342811
1879.000000	0.340028
1880.000000	0.336277
1881.000000	0.331756
1882.000000	0.326785
1883.000000	0.322131
1884.000000	0.317463
1885.000000	0.312884
1886.000000	0.307822
1887.000000	0.302742
1888.000000	0.296666
1889.000000	0.290308
1890.000000	0.284176
1891.000000	0.278954
1892.000000	0.274531
1893.000000	0.270315
1894.000000	0.266506
1895.000000	0.262115
1896.000000	0.257714
1897.000000	0.252585
1898.000000	0.247754
1899.000000	0.243262
1900.000000	0.239192
1901.000000	0.235536
1902.000000	0.231636
1903.000000	0.228480
1904.000000	0.225926
1905.000000	0.223754
1906.000000	0.222065
1907.000000	0.221270
1908.000000	0.220593
1909.000000	0.219822
1910.000000	0.218697
1911.000000	0.217599
1912.000000	0.216965
1913.000000	0.216290
1914.000000	0.215567
1915.000000	0.215197
1916.000000	0.214980
1917.000000	0.214537
1918.000000	0.213884
1919.000000	0.214160
1920.000000	0.214324
1921.000000	0.213815
1922.000000	0.214304
1923.000000	0.214977
1924.000000	0.215059
1925.000000	0.215071
1926.000000	0.215191
1927.000000	0.215342
1928.000000	0.215384
1929.000000	0.215525
1930.000000	0.216002
1931.000000	0.216379
1932.000000	0.216337
1933.000000	0.216923
1934.000000	0.218114
1935.000000	0.218633
1936.000000	0.219006
1937.000000	0.219781
1938.000000	0.220079
1939.000000	0.220253
1940.000000	0.220400
1941.000000	0.220852
1942.000000	0.220834
1943.000000	0.220891
1944.000000	0.221041
1945.000000	0.221116
1946.000000	0.221201
1947.000000	0.220883
1948.000000	0.220744
1949.000000	0.220919
1950.000000	0.220867
1951.000000	0.220622
1952.000000	0.220317
1953.000000	0.220023
1954.000000	0.219832
1955.000000	0.219751
1956.000000	0.219668
1957.000000	0.219537
1958.000000	0.219001
1959.000000	0.218313
1960.000000	0.218113
1961.000000	0.218212
1962.000000	0.218472
1963.000000	0.219156
1964.000000	0.219838
1965.000000	0.220463
1966.000000	0.221153
1967.000000	0.221468
1968.000000	0.221913
1969.000000	0.222107
1970.000000	0.221957
1971.000000	0.221756
1972.000000	0.222008
1973.000000	0.222117
1974.000000	0.222128
1975.000000	0.222468
1976.000000	0.223156
1977.000000	0.223610
1978.000000	0.224234
1979.000000	0.225209
1980.000000	0.226181
1981.000000	0.227052
1982.000000	0.227260
1983.000000	0.227861
1984.000000	0.228132
1985.000000	0.227609
1986.000000	0.227905
1987.000000	0.228531
1988.000000	0.229251
1989.000000	0.230716
1990.000000	0.232559
1991.000000	0.234408
1992.000000	0.235888
1993.000000	0.236381
1994.000000	0.236865
1995.000000	0.236948
1996.000000	0.237038
1997.000000	0.237566
1998.000000	0.238533
1999.000000	0.239305
2000.000000	0.240193
2001.000000	0.241272
2002.000000	0.242210
2003.000000	0.243572
2004.000000	0.244508
2005.000000	0.245350
2006.000000	0.246131
2007.000000	0.247110
2008.000000	0.248319
2009.000000	0.249920
2010.000000	0.251136
2011.000000	0.252343
2012.000000	0.253256
2013.000000	0.253714
2014.000000	0.254335
2015.000000	0.255154
2016.000000	0.256120
2017.000000	0.257522
2018.000000	0.259499
2019.000000	0.261016
2020.000000	0.261957
2021.000000	0.262998
2022.000000	0.263569
2023.000000	0.264148
2024.000000	0.264733
2025.000000	0.265691
2026.000000	0.266376
2027.000000	0.267481
2028.000000	0.268919
2029.000000	0.270103
2030.000000	0.271036
2031.000000	0.271371
2032.000000	0.272275
2033.000000	0.272452
2034.000000	0.272942
2035.000000	0.273802
2036.000000	0.274579
2037.000000	0.275459
2038.000000	0.276343
2039.000000	0.277373
2040.000000	0.278213
2041.000000	0.279320
2042.000000	0.280412
2043.000000	0.281557
2044.000000	0.282401
2045.000000	0.282866
2046.000000	0.282962
2047.000000	0.283174
2048.000000	0.283015
2049.000000	0.283752
2050.000000	0.284375
2051.000000	0.285196
2052.000000	0.287015
2053.000000	0.287811
2054.000000	0.287990
2055.000000	0.289042
2056.000000	0.289718
2057.000000	0.289743
2058.000000	0.290730
2059.000000	0.291244
2060.000000	0.291717
2061.000000	0.292251
2062.000000	0.292903
2063.000000	0.293308
2064.000000	0.293971
2065.000000	0.295270
2066.000000	0.296051
2067.000000	0.296961
2068.000000	0.297932
2069.000000	0.298562
2070.000000	0.299056
2071.000000	0.299047
2072.000000	0.299548
2073.000000	0.299880
2074.000000	0.300077
2075.000000	0.300507
2076.000000	0.300835
2077.000000	0.301478
2078.000000	0.302614
2079.000000	0.303314
2080.000000	0.304487
2081.000000	0.305133
2082.000000	0.305164
2083.000000	0.305176
2084.000000	0.305738
2085.000000	0.305957
2086.000000	0.306284
2087.000000	0.307116
2088.000000	0.308000
2089.000000	0.309073
2090.000000	0.310206
2091.000000	0.312145
2092.000000	0.313015
2093.000000	0.313554
2094.000000	0.313794
2095.000000	0.312898
2096.000000	0.313117
2097.000000	0.313612
2098.000000	0.314008
2099.000000	0.315180
2100.000000	0.316557
2101.000000	0.316716
2102.000000	0.317060
2103.000000	0.317690
2104.000000	0.318253
2105.000000	0.319131
2106.000000	0.320854
2107.000000	0.321750
2108.000000	0.322304
2109.000000	0.322798
2110.000000	0.322817
2111.000000	0.323029
2112.000000	0.323107
2113.000000	0.323009
2114.000000	0.322836
2115.000000	0.323032
2116.000000	0.323086
2117.000000	0.323031
2118.000000	0.324117
2119.000000	0.325012
2120.000000	0.325437
2121.000000	0.325973
2122.000000	0.326195
2123.000000	0.325296
2124.000000	0.325497
2125.000000	0.326367
2126.000000	0.326975
2127.000000	0.328155
2128.000000	0.328843
2129.000000	0.329095
2130.000000	0.329447
2131.000000	0.329006
2132.000000	0.328709
2133.000000	0.329054
2134.000000	0.329400
2135.000000	0.330852
2136.000000	0.332056
2137.000000	0.332484
2138.000000	0.332519
2139.000000	0.332518
2140.000000	0.331269
2141.000000	0.331474
2142.000000	0.332669
2143.000000	0.332937
2144.000000	0.333916
2145.000000	0.334182
2146.000000	0.333599
2147.000000	0.333372
2148.000000	0.333487
2149.000000	0.334273
2150.000000	0.335255
2151.000000	0.335740
2152.000000	0.336692
2153.000000	0.337149
2154.000000	0.337221
2155.000000	0.337794
2156.000000	0.337170
2157.000000	0.334737
2158.000000	0.333772
2159.000000	0.332488
2160.000000	0.332263
2161.000000	0.333411
2162.000000	0.334165
2163.000000	0.335930
2164.000000	0.336226
2165.000000	0.335367
2166.000000	0.334980
2167.000000	0.334426
2168.000000	0.333652
2169.000000	0.334095
2170.000000	0.334819
2171.000000	0.334910
2172.000000	0.334879
2173.000000	0.334520
2174.000000	0.333356
2175.000000	0.333242
2176.000000	0.333378
2177.000000	0.333650
2178.000000	0.334553
2179.000000	0.335495
2180.000000	0.336736
2181.000000	0.337564
2182.000000	0.337860
2183.000000	0.338347
2184.000000	0.337282
2185.000000	0.336662
2186.000000	0.336383
2187.000000	0.335398
2188.000000	0.335042
2189.000000	0.334432
2190.000000	0.334346
2191.000000	0.335271
2192.000000	0.335068
2193.000000	0.334500
2194.000000	0.334223
2195.000000	0.333259
2196.000000	0.332996
2197.000000	0.333535
2198.000000	0.333825
2199.000000	0.334235
2200.000000	0.334643
2201.000000	0.335439
2202.000000	0.335989
2203.000000	0.336918
2204.000000	0.335467
2205.000000	0.335036
2206.000000	0.336147
2207.000000	0.335631
2208.000000	0.337289
2209.000000	0.340207
2210.000000	0.340969
2211.000000	0.341711
2212.000000	0.342919
2213.000000	0.341881
2214.000000	0.338082
2215.000000	0.335177
2216.000000	0.330400
2217.000000	0.328878
2218.000000	0.328721
2219.000000	0.329150
2220.000000	0.332874
2221.000000	0.333860
2222.000000	0.333121
2223.000000	0.332564
2224.000000	0.332017
2225.000000	0.329890
2226.000000	0.328052
2227.000000	0.328122
2228.000000	0.327271
2229.000000	0.327793
2230.000000	0.327713
2231.000000	0.327138
2232.000000	0.325180
2233.000000	0.323663
2234.000000	0.324583
2235.000000	0.327688
2236.000000	0.329344
2237.000000	0.333745
2238.000000	0.333668
2239.000000	0.329348
2240.000000	0.327280
2241.000000	0.322842
2242.000000	0.322197
2243.000000	0.325542
2244.000000	0.326527
2245.000000	0.328908
2246.000000	0.329625
2247.000000	0.327167
2248.000000	0.326787
2249.000000	0.327867
2250.000000	0.326867
2251.000000	0.327257
2252.000000	0.328385
2253.000000	0.328728
2254.000000	0.329304
2255.000000	0.329989
2256.000000	0.330188
2257.000000	0.328352
2258.000000	0.328498
2259.000000	0.327625
2260.000000	0.324586
2261.000000	0.322911
2262.000000	0.319874
2263.000000	0.320595
2264.000000	0.323785
2265.000000	0.325902
2266.000000	0.332432
2267.000000	0.333116
2268.000000	0.330790
2269.000000	0.328113
2270.000000	0.319438
2271.000000	0.316321
2272.000000	0.316203
2273.000000	0.314840
2274.000000	0.317418
2275.000000	0.316370
2276.000000	0.312928
2277.000000	0.307316
2278.000000	0.303654
2279.000000	0.301771
2280.000000	0.300619
2281.000000	0.301864
2282.000000	0.303076
2283.000000	0.301355
2284.000000	0.298053
2285.000000	0.294076
2286.000000	0.292213
2287.000000	0.291609
2288.000000	0.291405
2289.000000	0.293156
2290.000000	0.293858
2291.000000	0.293579
2292.000000	0.293044
2293.000000	0.290826
2294.000000	0.289024
2295.000000	0.285411
2296.000000	0.283033
2297.000000	0.281289
2298.000000	0.280899
2299.000000	0.280646
2300.000000	0.280330
2301.000000	0.282939
2302.000000	0.281912
2303.000000	0.277976
2304.000000	0.275827
2305.000000	0.273422
2306.000000	0.270325
2307.000000	0.266430
2308.000000	0.265142
2309.000000	0.263721
2310.000000	0.259996
2311.000000	0.260152
2312.000000	0.260517
2313.000000	0.258312
2314.000000	0.258090
2315.000000	0.257631
2316.000000	0.255889
2317.000000	0.256008
2318.000000	0.258597
2319.000000	0.261648
2320.000000	0.264050
2321.000000	0.267112
2322.000000	0.268564
2323.000000	0.269689
2324.000000	0.271530
2325.000000	0.270930
2326.000000	0.271382
2327.000000	0.273465
2328.000000	0.274764
2329.000000	0.275637
2330.000000	0.276148
2331.000000	0.273367
2332.000000	0.270538
2333.000000	0.269368
2334.000000	0.267025
2335.000000	0.266760
2336.000000	0.267753
2337.000000	0.267712
2338.000000	0.269815
2339.000000	0.269360
2340.000000	0.265368
2341.000000	0.265548
2342.000000	0.265874
2343.000000	0.267267
2344.000000	0.274106
2345.000000	0.275795
2346.000000	0.275113
2347.000000	0.273916
2348.000000	0.270043
2349.000000	0.266790
2350.000000	0.264638
2351.000000	0.264115
2352.000000	0.264452
2353.000000	0.263929
2354.000000	0.263795
2355.000000	0.261423
2356.000000	0.257880
2357.000000	0.255034
2358.000000	0.249587
2359.000000	0.247538
2360.000000	0.247681
2361.000000	0.247185
2362.000000	0.250117
2363.000000	0.250299
2364.000000	0.249635
2365.000000	0.253166
2366.000000	0.255027
2367.000000	0.256374
2368.000000	0.254429
2369.000000	0.248511
2370.000000	0.243697
2371.000000	0.238177
2372.000000	0.239206
2373.000000	0.242780
2374.000000	0.239288
2375.000000	0.238798
2376.000000	0.240319
2377.000000	0.236346
2378.000000	0.233448
2379.000000	0.232330
2380.000000	0.227473
2381.000000	0.222710
2382.000000	0.223380
2383.000000	0.224566
2384.000000	0.225219
2385.000000	0.227114
2386.000000	0.225757
2387.000000	0.223983
2388.000000	0.222054
2389.000000	0.222502
2390.000000	0.224564
2391.000000	0.224943
2392.000000	0.225328
2393.000000	0.223163
2394.000000	0.223391
2395.000000	0.223768
2396.000000	0.219381
2397.000000	0.217782
2398.000000	0.218619
2399.000000	0.216800
2400.000000	0.221163
2401.000000	0.228727
2402.000000	0.234519
2403.000000	0.236186
2404.000000	0.235594
2405.000000	0.232926
2406.000000	0.217732
2407.000000	0.213283
2408.000000	0.211750
2409.000000	0.198646
2410.000000	0.190606
2411.000000	0.175578
2412.000000	0.165987
2413.000000	0.169003
2414.000000	0.172253
2415.000000	0.186667
2416.000000	0.200897
2417.000000	0.206795
2418.000000	0.211336
2419.000000	0.213455
2420.000000	0.209844
2421.000000	0.199245
2422.000000	0.197428
2423.000000	0.193044
2424.000000	0.182222
2425.000000	0.188838
2426.000000	0.190737
2427.000000	0.186798
2428.000000	0.191781
2429.000000	0.186624
2430.000000	0.180641
2431.000000	0.185685
2432.000000	0.188379
2433.000000	0.189987
2434.000000	0.192046
2435.000000	0.195185
2436.000000	0.199481
2437.000000	0.202331
2438.000000	0.204113
2439.000000	0.197746
2440.000000	0.196688
2441.000000	0.207195
2442.000000	0.218295
2443.000000	0.220029
2444.000000	0.205103
2445.000000	0.192734
2446.000000	0.187890
2447.000000	0.196432
2448.000000	0.217566
2449.000000	0.218211
2450.000000	0.205517
2451.000000	0.186598
2452.000000	0.165534
2453.000000	0.164365
2454.000000	0.164237
2455.000000	0.176167
2456.000000	0.188468
2457.000000	0.177885
2458.000000	0.178937
2459.000000	0.179537
2460.000000	0.176171
2461.000000	0.181418
2462.000000	0.189149
2463.000000	0.194652
2464.000000	0.194716
2465.000000	0.199402
2466.000000	0.200999
2467.000000	0.190362
2468.000000	0.176500
2469.000000	0.169292
2470.000000	0.162654
2471.000000	0.160218
2472.000000	0.163102
2473.000000	0.157979
2474.000000	0.145978
2475.000000	0.135106
2476.000000	0.135479
2477.000000	0.150362
2478.000000	0.154536
2479.000000	0.169203
2480.000000	0.178418
2481.000000	0.166580
2482.000000	0.185915
2483.000000	0.164484
2484.000000	0.131303
2485.000000	0.150918
2486.000000	0.132503
2487.000000	0.118186
2488.000000	0.143520
2489.000000	0.125910
2490.000000	0.118594
2491.000000	0.095915
2492.000000	0.095918
2493.000000	0.113993
2494.000000	0.110400
2495.000000	0.141684
2496.000000	0.142054
2497.000000	0.067509
2498.000000	0.063478
2499.000000	0.099744
2500.000000	0.120013
