# Wavelength	SM1200H-30_HEX-60_FV7-10_00001.asd.rts.txt
350.000000	0.403042
351.000000	0.427093
352.000000	0.435668
353.000000	0.425759
354.000000	0.411594
355.000000	0.416329
356.000000	0.428608
357.000000	0.439837
358.000000	0.434423
359.000000	0.427861
360.000000	0.427381
361.000000	0.434154
362.000000	0.432542
363.000000	0.429163
364.000000	0.428535
365.000000	0.429250
366.000000	0.428902
367.000000	0.427848
368.000000	0.430194
369.000000	0.432517
370.000000	0.434813
371.000000	0.437496
372.000000	0.436093
373.000000	0.433577
374.000000	0.433766
375.000000	0.438185
376.000000	0.438282
377.000000	0.434680
378.000000	0.437340
379.000000	0.438604
380.000000	0.438950
381.000000	0.442016
382.000000	0.441239
383.000000	0.438549
384.000000	0.437308
385.000000	0.440654
386.000000	0.444097
387.000000	0.445349
388.000000	0.443149
389.000000	0.442153
390.000000	0.443363
391.000000	0.445568
392.000000	0.445231
393.000000	0.443846
394.000000	0.443648
395.000000	0.447580
396.000000	0.449000
397.000000	0.447007
398.000000	0.448460
399.000000	0.449540
400.000000	0.449694
401.000000	0.449309
402.000000	0.449597
403.000000	0.449879
404.000000	0.449825
405.000000	0.450574
406.000000	0.452233
407.000000	0.453998
408.000000	0.452911
409.000000	0.453287
410.000000	0.454910
411.000000	0.454966
412.000000	0.455061
413.000000	0.455351
414.000000	0.455689
415.000000	0.455653
416.000000	0.455982
417.000000	0.456794
418.000000	0.456530
419.000000	0.457035
420.000000	0.458379
421.000000	0.459166
422.000000	0.459853
423.000000	0.459947
424.000000	0.459175
425.000000	0.460216
426.000000	0.461040
427.000000	0.460334
428.000000	0.460954
429.000000	0.461481
430.000000	0.461636
431.000000	0.462696
432.000000	0.463289
433.000000	0.463322
434.000000	0.463453
435.000000	0.463498
436.000000	0.463680
437.000000	0.464128
438.000000	0.464549
439.000000	0.464709
440.000000	0.464856
441.000000	0.465629
442.000000	0.465941
443.000000	0.465820
444.000000	0.466392
445.000000	0.466408
446.000000	0.466299
447.000000	0.466538
448.000000	0.467068
449.000000	0.467829
450.000000	0.468645
451.000000	0.468933
452.000000	0.469049
453.000000	0.469128
454.000000	0.469520
455.000000	0.470039
456.000000	0.470545
457.000000	0.470621
458.000000	0.471133
459.000000	0.471777
460.000000	0.472180
461.000000	0.472003
462.000000	0.472117
463.000000	0.472590
464.000000	0.473064
465.000000	0.473304
466.000000	0.473293
467.000000	0.473442
468.000000	0.473777
469.000000	0.474044
470.000000	0.474284
471.000000	0.474705
472.000000	0.474973
473.000000	0.475040
474.000000	0.475553
475.000000	0.475712
476.000000	0.475721
477.000000	0.476268
478.000000	0.476412
479.000000	0.476519
480.000000	0.476783
481.000000	0.476901
482.000000	0.477198
483.000000	0.477582
484.000000	0.478184
485.000000	0.478416
486.000000	0.478452
487.000000	0.478778
488.000000	0.479030
489.000000	0.479293
490.000000	0.479890
491.000000	0.480143
492.000000	0.480338
493.000000	0.480690
494.000000	0.480928
495.000000	0.481235
496.000000	0.481659
497.000000	0.482118
498.000000	0.482485
499.000000	0.482844
500.000000	0.483172
501.000000	0.483347
502.000000	0.483582
503.000000	0.484051
504.000000	0.484335
505.000000	0.484573
506.000000	0.484945
507.000000	0.485197
508.000000	0.485428
509.000000	0.485690
510.000000	0.486227
511.000000	0.486655
512.000000	0.486979
513.000000	0.487399
514.000000	0.487723
515.000000	0.487992
516.000000	0.488200
517.000000	0.488470
518.000000	0.488841
519.000000	0.489171
520.000000	0.489555
521.000000	0.489904
522.000000	0.490197
523.000000	0.490462
524.000000	0.490763
525.000000	0.491049
526.000000	0.491292
527.000000	0.491548
528.000000	0.491828
529.000000	0.492197
530.000000	0.492403
531.000000	0.492655
532.000000	0.492940
533.000000	0.493275
534.000000	0.493629
535.000000	0.493945
536.000000	0.494196
537.000000	0.494445
538.000000	0.494737
539.000000	0.495082
540.000000	0.495510
541.000000	0.495881
542.000000	0.496159
543.000000	0.496475
544.000000	0.496797
545.000000	0.497023
546.000000	0.497374
547.000000	0.497780
548.000000	0.498202
549.000000	0.498441
550.000000	0.498707
551.000000	0.499094
552.000000	0.499526
553.000000	0.499747
554.000000	0.500032
555.000000	0.500551
556.000000	0.500957
557.000000	0.501229
558.000000	0.501587
559.000000	0.501910
560.000000	0.502200
561.000000	0.502533
562.000000	0.502754
563.000000	0.503039
564.000000	0.503476
565.000000	0.503899
566.000000	0.504258
567.000000	0.504580
568.000000	0.504884
569.000000	0.505326
570.000000	0.505694
571.000000	0.505933
572.000000	0.506159
573.000000	0.506500
574.000000	0.506869
575.000000	0.507201
576.000000	0.507470
577.000000	0.507719
578.000000	0.508072
579.000000	0.508356
580.000000	0.508611
581.000000	0.508865
582.000000	0.509155
583.000000	0.509399
584.000000	0.509650
585.000000	0.510035
586.000000	0.510377
587.000000	0.510646
588.000000	0.510876
589.000000	0.511206
590.000000	0.511509
591.000000	0.511721
592.000000	0.511994
593.000000	0.512281
594.000000	0.512574
595.000000	0.512915
596.000000	0.513157
597.000000	0.513393
598.000000	0.513627
599.000000	0.513829
600.000000	0.514107
601.000000	0.514383
602.000000	0.514530
603.000000	0.514646
604.000000	0.514789
605.000000	0.514885
606.000000	0.514946
607.000000	0.515047
608.000000	0.515298
609.000000	0.515506
610.000000	0.515683
611.000000	0.515883
612.000000	0.516069
613.000000	0.516257
614.000000	0.516507
615.000000	0.516739
616.000000	0.516863
617.000000	0.516921
618.000000	0.517300
619.000000	0.517588
620.000000	0.517665
621.000000	0.517652
622.000000	0.517804
623.000000	0.517945
624.000000	0.517945
625.000000	0.518169
626.000000	0.518371
627.000000	0.518481
628.000000	0.518713
629.000000	0.519050
630.000000	0.519255
631.000000	0.519460
632.000000	0.519583
633.000000	0.519707
634.000000	0.519884
635.000000	0.520008
636.000000	0.520170
637.000000	0.520365
638.000000	0.520484
639.000000	0.520548
640.000000	0.520690
641.000000	0.520866
642.000000	0.520909
643.000000	0.520943
644.000000	0.521163
645.000000	0.521333
646.000000	0.521468
647.000000	0.521564
648.000000	0.521663
649.000000	0.521785
650.000000	0.521904
651.000000	0.522028
652.000000	0.522170
653.000000	0.522393
654.000000	0.522625
655.000000	0.522778
656.000000	0.522876
657.000000	0.522899
658.000000	0.523108
659.000000	0.523291
660.000000	0.523346
661.000000	0.523485
662.000000	0.523544
663.000000	0.523645
664.000000	0.523885
665.000000	0.524063
666.000000	0.524226
667.000000	0.524403
668.000000	0.524521
669.000000	0.524661
670.000000	0.524866
671.000000	0.525052
672.000000	0.525177
673.000000	0.525279
674.000000	0.525502
675.000000	0.525694
676.000000	0.525847
677.000000	0.526022
678.000000	0.526193
679.000000	0.526330
680.000000	0.526438
681.000000	0.526529
682.000000	0.526729
683.000000	0.526921
684.000000	0.527141
685.000000	0.527316
686.000000	0.527491
687.000000	0.527645
688.000000	0.527745
689.000000	0.527879
690.000000	0.528133
691.000000	0.528291
692.000000	0.528345
693.000000	0.528460
694.000000	0.528705
695.000000	0.528989
696.000000	0.529213
697.000000	0.529290
698.000000	0.529361
699.000000	0.529477
700.000000	0.529660
701.000000	0.529825
702.000000	0.530027
703.000000	0.530218
704.000000	0.530285
705.000000	0.530489
706.000000	0.530700
707.000000	0.530791
708.000000	0.530923
709.000000	0.531026
710.000000	0.531080
711.000000	0.531228
712.000000	0.531366
713.000000	0.531481
714.000000	0.531570
715.000000	0.531737
716.000000	0.531989
717.000000	0.532226
718.000000	0.532349
719.000000	0.532377
720.000000	0.532409
721.000000	0.532604
722.000000	0.532752
723.000000	0.532884
724.000000	0.533040
725.000000	0.533125
726.000000	0.533248
727.000000	0.533321
728.000000	0.533397
729.000000	0.533472
730.000000	0.533480
731.000000	0.533658
732.000000	0.533765
733.000000	0.533807
734.000000	0.533913
735.000000	0.533986
736.000000	0.534178
737.000000	0.534277
738.000000	0.534176
739.000000	0.534240
740.000000	0.534407
741.000000	0.534478
742.000000	0.534562
743.000000	0.534652
744.000000	0.534757
745.000000	0.534807
746.000000	0.534870
747.000000	0.534886
748.000000	0.534870
749.000000	0.534971
750.000000	0.535176
751.000000	0.535268
752.000000	0.535335
753.000000	0.535434
754.000000	0.535560
755.000000	0.535697
756.000000	0.535820
757.000000	0.535837
758.000000	0.535871
759.000000	0.535951
760.000000	0.535967
761.000000	0.536012
762.000000	0.536026
763.000000	0.536056
764.000000	0.536335
765.000000	0.536397
766.000000	0.536420
767.000000	0.536599
768.000000	0.536672
769.000000	0.536719
770.000000	0.536794
771.000000	0.536879
772.000000	0.537031
773.000000	0.537066
774.000000	0.536969
775.000000	0.537004
776.000000	0.537079
777.000000	0.537085
778.000000	0.537138
779.000000	0.537228
780.000000	0.537353
781.000000	0.537484
782.000000	0.537624
783.000000	0.537846
784.000000	0.537916
785.000000	0.537864
786.000000	0.537837
787.000000	0.537856
788.000000	0.537705
789.000000	0.537599
790.000000	0.537603
791.000000	0.537778
792.000000	0.537886
793.000000	0.537934
794.000000	0.537992
795.000000	0.538130
796.000000	0.538213
797.000000	0.538195
798.000000	0.538142
799.000000	0.538138
800.000000	0.538115
801.000000	0.538008
802.000000	0.538030
803.000000	0.538069
804.000000	0.538112
805.000000	0.538159
806.000000	0.538062
807.000000	0.538038
808.000000	0.538192
809.000000	0.538262
810.000000	0.538305
811.000000	0.538359
812.000000	0.538363
813.000000	0.538332
814.000000	0.538302
815.000000	0.538370
816.000000	0.538327
817.000000	0.538281
818.000000	0.538223
819.000000	0.538115
820.000000	0.538072
821.000000	0.538075
822.000000	0.538196
823.000000	0.538298
824.000000	0.538335
825.000000	0.538482
826.000000	0.538505
827.000000	0.538378
828.000000	0.538237
829.000000	0.538262
830.000000	0.538096
831.000000	0.537879
832.000000	0.537728
833.000000	0.537672
834.000000	0.537657
835.000000	0.537681
836.000000	0.537712
837.000000	0.537728
838.000000	0.537788
839.000000	0.537920
840.000000	0.537885
841.000000	0.537795
842.000000	0.537717
843.000000	0.537583
844.000000	0.537522
845.000000	0.537501
846.000000	0.537446
847.000000	0.537400
848.000000	0.537329
849.000000	0.537265
850.000000	0.537298
851.000000	0.537250
852.000000	0.537157
853.000000	0.537174
854.000000	0.537138
855.000000	0.537140
856.000000	0.537028
857.000000	0.536935
858.000000	0.536925
859.000000	0.536856
860.000000	0.536674
861.000000	0.536607
862.000000	0.536695
863.000000	0.536740
864.000000	0.536590
865.000000	0.536457
866.000000	0.536453
867.000000	0.536280
868.000000	0.536321
869.000000	0.536321
870.000000	0.536043
871.000000	0.535948
872.000000	0.535866
873.000000	0.535621
874.000000	0.535546
875.000000	0.535376
876.000000	0.535141
877.000000	0.534887
878.000000	0.534787
879.000000	0.534796
880.000000	0.534611
881.000000	0.534345
882.000000	0.534264
883.000000	0.534266
884.000000	0.534010
885.000000	0.533838
886.000000	0.533548
887.000000	0.533182
888.000000	0.533178
889.000000	0.533263
890.000000	0.533204
891.000000	0.533182
892.000000	0.533053
893.000000	0.532846
894.000000	0.532760
895.000000	0.532537
896.000000	0.532305
897.000000	0.532075
898.000000	0.531841
899.000000	0.531696
900.000000	0.531582
901.000000	0.531406
902.000000	0.531281
903.000000	0.531035
904.000000	0.530843
905.000000	0.530728
906.000000	0.530654
907.000000	0.530546
908.000000	0.530466
909.000000	0.530304
910.000000	0.530072
911.000000	0.529871
912.000000	0.529794
913.000000	0.529666
914.000000	0.529567
915.000000	0.529440
916.000000	0.528881
917.000000	0.528721
918.000000	0.528730
919.000000	0.528602
920.000000	0.528504
921.000000	0.528357
922.000000	0.528128
923.000000	0.527779
924.000000	0.527456
925.000000	0.527279
926.000000	0.527266
927.000000	0.527076
928.000000	0.526829
929.000000	0.526534
930.000000	0.526200
931.000000	0.525954
932.000000	0.525617
933.000000	0.525277
934.000000	0.525123
935.000000	0.524983
936.000000	0.524754
937.000000	0.524289
938.000000	0.524037
939.000000	0.523844
940.000000	0.523558
941.000000	0.523304
942.000000	0.522928
943.000000	0.522636
944.000000	0.522354
945.000000	0.522198
946.000000	0.521789
947.000000	0.521348
948.000000	0.521080
949.000000	0.520717
950.000000	0.520546
951.000000	0.520472
952.000000	0.520243
953.000000	0.520073
954.000000	0.519960
955.000000	0.519756
956.000000	0.519576
957.000000	0.519289
958.000000	0.518994
959.000000	0.519014
960.000000	0.518816
961.000000	0.518446
962.000000	0.518015
963.000000	0.517755
964.000000	0.517464
965.000000	0.517223
966.000000	0.516884
967.000000	0.516307
968.000000	0.516187
969.000000	0.516264
970.000000	0.516063
971.000000	0.515630
972.000000	0.515273
973.000000	0.515020
974.000000	0.514858
975.000000	0.514656
976.000000	0.514457
977.000000	0.514277
978.000000	0.513930
979.000000	0.514136
980.000000	0.514227
981.000000	0.513898
982.000000	0.513501
983.000000	0.513121
984.000000	0.512934
985.000000	0.512925
986.000000	0.512692
987.000000	0.512610
988.000000	0.512626
989.000000	0.512102
990.000000	0.511854
991.000000	0.511850
992.000000	0.511864
993.000000	0.511875
994.000000	0.511636
995.000000	0.511490
996.000000	0.511475
997.000000	0.511357
998.000000	0.511284
999.000000	0.511370
1000.000000	0.511175
1001.000000	0.511565
1002.000000	0.511510
1003.000000	0.510753
1004.000000	0.510674
1005.000000	0.511349
1006.000000	0.510954
1007.000000	0.510024
1008.000000	0.510107
1009.000000	0.509978
1010.000000	0.509959
1011.000000	0.510628
1012.000000	0.510923
1013.000000	0.510401
1014.000000	0.509779
1015.000000	0.509435
1016.000000	0.509271
1017.000000	0.509102
1018.000000	0.509026
1019.000000	0.509245
1020.000000	0.510323
1021.000000	0.509940
1022.000000	0.509371
1023.000000	0.509471
1024.000000	0.509062
1025.000000	0.508456
1026.000000	0.508889
1027.000000	0.508757
1028.000000	0.508241
1029.000000	0.508384
1030.000000	0.508652
1031.000000	0.508939
1032.000000	0.508944
1033.000000	0.509156
1034.000000	0.509354
1035.000000	0.509486
1036.000000	0.509605
1037.000000	0.509757
1038.000000	0.509779
1039.000000	0.509849
1040.000000	0.510170
1041.000000	0.510048
1042.000000	0.510079
1043.000000	0.510297
1044.000000	0.510383
1045.000000	0.510004
1046.000000	0.510026
1047.000000	0.510208
1048.000000	0.509954
1049.000000	0.510010
1050.000000	0.510894
1051.000000	0.511063
1052.000000	0.510802
1053.000000	0.510596
1054.000000	0.510182
1055.000000	0.510391
1056.000000	0.510766
1057.000000	0.511578
1058.000000	0.512518
1059.000000	0.512826
1060.000000	0.513027
1061.000000	0.512937
1062.000000	0.512870
1063.000000	0.513698
1064.000000	0.513962
1065.000000	0.514066
1066.000000	0.514139
1067.000000	0.513821
1068.000000	0.513741
1069.000000	0.513671
1070.000000	0.513777
1071.000000	0.514340
1072.000000	0.514564
1073.000000	0.514763
1074.000000	0.514969
1075.000000	0.515067
1076.000000	0.515001
1077.000000	0.515021
1078.000000	0.514968
1079.000000	0.514970
1080.000000	0.514892
1081.000000	0.515091
1082.000000	0.515701
1083.000000	0.516038
1084.000000	0.516625
1085.000000	0.516867
1086.000000	0.516533
1087.000000	0.516699
1088.000000	0.517010
1089.000000	0.516998
1090.000000	0.516717
1091.000000	0.516928
1092.000000	0.516656
1093.000000	0.517192
1094.000000	0.517592
1095.000000	0.518389
1096.000000	0.518752
1097.000000	0.519074
1098.000000	0.519116
1099.000000	0.518664
1100.000000	0.518797
1101.000000	0.518992
1102.000000	0.518990
1103.000000	0.519060
1104.000000	0.519317
1105.000000	0.519518
1106.000000	0.519594
1107.000000	0.519636
1108.000000	0.519847
1109.000000	0.519846
1110.000000	0.520303
1111.000000	0.520507
1112.000000	0.521077
1113.000000	0.521218
1114.000000	0.520875
1115.000000	0.520995
1116.000000	0.521325
1117.000000	0.521519
1118.000000	0.521958
1119.000000	0.521915
1120.000000	0.521191
1121.000000	0.521242
1122.000000	0.521849
1123.000000	0.522288
1124.000000	0.522733
1125.000000	0.523109
1126.000000	0.523073
1127.000000	0.522910
1128.000000	0.522694
1129.000000	0.522543
1130.000000	0.522587
1131.000000	0.522617
1132.000000	0.522467
1133.000000	0.522598
1134.000000	0.522575
1135.000000	0.522069
1136.000000	0.521875
1137.000000	0.522127
1138.000000	0.521837
1139.000000	0.521206
1140.000000	0.521068
1141.000000	0.520935
1142.000000	0.520744
1143.000000	0.520547
1144.000000	0.520723
1145.000000	0.520779
1146.000000	0.520595
1147.000000	0.520552
1148.000000	0.520707
1149.000000	0.520509
1150.000000	0.520009
1151.000000	0.519796
1152.000000	0.519394
1153.000000	0.519345
1154.000000	0.519582
1155.000000	0.519549
1156.000000	0.519585
1157.000000	0.519559
1158.000000	0.519304
1159.000000	0.519093
1160.000000	0.518906
1161.000000	0.518663
1162.000000	0.518415
1163.000000	0.518338
1164.000000	0.518016
1165.000000	0.518068
1166.000000	0.518058
1167.000000	0.518053
1168.000000	0.517936
1169.000000	0.517900
1170.000000	0.517818
1171.000000	0.517684
1172.000000	0.517646
1173.000000	0.517566
1174.000000	0.517552
1175.000000	0.517592
1176.000000	0.517523
1177.000000	0.517593
1178.000000	0.517602
1179.000000	0.517492
1180.000000	0.517323
1181.000000	0.517324
1182.000000	0.517183
1183.000000	0.516992
1184.000000	0.517006
1185.000000	0.517037
1186.000000	0.517218
1187.000000	0.517101
1188.000000	0.516896
1189.000000	0.516722
1190.000000	0.516444
1191.000000	0.516264
1192.000000	0.516373
1193.000000	0.516464
1194.000000	0.516333
1195.000000	0.516217
1196.000000	0.516038
1197.000000	0.515920
1198.000000	0.515739
1199.000000	0.515676
1200.000000	0.515745
1201.000000	0.515751
1202.000000	0.515684
1203.000000	0.515715
1204.000000	0.515823
1205.000000	0.515903
1206.000000	0.515812
1207.000000	0.515890
1208.000000	0.515771
1209.000000	0.515388
1210.000000	0.515343
1211.000000	0.515531
1212.000000	0.515450
1213.000000	0.515467
1214.000000	0.515466
1215.000000	0.515211
1216.000000	0.515120
1217.000000	0.515068
1218.000000	0.515023
1219.000000	0.515009
1220.000000	0.515157
1221.000000	0.515274
1222.000000	0.515440
1223.000000	0.515451
1224.000000	0.515322
1225.000000	0.515284
1226.000000	0.515226
1227.000000	0.515026
1228.000000	0.514973
1229.000000	0.514862
1230.000000	0.514593
1231.000000	0.514448
1232.000000	0.514675
1233.000000	0.514785
1234.000000	0.514840
1235.000000	0.514810
1236.000000	0.514457
1237.000000	0.514461
1238.000000	0.514577
1239.000000	0.514621
1240.000000	0.514829
1241.000000	0.514913
1242.000000	0.514826
1243.000000	0.514624
1244.000000	0.514528
1245.000000	0.514624
1246.000000	0.514660
1247.000000	0.514762
1248.000000	0.514777
1249.000000	0.514744
1250.000000	0.514741
1251.000000	0.514744
1252.000000	0.514737
1253.000000	0.514891
1254.000000	0.514755
1255.000000	0.514415
1256.000000	0.514237
1257.000000	0.513899
1258.000000	0.513890
1259.000000	0.514082
1260.000000	0.514228
1261.000000	0.514463
1262.000000	0.514526
1263.000000	0.514539
1264.000000	0.514413
1265.000000	0.514433
1266.000000	0.514490
1267.000000	0.514553
1268.000000	0.514690
1269.000000	0.514662
1270.000000	0.514613
1271.000000	0.514414
1272.000000	0.514305
1273.000000	0.514385
1274.000000	0.514324
1275.000000	0.514307
1276.000000	0.514507
1277.000000	0.514647
1278.000000	0.514501
1279.000000	0.514484
1280.000000	0.514490
1281.000000	0.514393
1282.000000	0.514344
1283.000000	0.514392
1284.000000	0.514254
1285.000000	0.514255
1286.000000	0.514308
1287.000000	0.514389
1288.000000	0.514521
1289.000000	0.514508
1290.000000	0.514217
1291.000000	0.514020
1292.000000	0.513994
1293.000000	0.514031
1294.000000	0.513984
1295.000000	0.513941
1296.000000	0.513809
1297.000000	0.513519
1298.000000	0.513497
1299.000000	0.513516
1300.000000	0.513360
1301.000000	0.513356
1302.000000	0.513223
1303.000000	0.513179
1304.000000	0.512962
1305.000000	0.512800
1306.000000	0.512650
1307.000000	0.512592
1308.000000	0.512478
1309.000000	0.512416
1310.000000	0.512209
1311.000000	0.511879
1312.000000	0.511419
1313.000000	0.511195
1314.000000	0.510952
1315.000000	0.510614
1316.000000	0.510431
1317.000000	0.510121
1318.000000	0.509708
1319.000000	0.509369
1320.000000	0.509164
1321.000000	0.508963
1322.000000	0.508686
1323.000000	0.508371
1324.000000	0.507999
1325.000000	0.507440
1326.000000	0.506951
1327.000000	0.506638
1328.000000	0.506440
1329.000000	0.506087
1330.000000	0.505740
1331.000000	0.505459
1332.000000	0.505287
1333.000000	0.504892
1334.000000	0.504648
1335.000000	0.504362
1336.000000	0.503714
1337.000000	0.503300
1338.000000	0.503004
1339.000000	0.502615
1340.000000	0.502114
1341.000000	0.501707
1342.000000	0.501286
1343.000000	0.500798
1344.000000	0.500352
1345.000000	0.499968
1346.000000	0.499611
1347.000000	0.499021
1348.000000	0.498515
1349.000000	0.497919
1350.000000	0.497471
1351.000000	0.497135
1352.000000	0.496633
1353.000000	0.496077
1354.000000	0.495430
1355.000000	0.494689
1356.000000	0.494160
1357.000000	0.493656
1358.000000	0.493158
1359.000000	0.492623
1360.000000	0.492061
1361.000000	0.491461
1362.000000	0.490943
1363.000000	0.490442
1364.000000	0.489935
1365.000000	0.489469
1366.000000	0.488908
1367.000000	0.488271
1368.000000	0.487602
1369.000000	0.487090
1370.000000	0.486336
1371.000000	0.485464
1372.000000	0.484602
1373.000000	0.483537
1374.000000	0.482479
1375.000000	0.481256
1376.000000	0.479870
1377.000000	0.478419
1378.000000	0.476578
1379.000000	0.474413
1380.000000	0.471970
1381.000000	0.469015
1382.000000	0.465774
1383.000000	0.462482
1384.000000	0.459011
1385.000000	0.455507
1386.000000	0.452194
1387.000000	0.449232
1388.000000	0.446717
1389.000000	0.444544
1390.000000	0.442815
1391.000000	0.441337
1392.000000	0.440207
1393.000000	0.439429
1394.000000	0.439340
1395.000000	0.438920
1396.000000	0.438837
1397.000000	0.438221
1398.000000	0.437264
1399.000000	0.436277
1400.000000	0.435194
1401.000000	0.433737
1402.000000	0.432160
1403.000000	0.430257
1404.000000	0.428232
1405.000000	0.426116
1406.000000	0.423968
1407.000000	0.421956
1408.000000	0.419850
1409.000000	0.417739
1410.000000	0.415750
1411.000000	0.413698
1412.000000	0.411626
1413.000000	0.409638
1414.000000	0.407747
1415.000000	0.406081
1416.000000	0.404318
1417.000000	0.402543
1418.000000	0.400928
1419.000000	0.399223
1420.000000	0.397609
1421.000000	0.396271
1422.000000	0.394711
1423.000000	0.393323
1424.000000	0.391940
1425.000000	0.390468
1426.000000	0.389007
1427.000000	0.387502
1428.000000	0.386134
1429.000000	0.384821
1430.000000	0.383535
1431.000000	0.382439
1432.000000	0.381305
1433.000000	0.380180
1434.000000	0.379066
1435.000000	0.378130
1436.000000	0.377087
1437.000000	0.375970
1438.000000	0.374857
1439.000000	0.373731
1440.000000	0.372779
1441.000000	0.371911
1442.000000	0.371072
1443.000000	0.370327
1444.000000	0.369483
1445.000000	0.368463
1446.000000	0.367579
1447.000000	0.366811
1448.000000	0.366059
1449.000000	0.365348
1450.000000	0.364597
1451.000000	0.363880
1452.000000	0.363159
1453.000000	0.362563
1454.000000	0.362162
1455.000000	0.361758
1456.000000	0.361382
1457.000000	0.360994
1458.000000	0.360527
1459.000000	0.360100
1460.000000	0.359720
1461.000000	0.359380
1462.000000	0.359171
1463.000000	0.358865
1464.000000	0.358508
1465.000000	0.358308
1466.000000	0.358112
1467.000000	0.357981
1468.000000	0.357977
1469.000000	0.358185
1470.000000	0.358367
1471.000000	0.358484
1472.000000	0.358681
1473.000000	0.359026
1474.000000	0.359333
1475.000000	0.359721
1476.000000	0.360249
1477.000000	0.360781
1478.000000	0.361278
1479.000000	0.361896
1480.000000	0.362664
1481.000000	0.363310
1482.000000	0.363909
1483.000000	0.364639
1484.000000	0.365441
1485.000000	0.366128
1486.000000	0.366798
1487.000000	0.367499
1488.000000	0.368102
1489.000000	0.368871
1490.000000	0.369663
1491.000000	0.370488
1492.000000	0.371366
1493.000000	0.372120
1494.000000	0.372765
1495.000000	0.373432
1496.000000	0.374062
1497.000000	0.374678
1498.000000	0.375357
1499.000000	0.375870
1500.000000	0.376363
1501.000000	0.377026
1502.000000	0.377766
1503.000000	0.378582
1504.000000	0.379424
1505.000000	0.380042
1506.000000	0.380531
1507.000000	0.381003
1508.000000	0.381529
1509.000000	0.382125
1510.000000	0.382676
1511.000000	0.383241
1512.000000	0.383710
1513.000000	0.384109
1514.000000	0.384575
1515.000000	0.385070
1516.000000	0.385573
1517.000000	0.385855
1518.000000	0.386083
1519.000000	0.386239
1520.000000	0.386439
1521.000000	0.386731
1522.000000	0.387030
1523.000000	0.387383
1524.000000	0.387622
1525.000000	0.387934
1526.000000	0.388330
1527.000000	0.388605
1528.000000	0.388945
1529.000000	0.389249
1530.000000	0.389337
1531.000000	0.389507
1532.000000	0.389681
1533.000000	0.389820
1534.000000	0.390097
1535.000000	0.390438
1536.000000	0.390644
1537.000000	0.390940
1538.000000	0.391217
1539.000000	0.391303
1540.000000	0.391396
1541.000000	0.391520
1542.000000	0.391784
1543.000000	0.392030
1544.000000	0.392277
1545.000000	0.392692
1546.000000	0.392809
1547.000000	0.392857
1548.000000	0.393057
1549.000000	0.393060
1550.000000	0.393015
1551.000000	0.393079
1552.000000	0.393068
1553.000000	0.392972
1554.000000	0.393046
1555.000000	0.393088
1556.000000	0.393034
1557.000000	0.393107
1558.000000	0.393153
1559.000000	0.393046
1560.000000	0.393010
1561.000000	0.393111
1562.000000	0.393120
1563.000000	0.393141
1564.000000	0.393192
1565.000000	0.393234
1566.000000	0.393159
1567.000000	0.393181
1568.000000	0.393133
1569.000000	0.393094
1570.000000	0.393060
1571.000000	0.392939
1572.000000	0.392909
1573.000000	0.392965
1574.000000	0.392982
1575.000000	0.393081
1576.000000	0.393153
1577.000000	0.393125
1578.000000	0.393162
1579.000000	0.393321
1580.000000	0.393410
1581.000000	0.393644
1582.000000	0.393679
1583.000000	0.393545
1584.000000	0.393479
1585.000000	0.393437
1586.000000	0.393458
1587.000000	0.393540
1588.000000	0.393605
1589.000000	0.393684
1590.000000	0.393756
1591.000000	0.393898
1592.000000	0.394027
1593.000000	0.394203
1594.000000	0.394256
1595.000000	0.394321
1596.000000	0.394369
1597.000000	0.394345
1598.000000	0.394369
1599.000000	0.394487
1600.000000	0.394432
1601.000000	0.394350
1602.000000	0.394361
1603.000000	0.394363
1604.000000	0.394461
1605.000000	0.394764
1606.000000	0.394867
1607.000000	0.394957
1608.000000	0.395048
1609.000000	0.395095
1610.000000	0.395177
1611.000000	0.395359
1612.000000	0.395543
1613.000000	0.395875
1614.000000	0.396067
1615.000000	0.396300
1616.000000	0.396440
1617.000000	0.396368
1618.000000	0.396439
1619.000000	0.396454
1620.000000	0.396670
1621.000000	0.397117
1622.000000	0.397502
1623.000000	0.397943
1624.000000	0.398286
1625.000000	0.398367
1626.000000	0.398524
1627.000000	0.398715
1628.000000	0.398988
1629.000000	0.399213
1630.000000	0.399613
1631.000000	0.400108
1632.000000	0.400491
1633.000000	0.400912
1634.000000	0.401368
1635.000000	0.401880
1636.000000	0.402260
1637.000000	0.402713
1638.000000	0.403002
1639.000000	0.403112
1640.000000	0.403346
1641.000000	0.403653
1642.000000	0.404026
1643.000000	0.404588
1644.000000	0.404912
1645.000000	0.405150
1646.000000	0.405382
1647.000000	0.405479
1648.000000	0.405676
1649.000000	0.406095
1650.000000	0.406470
1651.000000	0.406870
1652.000000	0.407299
1653.000000	0.407683
1654.000000	0.408150
1655.000000	0.408613
1656.000000	0.408922
1657.000000	0.409324
1658.000000	0.409678
1659.000000	0.410045
1660.000000	0.410439
1661.000000	0.410758
1662.000000	0.411111
1663.000000	0.411366
1664.000000	0.411731
1665.000000	0.412243
1666.000000	0.412632
1667.000000	0.412898
1668.000000	0.413200
1669.000000	0.413366
1670.000000	0.413591
1671.000000	0.413985
1672.000000	0.414330
1673.000000	0.414653
1674.000000	0.414976
1675.000000	0.415359
1676.000000	0.415754
1677.000000	0.416012
1678.000000	0.416145
1679.000000	0.416315
1680.000000	0.416564
1681.000000	0.416772
1682.000000	0.417098
1683.000000	0.417538
1684.000000	0.417915
1685.000000	0.418279
1686.000000	0.418450
1687.000000	0.418523
1688.000000	0.418571
1689.000000	0.418612
1690.000000	0.418654
1691.000000	0.418958
1692.000000	0.419147
1693.000000	0.419275
1694.000000	0.419487
1695.000000	0.419679
1696.000000	0.419844
1697.000000	0.419887
1698.000000	0.419894
1699.000000	0.420017
1700.000000	0.420099
1701.000000	0.420345
1702.000000	0.420600
1703.000000	0.420684
1704.000000	0.420777
1705.000000	0.420921
1706.000000	0.421046
1707.000000	0.421213
1708.000000	0.421408
1709.000000	0.421558
1710.000000	0.421854
1711.000000	0.422081
1712.000000	0.422341
1713.000000	0.422532
1714.000000	0.422638
1715.000000	0.422870
1716.000000	0.423159
1717.000000	0.423453
1718.000000	0.423830
1719.000000	0.424085
1720.000000	0.424298
1721.000000	0.424602
1722.000000	0.424976
1723.000000	0.425205
1724.000000	0.425470
1725.000000	0.425711
1726.000000	0.425666
1727.000000	0.425798
1728.000000	0.425907
1729.000000	0.426074
1730.000000	0.426514
1731.000000	0.426786
1732.000000	0.427182
1733.000000	0.427375
1734.000000	0.427113
1735.000000	0.427202
1736.000000	0.427257
1737.000000	0.427439
1738.000000	0.427860
1739.000000	0.428156
1740.000000	0.428391
1741.000000	0.428678
1742.000000	0.429020
1743.000000	0.429380
1744.000000	0.429799
1745.000000	0.429926
1746.000000	0.429910
1747.000000	0.430028
1748.000000	0.429959
1749.000000	0.429813
1750.000000	0.429775
1751.000000	0.429812
1752.000000	0.429962
1753.000000	0.430174
1754.000000	0.430334
1755.000000	0.430272
1756.000000	0.430359
1757.000000	0.430576
1758.000000	0.430792
1759.000000	0.431178
1760.000000	0.431324
1761.000000	0.431206
1762.000000	0.431220
1763.000000	0.431174
1764.000000	0.431178
1765.000000	0.431269
1766.000000	0.431338
1767.000000	0.431178
1768.000000	0.431198
1769.000000	0.431501
1770.000000	0.431729
1771.000000	0.432007
1772.000000	0.432136
1773.000000	0.431981
1774.000000	0.432164
1775.000000	0.432513
1776.000000	0.432860
1777.000000	0.433447
1778.000000	0.433670
1779.000000	0.433634
1780.000000	0.433820
1781.000000	0.433932
1782.000000	0.434033
1783.000000	0.434279
1784.000000	0.434467
1785.000000	0.434596
1786.000000	0.434987
1787.000000	0.435336
1788.000000	0.435505
1789.000000	0.435475
1790.000000	0.435420
1791.000000	0.435383
1792.000000	0.435398
1793.000000	0.435589
1794.000000	0.435957
1795.000000	0.436298
1796.000000	0.436797
1797.000000	0.437211
1798.000000	0.437647
1799.000000	0.437858
1800.000000	0.437918
1801.000000	0.438909
1802.000000	0.438652
1803.000000	0.435862
1804.000000	0.435646
1805.000000	0.436062
1806.000000	0.436384
1807.000000	0.438024
1808.000000	0.438704
1809.000000	0.438242
1810.000000	0.438997
1811.000000	0.439340
1812.000000	0.439641
1813.000000	0.439693
1814.000000	0.439983
1815.000000	0.439773
1816.000000	0.438730
1817.000000	0.438235
1818.000000	0.437460
1819.000000	0.437807
1820.000000	0.438205
1821.000000	0.438451
1822.000000	0.438751
1823.000000	0.439369
1824.000000	0.438970
1825.000000	0.437685
1826.000000	0.437345
1827.000000	0.436637
1828.000000	0.436066
1829.000000	0.436531
1830.000000	0.437045
1831.000000	0.437190
1832.000000	0.437301
1833.000000	0.437134
1834.000000	0.436749
1835.000000	0.436366
1836.000000	0.435300
1837.000000	0.434809
1838.000000	0.434560
1839.000000	0.433918
1840.000000	0.433760
1841.000000	0.434292
1842.000000	0.434379
1843.000000	0.434809
1844.000000	0.434588
1845.000000	0.433477
1846.000000	0.432957
1847.000000	0.431945
1848.000000	0.431476
1849.000000	0.431458
1850.000000	0.431432
1851.000000	0.430676
1852.000000	0.429201
1853.000000	0.427897
1854.000000	0.425895
1855.000000	0.424358
1856.000000	0.422948
1857.000000	0.421765
1858.000000	0.419738
1859.000000	0.417147
1860.000000	0.414370
1861.000000	0.411999
1862.000000	0.409774
1863.000000	0.408028
1864.000000	0.406261
1865.000000	0.404862
1866.000000	0.402830
1867.000000	0.400931
1868.000000	0.398367
1869.000000	0.395119
1870.000000	0.391661
1871.000000	0.387845
1872.000000	0.384744
1873.000000	0.381087
1874.000000	0.377225
1875.000000	0.373126
1876.000000	0.368933
1877.000000	0.363257
1878.000000	0.357606
1879.000000	0.352301
1880.000000	0.346596
1881.000000	0.341557
1882.000000	0.336826
1883.000000	0.330980
1884.000000	0.325198
1885.000000	0.318867
1886.000000	0.312701
1887.000000	0.306145
1888.000000	0.299956
1889.000000	0.293636
1890.000000	0.287160
1891.000000	0.280285
1892.000000	0.273286
1893.000000	0.267113
1894.000000	0.261451
1895.000000	0.255593
1896.000000	0.250140
1897.000000	0.244983
1898.000000	0.239384
1899.000000	0.233332
1900.000000	0.228380
1901.000000	0.223554
1902.000000	0.218666
1903.000000	0.214586
1904.000000	0.209651
1905.000000	0.205591
1906.000000	0.202219
1907.000000	0.199701
1908.000000	0.197038
1909.000000	0.195123
1910.000000	0.192310
1911.000000	0.188707
1912.000000	0.185556
1913.000000	0.183428
1914.000000	0.181615
1915.000000	0.179776
1916.000000	0.178533
1917.000000	0.176885
1918.000000	0.174748
1919.000000	0.172822
1920.000000	0.171700
1921.000000	0.170514
1922.000000	0.169768
1923.000000	0.169253
1924.000000	0.168558
1925.000000	0.168248
1926.000000	0.167717
1927.000000	0.167543
1928.000000	0.167423
1929.000000	0.167665
1930.000000	0.167295
1931.000000	0.167505
1932.000000	0.167561
1933.000000	0.167133
1934.000000	0.167367
1935.000000	0.167146
1936.000000	0.166895
1937.000000	0.167212
1938.000000	0.167088
1939.000000	0.166923
1940.000000	0.166790
1941.000000	0.166351
1942.000000	0.165885
1943.000000	0.165851
1944.000000	0.165884
1945.000000	0.166064
1946.000000	0.165875
1947.000000	0.165793
1948.000000	0.165945
1949.000000	0.165835
1950.000000	0.165408
1951.000000	0.164857
1952.000000	0.164003
1953.000000	0.162850
1954.000000	0.162168
1955.000000	0.162235
1956.000000	0.161709
1957.000000	0.160941
1958.000000	0.160576
1959.000000	0.160441
1960.000000	0.160758
1961.000000	0.161352
1962.000000	0.161461
1963.000000	0.161404
1964.000000	0.160714
1965.000000	0.160016
1966.000000	0.159587
1967.000000	0.159561
1968.000000	0.159502
1969.000000	0.159489
1970.000000	0.159563
1971.000000	0.159217
1972.000000	0.159365
1973.000000	0.159727
1974.000000	0.160579
1975.000000	0.161254
1976.000000	0.162374
1977.000000	0.162987
1978.000000	0.162860
1979.000000	0.162771
1980.000000	0.162956
1981.000000	0.163154
1982.000000	0.163826
1983.000000	0.164708
1984.000000	0.165554
1985.000000	0.166410
1986.000000	0.167310
1987.000000	0.168458
1988.000000	0.169628
1989.000000	0.169780
1990.000000	0.169797
1991.000000	0.170151
1992.000000	0.170319
1993.000000	0.171299
1994.000000	0.172869
1995.000000	0.174336
1996.000000	0.175672
1997.000000	0.176967
1998.000000	0.178569
1999.000000	0.179901
2000.000000	0.181061
2001.000000	0.181846
2002.000000	0.183134
2003.000000	0.183439
2004.000000	0.183819
2005.000000	0.185078
2006.000000	0.186129
2007.000000	0.187353
2008.000000	0.188738
2009.000000	0.190344
2010.000000	0.191724
2011.000000	0.193162
2012.000000	0.194654
2013.000000	0.196100
2014.000000	0.197152
2015.000000	0.198813
2016.000000	0.200213
2017.000000	0.201224
2018.000000	0.203054
2019.000000	0.204623
2020.000000	0.205490
2021.000000	0.206617
2022.000000	0.207721
2023.000000	0.208564
2024.000000	0.209182
2025.000000	0.210204
2026.000000	0.211084
2027.000000	0.212141
2028.000000	0.213484
2029.000000	0.215123
2030.000000	0.216571
2031.000000	0.218325
2032.000000	0.220339
2033.000000	0.221857
2034.000000	0.223185
2035.000000	0.224336
2036.000000	0.225373
2037.000000	0.226012
2038.000000	0.227115
2039.000000	0.228379
2040.000000	0.229977
2041.000000	0.231349
2042.000000	0.232811
2043.000000	0.234238
2044.000000	0.234886
2045.000000	0.235889
2046.000000	0.237282
2047.000000	0.238513
2048.000000	0.240106
2049.000000	0.241231
2050.000000	0.241420
2051.000000	0.242336
2052.000000	0.243085
2053.000000	0.243937
2054.000000	0.245534
2055.000000	0.247199
2056.000000	0.247866
2057.000000	0.249138
2058.000000	0.249890
2059.000000	0.250408
2060.000000	0.251549
2061.000000	0.253037
2062.000000	0.254207
2063.000000	0.255931
2064.000000	0.256974
2065.000000	0.257823
2066.000000	0.258446
2067.000000	0.258886
2068.000000	0.259367
2069.000000	0.260273
2070.000000	0.261034
2071.000000	0.262206
2072.000000	0.263705
2073.000000	0.264387
2074.000000	0.265649
2075.000000	0.266912
2076.000000	0.268027
2077.000000	0.269313
2078.000000	0.271127
2079.000000	0.272289
2080.000000	0.273609
2081.000000	0.274643
2082.000000	0.275384
2083.000000	0.275524
2084.000000	0.275996
2085.000000	0.276195
2086.000000	0.277313
2087.000000	0.278986
2088.000000	0.280607
2089.000000	0.282562
2090.000000	0.284241
2091.000000	0.285901
2092.000000	0.287252
2093.000000	0.288624
2094.000000	0.289616
2095.000000	0.290150
2096.000000	0.290686
2097.000000	0.290899
2098.000000	0.291195
2099.000000	0.291296
2100.000000	0.291828
2101.000000	0.292916
2102.000000	0.293596
2103.000000	0.295302
2104.000000	0.297277
2105.000000	0.298973
2106.000000	0.301304
2107.000000	0.302890
2108.000000	0.303832
2109.000000	0.304765
2110.000000	0.304851
2111.000000	0.305515
2112.000000	0.306235
2113.000000	0.306956
2114.000000	0.307700
2115.000000	0.308677
2116.000000	0.309120
2117.000000	0.309526
2118.000000	0.310115
2119.000000	0.310546
2120.000000	0.311103
2121.000000	0.311709
2122.000000	0.312224
2123.000000	0.312868
2124.000000	0.313251
2125.000000	0.313163
2126.000000	0.313497
2127.000000	0.313806
2128.000000	0.314507
2129.000000	0.315579
2130.000000	0.316839
2131.000000	0.317264
2132.000000	0.318008
2133.000000	0.318944
2134.000000	0.319370
2135.000000	0.319935
2136.000000	0.321165
2137.000000	0.321837
2138.000000	0.322102
2139.000000	0.322407
2140.000000	0.322667
2141.000000	0.322667
2142.000000	0.322213
2143.000000	0.322030
2144.000000	0.322513
2145.000000	0.322293
2146.000000	0.321623
2147.000000	0.321481
2148.000000	0.321105
2149.000000	0.321644
2150.000000	0.322743
2151.000000	0.324189
2152.000000	0.325572
2153.000000	0.325496
2154.000000	0.325504
2155.000000	0.325069
2156.000000	0.324718
2157.000000	0.323918
2158.000000	0.323725
2159.000000	0.324048
2160.000000	0.324053
2161.000000	0.323982
2162.000000	0.323964
2163.000000	0.323565
2164.000000	0.323561
2165.000000	0.323769
2166.000000	0.323987
2167.000000	0.325243
2168.000000	0.326207
2169.000000	0.326591
2170.000000	0.326876
2171.000000	0.326772
2172.000000	0.325456
2173.000000	0.325265
2174.000000	0.325652
2175.000000	0.325877
2176.000000	0.326471
2177.000000	0.326715
2178.000000	0.326633
2179.000000	0.326814
2180.000000	0.327090
2181.000000	0.327622
2182.000000	0.328186
2183.000000	0.328102
2184.000000	0.326856
2185.000000	0.324795
2186.000000	0.323487
2187.000000	0.323610
2188.000000	0.324756
2189.000000	0.325688
2190.000000	0.324808
2191.000000	0.324423
2192.000000	0.324056
2193.000000	0.323251
2194.000000	0.323413
2195.000000	0.324536
2196.000000	0.324664
2197.000000	0.324746
2198.000000	0.324904
2199.000000	0.325400
2200.000000	0.325067
2201.000000	0.323649
2202.000000	0.323564
2203.000000	0.323695
2204.000000	0.321889
2205.000000	0.323622
2206.000000	0.326354
2207.000000	0.327248
2208.000000	0.329609
2209.000000	0.329118
2210.000000	0.327209
2211.000000	0.323515
2212.000000	0.321015
2213.000000	0.320542
2214.000000	0.321756
2215.000000	0.321632
2216.000000	0.323715
2217.000000	0.322764
2218.000000	0.318750
2219.000000	0.318174
2220.000000	0.317004
2221.000000	0.318753
2222.000000	0.324817
2223.000000	0.327568
2224.000000	0.330875
2225.000000	0.332515
2226.000000	0.332043
2227.000000	0.330891
2228.000000	0.328066
2229.000000	0.325487
2230.000000	0.324002
2231.000000	0.322585
2232.000000	0.323384
2233.000000	0.324027
2234.000000	0.323069
2235.000000	0.322424
2236.000000	0.322162
2237.000000	0.321532
2238.000000	0.322596
2239.000000	0.325121
2240.000000	0.326517
2241.000000	0.328657
2242.000000	0.329486
2243.000000	0.329416
2244.000000	0.329263
2245.000000	0.328455
2246.000000	0.327851
2247.000000	0.326872
2248.000000	0.326047
2249.000000	0.325520
2250.000000	0.323859
2251.000000	0.324513
2252.000000	0.325436
2253.000000	0.326912
2254.000000	0.329146
2255.000000	0.327702
2256.000000	0.325605
2257.000000	0.324177
2258.000000	0.323609
2259.000000	0.325433
2260.000000	0.325119
2261.000000	0.323914
2262.000000	0.321254
2263.000000	0.319784
2264.000000	0.317584
2265.000000	0.316794
2266.000000	0.317182
2267.000000	0.317010
2268.000000	0.317113
2269.000000	0.317437
2270.000000	0.317811
2271.000000	0.317691
2272.000000	0.318312
2273.000000	0.316954
2274.000000	0.313535
2275.000000	0.312490
2276.000000	0.311168
2277.000000	0.310537
2278.000000	0.313039
2279.000000	0.311333
2280.000000	0.308656
2281.000000	0.306132
2282.000000	0.302818
2283.000000	0.302008
2284.000000	0.302393
2285.000000	0.302153
2286.000000	0.298500
2287.000000	0.296427
2288.000000	0.295258
2289.000000	0.292370
2290.000000	0.292649
2291.000000	0.292223
2292.000000	0.289517
2293.000000	0.288162
2294.000000	0.286289
2295.000000	0.283185
2296.000000	0.281890
2297.000000	0.281401
2298.000000	0.280717
2299.000000	0.281891
2300.000000	0.281627
2301.000000	0.280791
2302.000000	0.279094
2303.000000	0.276089
2304.000000	0.272797
2305.000000	0.268625
2306.000000	0.265479
2307.000000	0.261539
2308.000000	0.260274
2309.000000	0.259870
2310.000000	0.256715
2311.000000	0.254362
2312.000000	0.251482
2313.000000	0.248055
2314.000000	0.248014
2315.000000	0.248589
2316.000000	0.248943
2317.000000	0.249226
2318.000000	0.248069
2319.000000	0.248772
2320.000000	0.250500
2321.000000	0.252239
2322.000000	0.253602
2323.000000	0.255211
2324.000000	0.256350
2325.000000	0.257541
2326.000000	0.260543
2327.000000	0.259976
2328.000000	0.258730
2329.000000	0.259243
2330.000000	0.256343
2331.000000	0.253886
2332.000000	0.253947
2333.000000	0.252022
2334.000000	0.251307
2335.000000	0.249829
2336.000000	0.247470
2337.000000	0.245123
2338.000000	0.241300
2339.000000	0.238529
2340.000000	0.237435
2341.000000	0.236519
2342.000000	0.236055
2343.000000	0.235821
2344.000000	0.235523
2345.000000	0.235062
2346.000000	0.234845
2347.000000	0.233529
2348.000000	0.232125
2349.000000	0.231032
2350.000000	0.227647
2351.000000	0.226155
2352.000000	0.224979
2353.000000	0.224399
2354.000000	0.223180
2355.000000	0.220297
2356.000000	0.217641
2357.000000	0.216217
2358.000000	0.216718
2359.000000	0.216418
2360.000000	0.215567
2361.000000	0.214518
2362.000000	0.209228
2363.000000	0.206000
2364.000000	0.204992
2365.000000	0.203809
2366.000000	0.205069
2367.000000	0.202769
2368.000000	0.202209
2369.000000	0.199703
2370.000000	0.194809
2371.000000	0.197147
2372.000000	0.196739
2373.000000	0.193987
2374.000000	0.192280
2375.000000	0.187781
2376.000000	0.182516
2377.000000	0.179581
2378.000000	0.178000
2379.000000	0.176712
2380.000000	0.176663
2381.000000	0.177995
2382.000000	0.173706
2383.000000	0.172348
2384.000000	0.178049
2385.000000	0.175428
2386.000000	0.176108
2387.000000	0.175517
2388.000000	0.165382
2389.000000	0.160239
2390.000000	0.157026
2391.000000	0.157252
2392.000000	0.161512
2393.000000	0.162910
2394.000000	0.167147
2395.000000	0.166537
2396.000000	0.162519
2397.000000	0.165717
2398.000000	0.163331
2399.000000	0.161725
2400.000000	0.167560
2401.000000	0.168951
2402.000000	0.169795
2403.000000	0.174315
2404.000000	0.167630
2405.000000	0.154773
2406.000000	0.147821
2407.000000	0.135924
2408.000000	0.131815
2409.000000	0.134700
2410.000000	0.137380
2411.000000	0.146295
2412.000000	0.147971
2413.000000	0.149836
2414.000000	0.153706
2415.000000	0.148917
2416.000000	0.149317
2417.000000	0.154918
2418.000000	0.146145
2419.000000	0.137105
2420.000000	0.135068
2421.000000	0.124393
2422.000000	0.125024
2423.000000	0.138917
2424.000000	0.144491
2425.000000	0.149751
2426.000000	0.156266
2427.000000	0.146368
2428.000000	0.133290
2429.000000	0.130237
2430.000000	0.115439
2431.000000	0.106986
2432.000000	0.116420
2433.000000	0.123435
2434.000000	0.134427
2435.000000	0.146073
2436.000000	0.149853
2437.000000	0.140966
2438.000000	0.125434
2439.000000	0.113786
2440.000000	0.112117
2441.000000	0.116286
2442.000000	0.120865
2443.000000	0.131314
2444.000000	0.127381
2445.000000	0.119344
2446.000000	0.123260
2447.000000	0.120588
2448.000000	0.117343
2449.000000	0.115288
2450.000000	0.115808
2451.000000	0.124160
2452.000000	0.128841
2453.000000	0.127835
2454.000000	0.130805
2455.000000	0.137800
2456.000000	0.139290
2457.000000	0.156799
2458.000000	0.173740
2459.000000	0.166103
2460.000000	0.168752
2461.000000	0.161454
2462.000000	0.132112
2463.000000	0.119898
2464.000000	0.118840
2465.000000	0.099590
2466.000000	0.097130
2467.000000	0.103470
2468.000000	0.084309
2469.000000	0.078707
2470.000000	0.073090
2471.000000	0.077496
2472.000000	0.094840
2473.000000	0.094003
2474.000000	0.110576
2475.000000	0.109602
2476.000000	0.083104
2477.000000	0.090732
2478.000000	0.088082
2479.000000	0.079025
2480.000000	0.106525
2481.000000	0.112561
2482.000000	0.103911
2483.000000	0.100207
2484.000000	0.057772
2485.000000	0.042600
2486.000000	0.049132
2487.000000	0.020366
2488.000000	0.008651
2489.000000	0.009711
2490.000000	0.000440
2491.000000	0.080296
2492.000000	0.096465
2493.000000	0.083286
2494.000000	0.083338
2495.000000	0.048847
2496.000000	0.018239
2497.000000	-0.032933
2498.000000	-0.035707
2499.000000	0.014311
2500.000000	0.028418
