# Wavelength	SM1200H-40_HEX-40_FV7-20_00000.asd.rts.txt
350.000000	0.339022
351.000000	0.358184
352.000000	0.357212
353.000000	0.340167
354.000000	0.323398
355.000000	0.336982
356.000000	0.343780
357.000000	0.339505
358.000000	0.335340
359.000000	0.330838
360.000000	0.326776
361.000000	0.324134
362.000000	0.329937
363.000000	0.340076
364.000000	0.347480
365.000000	0.339558
366.000000	0.338426
367.000000	0.343369
368.000000	0.335186
369.000000	0.328165
370.000000	0.329122
371.000000	0.339579
372.000000	0.337325
373.000000	0.333747
374.000000	0.337588
375.000000	0.338803
376.000000	0.339746
377.000000	0.341663
378.000000	0.345799
379.000000	0.344073
380.000000	0.340644
381.000000	0.343573
382.000000	0.344996
383.000000	0.343871
384.000000	0.341304
385.000000	0.339569
386.000000	0.342185
387.000000	0.347248
388.000000	0.346436
389.000000	0.342485
390.000000	0.340737
391.000000	0.345870
392.000000	0.346267
393.000000	0.345782
394.000000	0.347947
395.000000	0.347769
396.000000	0.348038
397.000000	0.349354
398.000000	0.349460
399.000000	0.350224
400.000000	0.351238
401.000000	0.351097
402.000000	0.351678
403.000000	0.352685
404.000000	0.353570
405.000000	0.353196
406.000000	0.353245
407.000000	0.354098
408.000000	0.353529
409.000000	0.353592
410.000000	0.354625
411.000000	0.355987
412.000000	0.356373
413.000000	0.356174
414.000000	0.356240
415.000000	0.357286
416.000000	0.357676
417.000000	0.356959
418.000000	0.357583
419.000000	0.358089
420.000000	0.358386
421.000000	0.359504
422.000000	0.359818
423.000000	0.359763
424.000000	0.360401
425.000000	0.360814
426.000000	0.360890
427.000000	0.360775
428.000000	0.361182
429.000000	0.361627
430.000000	0.361951
431.000000	0.362432
432.000000	0.362504
433.000000	0.362447
434.000000	0.363044
435.000000	0.363398
436.000000	0.363590
437.000000	0.363782
438.000000	0.363655
439.000000	0.363955
440.000000	0.364857
441.000000	0.364841
442.000000	0.364852
443.000000	0.365172
444.000000	0.365944
445.000000	0.366145
446.000000	0.366244
447.000000	0.366715
448.000000	0.366805
449.000000	0.367046
450.000000	0.367664
451.000000	0.367551
452.000000	0.367721
453.000000	0.368233
454.000000	0.368388
455.000000	0.368802
456.000000	0.369388
457.000000	0.369549
458.000000	0.369817
459.000000	0.370251
460.000000	0.370800
461.000000	0.370914
462.000000	0.371072
463.000000	0.371255
464.000000	0.371254
465.000000	0.371405
466.000000	0.371687
467.000000	0.372055
468.000000	0.372242
469.000000	0.372289
470.000000	0.372554
471.000000	0.372939
472.000000	0.373280
473.000000	0.373507
474.000000	0.373593
475.000000	0.373718
476.000000	0.374077
477.000000	0.374379
478.000000	0.374489
479.000000	0.374606
480.000000	0.374583
481.000000	0.374712
482.000000	0.375125
483.000000	0.375525
484.000000	0.375874
485.000000	0.375940
486.000000	0.376015
487.000000	0.376536
488.000000	0.376941
489.000000	0.377141
490.000000	0.377307
491.000000	0.377574
492.000000	0.378022
493.000000	0.378457
494.000000	0.378662
495.000000	0.378823
496.000000	0.379073
497.000000	0.379587
498.000000	0.379948
499.000000	0.380158
500.000000	0.380416
501.000000	0.380766
502.000000	0.381156
503.000000	0.381355
504.000000	0.381480
505.000000	0.381665
506.000000	0.382002
507.000000	0.382318
508.000000	0.382673
509.000000	0.383022
510.000000	0.383271
511.000000	0.383608
512.000000	0.384031
513.000000	0.384289
514.000000	0.384574
515.000000	0.384920
516.000000	0.385223
517.000000	0.385534
518.000000	0.385868
519.000000	0.386136
520.000000	0.386519
521.000000	0.386930
522.000000	0.387287
523.000000	0.387461
524.000000	0.387725
525.000000	0.388087
526.000000	0.388477
527.000000	0.388780
528.000000	0.388913
529.000000	0.388949
530.000000	0.389181
531.000000	0.389549
532.000000	0.389848
533.000000	0.390072
534.000000	0.390350
535.000000	0.390711
536.000000	0.391163
537.000000	0.391444
538.000000	0.391632
539.000000	0.391922
540.000000	0.392246
541.000000	0.392556
542.000000	0.392851
543.000000	0.393015
544.000000	0.393260
545.000000	0.393574
546.000000	0.393865
547.000000	0.394172
548.000000	0.394542
549.000000	0.394910
550.000000	0.395284
551.000000	0.395655
552.000000	0.395950
553.000000	0.396293
554.000000	0.396607
555.000000	0.396862
556.000000	0.397208
557.000000	0.397545
558.000000	0.397961
559.000000	0.398243
560.000000	0.398463
561.000000	0.398785
562.000000	0.399195
563.000000	0.399488
564.000000	0.399749
565.000000	0.399973
566.000000	0.400318
567.000000	0.400696
568.000000	0.401025
569.000000	0.401392
570.000000	0.401762
571.000000	0.402112
572.000000	0.402460
573.000000	0.402781
574.000000	0.403035
575.000000	0.403269
576.000000	0.403534
577.000000	0.403774
578.000000	0.404034
579.000000	0.404317
580.000000	0.404604
581.000000	0.404893
582.000000	0.405238
583.000000	0.405544
584.000000	0.405833
585.000000	0.406194
586.000000	0.406499
587.000000	0.406785
588.000000	0.407102
589.000000	0.407330
590.000000	0.407531
591.000000	0.407761
592.000000	0.408024
593.000000	0.408307
594.000000	0.408595
595.000000	0.408875
596.000000	0.409115
597.000000	0.409366
598.000000	0.409571
599.000000	0.409684
600.000000	0.409908
601.000000	0.410267
602.000000	0.410545
603.000000	0.410719
604.000000	0.410826
605.000000	0.410939
606.000000	0.411123
607.000000	0.411329
608.000000	0.411421
609.000000	0.411598
610.000000	0.411839
611.000000	0.412063
612.000000	0.412250
613.000000	0.412446
614.000000	0.412699
615.000000	0.412830
616.000000	0.412965
617.000000	0.413082
618.000000	0.413154
619.000000	0.413266
620.000000	0.413384
621.000000	0.413518
622.000000	0.413661
623.000000	0.413804
624.000000	0.413935
625.000000	0.414041
626.000000	0.414168
627.000000	0.414341
628.000000	0.414547
629.000000	0.414774
630.000000	0.414873
631.000000	0.415016
632.000000	0.415142
633.000000	0.415270
634.000000	0.415407
635.000000	0.415573
636.000000	0.415762
637.000000	0.415943
638.000000	0.416135
639.000000	0.416308
640.000000	0.416480
641.000000	0.416471
642.000000	0.416509
643.000000	0.416632
644.000000	0.416811
645.000000	0.416914
646.000000	0.417066
647.000000	0.417298
648.000000	0.417433
649.000000	0.417610
650.000000	0.417807
651.000000	0.417863
652.000000	0.417978
653.000000	0.418175
654.000000	0.418289
655.000000	0.418459
656.000000	0.418679
657.000000	0.418841
658.000000	0.419009
659.000000	0.419191
660.000000	0.419363
661.000000	0.419517
662.000000	0.419631
663.000000	0.419785
664.000000	0.419974
665.000000	0.420097
666.000000	0.420206
667.000000	0.420329
668.000000	0.420441
669.000000	0.420541
670.000000	0.420660
671.000000	0.420871
672.000000	0.421112
673.000000	0.421325
674.000000	0.421476
675.000000	0.421551
676.000000	0.421601
677.000000	0.421717
678.000000	0.421877
679.000000	0.422060
680.000000	0.422254
681.000000	0.422397
682.000000	0.422632
683.000000	0.422855
684.000000	0.423025
685.000000	0.423133
686.000000	0.423239
687.000000	0.423353
688.000000	0.423499
689.000000	0.423675
690.000000	0.423900
691.000000	0.424082
692.000000	0.424179
693.000000	0.424299
694.000000	0.424493
695.000000	0.424611
696.000000	0.424680
697.000000	0.424799
698.000000	0.424973
699.000000	0.425135
700.000000	0.425252
701.000000	0.425380
702.000000	0.425544
703.000000	0.425693
704.000000	0.425741
705.000000	0.425844
706.000000	0.425968
707.000000	0.426124
708.000000	0.426221
709.000000	0.426344
710.000000	0.426582
711.000000	0.426785
712.000000	0.426997
713.000000	0.427246
714.000000	0.427439
715.000000	0.427604
716.000000	0.427762
717.000000	0.427893
718.000000	0.428007
719.000000	0.428083
720.000000	0.428143
721.000000	0.428270
722.000000	0.428357
723.000000	0.428451
724.000000	0.428557
725.000000	0.428586
726.000000	0.428660
727.000000	0.428759
728.000000	0.428888
729.000000	0.429036
730.000000	0.429130
731.000000	0.429264
732.000000	0.429412
733.000000	0.429583
734.000000	0.429662
735.000000	0.429669
736.000000	0.429770
737.000000	0.429835
738.000000	0.429879
739.000000	0.429973
740.000000	0.429960
741.000000	0.430072
742.000000	0.430196
743.000000	0.430264
744.000000	0.430370
745.000000	0.430475
746.000000	0.430602
747.000000	0.430652
748.000000	0.430748
749.000000	0.430865
750.000000	0.430929
751.000000	0.430986
752.000000	0.431050
753.000000	0.431126
754.000000	0.431165
755.000000	0.431244
756.000000	0.431363
757.000000	0.431428
758.000000	0.431432
759.000000	0.431462
760.000000	0.431489
761.000000	0.431619
762.000000	0.431779
763.000000	0.431914
764.000000	0.432086
765.000000	0.432151
766.000000	0.432162
767.000000	0.432196
768.000000	0.432277
769.000000	0.432320
770.000000	0.432319
771.000000	0.432375
772.000000	0.432490
773.000000	0.432567
774.000000	0.432652
775.000000	0.432703
776.000000	0.432772
777.000000	0.432854
778.000000	0.432856
779.000000	0.432877
780.000000	0.432939
781.000000	0.432958
782.000000	0.433012
783.000000	0.433160
784.000000	0.433194
785.000000	0.433170
786.000000	0.433172
787.000000	0.433210
788.000000	0.433167
789.000000	0.433164
790.000000	0.433173
791.000000	0.433162
792.000000	0.433152
793.000000	0.433149
794.000000	0.433162
795.000000	0.433180
796.000000	0.433183
797.000000	0.433182
798.000000	0.433243
799.000000	0.433330
800.000000	0.433420
801.000000	0.433489
802.000000	0.433478
803.000000	0.433505
804.000000	0.433631
805.000000	0.433592
806.000000	0.433500
807.000000	0.433476
808.000000	0.433433
809.000000	0.433372
810.000000	0.433365
811.000000	0.433436
812.000000	0.433511
813.000000	0.433553
814.000000	0.433560
815.000000	0.433597
816.000000	0.433591
817.000000	0.433604
818.000000	0.433584
819.000000	0.433532
820.000000	0.433559
821.000000	0.433579
822.000000	0.433419
823.000000	0.433367
824.000000	0.433346
825.000000	0.433329
826.000000	0.433355
827.000000	0.433352
828.000000	0.433336
829.000000	0.433297
830.000000	0.433208
831.000000	0.433148
832.000000	0.433022
833.000000	0.432986
834.000000	0.432950
835.000000	0.432887
836.000000	0.432884
837.000000	0.432750
838.000000	0.432531
839.000000	0.432405
840.000000	0.432380
841.000000	0.432416
842.000000	0.432412
843.000000	0.432412
844.000000	0.432429
845.000000	0.432406
846.000000	0.432318
847.000000	0.432289
848.000000	0.432258
849.000000	0.432185
850.000000	0.432130
851.000000	0.432042
852.000000	0.431980
853.000000	0.432006
854.000000	0.431963
855.000000	0.431984
856.000000	0.431998
857.000000	0.431946
858.000000	0.431918
859.000000	0.431833
860.000000	0.431641
861.000000	0.431481
862.000000	0.431451
863.000000	0.431490
864.000000	0.431495
865.000000	0.431415
866.000000	0.431289
867.000000	0.431179
868.000000	0.431025
869.000000	0.430829
870.000000	0.430756
871.000000	0.430639
872.000000	0.430488
873.000000	0.430254
874.000000	0.430031
875.000000	0.429945
876.000000	0.429925
877.000000	0.429730
878.000000	0.429498
879.000000	0.429358
880.000000	0.429190
881.000000	0.429119
882.000000	0.428940
883.000000	0.428730
884.000000	0.428567
885.000000	0.428354
886.000000	0.428153
887.000000	0.428030
888.000000	0.427919
889.000000	0.427828
890.000000	0.427641
891.000000	0.427527
892.000000	0.427474
893.000000	0.427421
894.000000	0.427414
895.000000	0.427109
896.000000	0.426824
897.000000	0.426597
898.000000	0.426379
899.000000	0.426237
900.000000	0.425985
901.000000	0.425634
902.000000	0.425671
903.000000	0.425653
904.000000	0.425586
905.000000	0.425444
906.000000	0.425338
907.000000	0.425148
908.000000	0.424909
909.000000	0.424578
910.000000	0.424266
911.000000	0.424024
912.000000	0.423877
913.000000	0.423727
914.000000	0.423529
915.000000	0.423369
916.000000	0.423194
917.000000	0.422946
918.000000	0.422720
919.000000	0.422546
920.000000	0.422323
921.000000	0.422144
922.000000	0.422001
923.000000	0.421791
924.000000	0.421451
925.000000	0.421076
926.000000	0.420811
927.000000	0.420715
928.000000	0.420433
929.000000	0.420082
930.000000	0.419907
931.000000	0.419870
932.000000	0.419599
933.000000	0.419201
934.000000	0.419148
935.000000	0.418912
936.000000	0.418635
937.000000	0.418337
938.000000	0.417798
939.000000	0.417513
940.000000	0.417361
941.000000	0.417082
942.000000	0.416789
943.000000	0.416622
944.000000	0.416407
945.000000	0.415986
946.000000	0.415460
947.000000	0.415132
948.000000	0.415111
949.000000	0.414804
950.000000	0.414599
951.000000	0.414466
952.000000	0.414123
953.000000	0.413758
954.000000	0.413484
955.000000	0.413262
956.000000	0.413135
957.000000	0.412983
958.000000	0.412615
959.000000	0.412076
960.000000	0.411750
961.000000	0.411670
962.000000	0.411639
963.000000	0.411330
964.000000	0.411075
965.000000	0.410979
966.000000	0.410816
967.000000	0.410262
968.000000	0.409881
969.000000	0.409656
970.000000	0.409468
971.000000	0.409370
972.000000	0.409110
973.000000	0.408663
974.000000	0.408554
975.000000	0.408231
976.000000	0.408000
977.000000	0.408095
978.000000	0.408031
979.000000	0.408280
980.000000	0.408245
981.000000	0.407725
982.000000	0.407439
983.000000	0.407366
984.000000	0.407289
985.000000	0.406689
986.000000	0.406307
987.000000	0.406201
988.000000	0.406053
989.000000	0.405571
990.000000	0.405561
991.000000	0.405632
992.000000	0.405273
993.000000	0.405270
994.000000	0.405192
995.000000	0.405110
996.000000	0.404937
997.000000	0.404709
998.000000	0.404675
999.000000	0.404931
1000.000000	0.404970
1001.000000	0.404718
1002.000000	0.404976
1003.000000	0.404882
1004.000000	0.404555
1005.000000	0.403711
1006.000000	0.403552
1007.000000	0.403746
1008.000000	0.403274
1009.000000	0.403342
1010.000000	0.402904
1011.000000	0.402397
1012.000000	0.402350
1013.000000	0.402440
1014.000000	0.402321
1015.000000	0.401936
1016.000000	0.402502
1017.000000	0.402640
1018.000000	0.402147
1019.000000	0.401990
1020.000000	0.401736
1021.000000	0.401440
1022.000000	0.401679
1023.000000	0.402035
1024.000000	0.402322
1025.000000	0.402887
1026.000000	0.402863
1027.000000	0.402138
1028.000000	0.402310
1029.000000	0.402395
1030.000000	0.402194
1031.000000	0.402513
1032.000000	0.402600
1033.000000	0.402125
1034.000000	0.401892
1035.000000	0.401712
1036.000000	0.402009
1037.000000	0.402596
1038.000000	0.402706
1039.000000	0.403193
1040.000000	0.403454
1041.000000	0.403118
1042.000000	0.402971
1043.000000	0.403045
1044.000000	0.403129
1045.000000	0.403284
1046.000000	0.403484
1047.000000	0.403659
1048.000000	0.403943
1049.000000	0.403945
1050.000000	0.403631
1051.000000	0.403810
1052.000000	0.404040
1053.000000	0.404155
1054.000000	0.405099
1055.000000	0.405273
1056.000000	0.404846
1057.000000	0.404595
1058.000000	0.404730
1059.000000	0.404504
1060.000000	0.404849
1061.000000	0.405848
1062.000000	0.406058
1063.000000	0.406253
1064.000000	0.406486
1065.000000	0.406364
1066.000000	0.406572
1067.000000	0.407022
1068.000000	0.407216
1069.000000	0.407348
1070.000000	0.407538
1071.000000	0.407764
1072.000000	0.407960
1073.000000	0.408261
1074.000000	0.408487
1075.000000	0.408646
1076.000000	0.408807
1077.000000	0.409190
1078.000000	0.409381
1079.000000	0.409313
1080.000000	0.408992
1081.000000	0.409026
1082.000000	0.409028
1083.000000	0.409190
1084.000000	0.409775
1085.000000	0.410136
1086.000000	0.410366
1087.000000	0.410578
1088.000000	0.410753
1089.000000	0.410928
1090.000000	0.411144
1091.000000	0.410915
1092.000000	0.410975
1093.000000	0.411118
1094.000000	0.411246
1095.000000	0.411265
1096.000000	0.411476
1097.000000	0.411807
1098.000000	0.412101
1099.000000	0.412442
1100.000000	0.412710
1101.000000	0.412822
1102.000000	0.413034
1103.000000	0.413329
1104.000000	0.413452
1105.000000	0.413472
1106.000000	0.413598
1107.000000	0.413523
1108.000000	0.413512
1109.000000	0.413867
1110.000000	0.413918
1111.000000	0.414028
1112.000000	0.414018
1113.000000	0.414238
1114.000000	0.414521
1115.000000	0.414838
1116.000000	0.415411
1117.000000	0.415656
1118.000000	0.415833
1119.000000	0.415814
1120.000000	0.415383
1121.000000	0.415321
1122.000000	0.415439
1123.000000	0.415760
1124.000000	0.416107
1125.000000	0.416399
1126.000000	0.416594
1127.000000	0.416705
1128.000000	0.416765
1129.000000	0.416762
1130.000000	0.416976
1131.000000	0.417323
1132.000000	0.417391
1133.000000	0.417563
1134.000000	0.417672
1135.000000	0.417525
1136.000000	0.417393
1137.000000	0.417226
1138.000000	0.417144
1139.000000	0.417149
1140.000000	0.417171
1141.000000	0.417236
1142.000000	0.417316
1143.000000	0.417237
1144.000000	0.417327
1145.000000	0.417244
1146.000000	0.417216
1147.000000	0.417349
1148.000000	0.417479
1149.000000	0.417486
1150.000000	0.417693
1151.000000	0.417656
1152.000000	0.417220
1153.000000	0.417061
1154.000000	0.416873
1155.000000	0.416777
1156.000000	0.416835
1157.000000	0.416796
1158.000000	0.416707
1159.000000	0.416629
1160.000000	0.416423
1161.000000	0.416327
1162.000000	0.416331
1163.000000	0.416575
1164.000000	0.416751
1165.000000	0.416758
1166.000000	0.416902
1167.000000	0.417059
1168.000000	0.417062
1169.000000	0.417113
1170.000000	0.417096
1171.000000	0.416916
1172.000000	0.416912
1173.000000	0.416965
1174.000000	0.416962
1175.000000	0.416948
1176.000000	0.416905
1177.000000	0.416861
1178.000000	0.416885
1179.000000	0.417067
1180.000000	0.417006
1181.000000	0.416940
1182.000000	0.416840
1183.000000	0.416978
1184.000000	0.416917
1185.000000	0.416825
1186.000000	0.416830
1187.000000	0.416738
1188.000000	0.416418
1189.000000	0.416246
1190.000000	0.416212
1191.000000	0.416167
1192.000000	0.416224
1193.000000	0.416381
1194.000000	0.416521
1195.000000	0.416635
1196.000000	0.416684
1197.000000	0.416688
1198.000000	0.416696
1199.000000	0.416718
1200.000000	0.416687
1201.000000	0.416685
1202.000000	0.416631
1203.000000	0.416454
1204.000000	0.416368
1205.000000	0.416396
1206.000000	0.416376
1207.000000	0.416655
1208.000000	0.416591
1209.000000	0.416378
1210.000000	0.416326
1211.000000	0.416233
1212.000000	0.416178
1213.000000	0.416297
1214.000000	0.416333
1215.000000	0.416245
1216.000000	0.416216
1217.000000	0.416260
1218.000000	0.416196
1219.000000	0.415987
1220.000000	0.416066
1221.000000	0.416261
1222.000000	0.416247
1223.000000	0.416450
1224.000000	0.416548
1225.000000	0.416160
1226.000000	0.415873
1227.000000	0.415847
1228.000000	0.415870
1229.000000	0.415804
1230.000000	0.415948
1231.000000	0.415889
1232.000000	0.415677
1233.000000	0.415712
1234.000000	0.415888
1235.000000	0.415948
1236.000000	0.415899
1237.000000	0.415990
1238.000000	0.416088
1239.000000	0.416122
1240.000000	0.416191
1241.000000	0.416108
1242.000000	0.416187
1243.000000	0.416216
1244.000000	0.416213
1245.000000	0.416369
1246.000000	0.416321
1247.000000	0.416305
1248.000000	0.416486
1249.000000	0.416543
1250.000000	0.416459
1251.000000	0.416520
1252.000000	0.416522
1253.000000	0.416493
1254.000000	0.416437
1255.000000	0.416414
1256.000000	0.416354
1257.000000	0.416231
1258.000000	0.416219
1259.000000	0.416190
1260.000000	0.416174
1261.000000	0.416051
1262.000000	0.416071
1263.000000	0.416178
1264.000000	0.416302
1265.000000	0.416561
1266.000000	0.416547
1267.000000	0.416477
1268.000000	0.416469
1269.000000	0.416318
1270.000000	0.416378
1271.000000	0.416441
1272.000000	0.416347
1273.000000	0.416237
1274.000000	0.416219
1275.000000	0.416172
1276.000000	0.416091
1277.000000	0.416191
1278.000000	0.416343
1279.000000	0.416318
1280.000000	0.416211
1281.000000	0.416087
1282.000000	0.415863
1283.000000	0.415837
1284.000000	0.415867
1285.000000	0.415841
1286.000000	0.415810
1287.000000	0.415750
1288.000000	0.415660
1289.000000	0.415526
1290.000000	0.415601
1291.000000	0.415647
1292.000000	0.415524
1293.000000	0.415570
1294.000000	0.415374
1295.000000	0.414981
1296.000000	0.414805
1297.000000	0.414658
1298.000000	0.414668
1299.000000	0.414815
1300.000000	0.414871
1301.000000	0.414829
1302.000000	0.414652
1303.000000	0.414318
1304.000000	0.414155
1305.000000	0.414183
1306.000000	0.414126
1307.000000	0.414235
1308.000000	0.414278
1309.000000	0.414191
1310.000000	0.414162
1311.000000	0.414243
1312.000000	0.414143
1313.000000	0.414013
1314.000000	0.413916
1315.000000	0.413736
1316.000000	0.413692
1317.000000	0.413565
1318.000000	0.413425
1319.000000	0.413236
1320.000000	0.412954
1321.000000	0.412782
1322.000000	0.412676
1323.000000	0.412603
1324.000000	0.412517
1325.000000	0.412333
1326.000000	0.411994
1327.000000	0.411603
1328.000000	0.411412
1329.000000	0.411151
1330.000000	0.411014
1331.000000	0.410764
1332.000000	0.410482
1333.000000	0.410216
1334.000000	0.409945
1335.000000	0.409795
1336.000000	0.409770
1337.000000	0.409639
1338.000000	0.409437
1339.000000	0.409210
1340.000000	0.409039
1341.000000	0.408894
1342.000000	0.408812
1343.000000	0.408724
1344.000000	0.408435
1345.000000	0.408075
1346.000000	0.407851
1347.000000	0.407550
1348.000000	0.407305
1349.000000	0.407039
1350.000000	0.406782
1351.000000	0.406498
1352.000000	0.406273
1353.000000	0.406043
1354.000000	0.405745
1355.000000	0.405462
1356.000000	0.405279
1357.000000	0.405096
1358.000000	0.405030
1359.000000	0.404882
1360.000000	0.404603
1361.000000	0.404197
1362.000000	0.403891
1363.000000	0.403467
1364.000000	0.403230
1365.000000	0.403192
1366.000000	0.402983
1367.000000	0.402768
1368.000000	0.402391
1369.000000	0.402151
1370.000000	0.401643
1371.000000	0.401029
1372.000000	0.400503
1373.000000	0.399748
1374.000000	0.398923
1375.000000	0.398114
1376.000000	0.397257
1377.000000	0.396145
1378.000000	0.394905
1379.000000	0.393530
1380.000000	0.391706
1381.000000	0.389524
1382.000000	0.387281
1383.000000	0.384945
1384.000000	0.382365
1385.000000	0.379918
1386.000000	0.377729
1387.000000	0.375685
1388.000000	0.373927
1389.000000	0.372545
1390.000000	0.371615
1391.000000	0.370911
1392.000000	0.370464
1393.000000	0.370198
1394.000000	0.370323
1395.000000	0.370388
1396.000000	0.370749
1397.000000	0.370686
1398.000000	0.370538
1399.000000	0.370172
1400.000000	0.369408
1401.000000	0.368713
1402.000000	0.368069
1403.000000	0.367252
1404.000000	0.366295
1405.000000	0.365298
1406.000000	0.364172
1407.000000	0.363080
1408.000000	0.361929
1409.000000	0.360782
1410.000000	0.359794
1411.000000	0.358651
1412.000000	0.357639
1413.000000	0.356998
1414.000000	0.356258
1415.000000	0.355490
1416.000000	0.354783
1417.000000	0.354034
1418.000000	0.353274
1419.000000	0.352680
1420.000000	0.352080
1421.000000	0.351486
1422.000000	0.350863
1423.000000	0.350350
1424.000000	0.349788
1425.000000	0.349314
1426.000000	0.348871
1427.000000	0.348347
1428.000000	0.347856
1429.000000	0.347352
1430.000000	0.346862
1431.000000	0.346394
1432.000000	0.345933
1433.000000	0.345516
1434.000000	0.345129
1435.000000	0.344889
1436.000000	0.344576
1437.000000	0.344304
1438.000000	0.343833
1439.000000	0.343254
1440.000000	0.342820
1441.000000	0.342315
1442.000000	0.341954
1443.000000	0.341726
1444.000000	0.341334
1445.000000	0.340867
1446.000000	0.340553
1447.000000	0.340156
1448.000000	0.339666
1449.000000	0.339309
1450.000000	0.338909
1451.000000	0.338455
1452.000000	0.338153
1453.000000	0.337846
1454.000000	0.337425
1455.000000	0.337191
1456.000000	0.337108
1457.000000	0.336839
1458.000000	0.336626
1459.000000	0.336577
1460.000000	0.336424
1461.000000	0.336320
1462.000000	0.336324
1463.000000	0.336152
1464.000000	0.336070
1465.000000	0.336176
1466.000000	0.336173
1467.000000	0.336189
1468.000000	0.336141
1469.000000	0.336196
1470.000000	0.336366
1471.000000	0.336535
1472.000000	0.336744
1473.000000	0.336912
1474.000000	0.337110
1475.000000	0.337507
1476.000000	0.337827
1477.000000	0.338226
1478.000000	0.338651
1479.000000	0.338941
1480.000000	0.339412
1481.000000	0.339852
1482.000000	0.340329
1483.000000	0.340844
1484.000000	0.341458
1485.000000	0.341916
1486.000000	0.342234
1487.000000	0.342729
1488.000000	0.343355
1489.000000	0.343858
1490.000000	0.344226
1491.000000	0.344684
1492.000000	0.344975
1493.000000	0.345363
1494.000000	0.345879
1495.000000	0.346337
1496.000000	0.346714
1497.000000	0.347161
1498.000000	0.347676
1499.000000	0.348183
1500.000000	0.348553
1501.000000	0.348835
1502.000000	0.349117
1503.000000	0.349539
1504.000000	0.350142
1505.000000	0.350718
1506.000000	0.351157
1507.000000	0.351460
1508.000000	0.351669
1509.000000	0.351897
1510.000000	0.352238
1511.000000	0.352619
1512.000000	0.352963
1513.000000	0.353219
1514.000000	0.353449
1515.000000	0.353694
1516.000000	0.353986
1517.000000	0.354297
1518.000000	0.354541
1519.000000	0.354593
1520.000000	0.354708
1521.000000	0.354879
1522.000000	0.355154
1523.000000	0.355499
1524.000000	0.355644
1525.000000	0.355837
1526.000000	0.355946
1527.000000	0.355975
1528.000000	0.356181
1529.000000	0.356294
1530.000000	0.356287
1531.000000	0.356388
1532.000000	0.356472
1533.000000	0.356495
1534.000000	0.356551
1535.000000	0.356751
1536.000000	0.356888
1537.000000	0.356957
1538.000000	0.357105
1539.000000	0.357160
1540.000000	0.357164
1541.000000	0.357364
1542.000000	0.357585
1543.000000	0.357734
1544.000000	0.357998
1545.000000	0.358255
1546.000000	0.358487
1547.000000	0.358753
1548.000000	0.358919
1549.000000	0.359027
1550.000000	0.358963
1551.000000	0.358948
1552.000000	0.359087
1553.000000	0.359043
1554.000000	0.359094
1555.000000	0.359252
1556.000000	0.359263
1557.000000	0.359278
1558.000000	0.359295
1559.000000	0.359253
1560.000000	0.359159
1561.000000	0.359046
1562.000000	0.359012
1563.000000	0.359015
1564.000000	0.358981
1565.000000	0.358986
1566.000000	0.358915
1567.000000	0.358887
1568.000000	0.358920
1569.000000	0.359118
1570.000000	0.359116
1571.000000	0.358976
1572.000000	0.358936
1573.000000	0.358860
1574.000000	0.358830
1575.000000	0.358920
1576.000000	0.358991
1577.000000	0.359006
1578.000000	0.359025
1579.000000	0.359145
1580.000000	0.359221
1581.000000	0.359389
1582.000000	0.359458
1583.000000	0.359450
1584.000000	0.359451
1585.000000	0.359484
1586.000000	0.359522
1587.000000	0.359607
1588.000000	0.359616
1589.000000	0.359579
1590.000000	0.359537
1591.000000	0.359481
1592.000000	0.359492
1593.000000	0.359567
1594.000000	0.359582
1595.000000	0.359655
1596.000000	0.359728
1597.000000	0.359746
1598.000000	0.359852
1599.000000	0.360184
1600.000000	0.360208
1601.000000	0.360191
1602.000000	0.360213
1603.000000	0.360066
1604.000000	0.360053
1605.000000	0.360234
1606.000000	0.360272
1607.000000	0.360262
1608.000000	0.360335
1609.000000	0.360532
1610.000000	0.360585
1611.000000	0.360676
1612.000000	0.360718
1613.000000	0.360702
1614.000000	0.360739
1615.000000	0.360924
1616.000000	0.361060
1617.000000	0.361073
1618.000000	0.361158
1619.000000	0.361303
1620.000000	0.361323
1621.000000	0.361288
1622.000000	0.361447
1623.000000	0.361552
1624.000000	0.361715
1625.000000	0.361944
1626.000000	0.362027
1627.000000	0.362041
1628.000000	0.362096
1629.000000	0.362071
1630.000000	0.362213
1631.000000	0.362382
1632.000000	0.362473
1633.000000	0.362578
1634.000000	0.362770
1635.000000	0.363023
1636.000000	0.363223
1637.000000	0.363570
1638.000000	0.363725
1639.000000	0.363760
1640.000000	0.363852
1641.000000	0.364017
1642.000000	0.364132
1643.000000	0.364209
1644.000000	0.364375
1645.000000	0.364568
1646.000000	0.364721
1647.000000	0.364952
1648.000000	0.365089
1649.000000	0.365318
1650.000000	0.365480
1651.000000	0.365617
1652.000000	0.365861
1653.000000	0.366004
1654.000000	0.366229
1655.000000	0.366534
1656.000000	0.366644
1657.000000	0.366789
1658.000000	0.366882
1659.000000	0.366954
1660.000000	0.367153
1661.000000	0.367273
1662.000000	0.367462
1663.000000	0.367760
1664.000000	0.367888
1665.000000	0.367914
1666.000000	0.368168
1667.000000	0.368340
1668.000000	0.368518
1669.000000	0.368866
1670.000000	0.368945
1671.000000	0.368935
1672.000000	0.369053
1673.000000	0.369076
1674.000000	0.369219
1675.000000	0.369568
1676.000000	0.369787
1677.000000	0.369929
1678.000000	0.369865
1679.000000	0.369755
1680.000000	0.369768
1681.000000	0.369881
1682.000000	0.370178
1683.000000	0.370466
1684.000000	0.370470
1685.000000	0.370497
1686.000000	0.370528
1687.000000	0.370534
1688.000000	0.370672
1689.000000	0.370844
1690.000000	0.370950
1691.000000	0.371052
1692.000000	0.371058
1693.000000	0.371135
1694.000000	0.371126
1695.000000	0.371141
1696.000000	0.371224
1697.000000	0.371209
1698.000000	0.371173
1699.000000	0.371268
1700.000000	0.371389
1701.000000	0.371604
1702.000000	0.371783
1703.000000	0.371887
1704.000000	0.372077
1705.000000	0.372194
1706.000000	0.372326
1707.000000	0.372417
1708.000000	0.372339
1709.000000	0.372338
1710.000000	0.372513
1711.000000	0.372610
1712.000000	0.372754
1713.000000	0.372842
1714.000000	0.372876
1715.000000	0.372965
1716.000000	0.373121
1717.000000	0.373203
1718.000000	0.373235
1719.000000	0.373232
1720.000000	0.373190
1721.000000	0.373228
1722.000000	0.373350
1723.000000	0.373363
1724.000000	0.373388
1725.000000	0.373431
1726.000000	0.373238
1727.000000	0.373256
1728.000000	0.373426
1729.000000	0.373327
1730.000000	0.373307
1731.000000	0.373275
1732.000000	0.373062
1733.000000	0.373143
1734.000000	0.373258
1735.000000	0.373373
1736.000000	0.373552
1737.000000	0.373663
1738.000000	0.373776
1739.000000	0.373887
1740.000000	0.373918
1741.000000	0.374090
1742.000000	0.374370
1743.000000	0.374573
1744.000000	0.374824
1745.000000	0.374904
1746.000000	0.374839
1747.000000	0.374758
1748.000000	0.374753
1749.000000	0.374903
1750.000000	0.374906
1751.000000	0.375073
1752.000000	0.375255
1753.000000	0.375086
1754.000000	0.375087
1755.000000	0.375150
1756.000000	0.375188
1757.000000	0.375266
1758.000000	0.375389
1759.000000	0.375627
1760.000000	0.375634
1761.000000	0.375483
1762.000000	0.375352
1763.000000	0.374982
1764.000000	0.374846
1765.000000	0.374835
1766.000000	0.374850
1767.000000	0.374844
1768.000000	0.374870
1769.000000	0.375131
1770.000000	0.375253
1771.000000	0.375288
1772.000000	0.375331
1773.000000	0.375209
1774.000000	0.375227
1775.000000	0.375448
1776.000000	0.375484
1777.000000	0.375379
1778.000000	0.375372
1779.000000	0.375290
1780.000000	0.375343
1781.000000	0.375512
1782.000000	0.375573
1783.000000	0.375621
1784.000000	0.375780
1785.000000	0.375975
1786.000000	0.376168
1787.000000	0.376481
1788.000000	0.376628
1789.000000	0.376632
1790.000000	0.376892
1791.000000	0.376898
1792.000000	0.376816
1793.000000	0.376822
1794.000000	0.376650
1795.000000	0.376679
1796.000000	0.376988
1797.000000	0.377154
1798.000000	0.377302
1799.000000	0.377417
1800.000000	0.377561
1801.000000	0.377493
1802.000000	0.377448
1803.000000	0.377339
1804.000000	0.377756
1805.000000	0.379022
1806.000000	0.379559
1807.000000	0.380302
1808.000000	0.380541
1809.000000	0.380454
1810.000000	0.379874
1811.000000	0.379239
1812.000000	0.377952
1813.000000	0.377880
1814.000000	0.378142
1815.000000	0.378362
1816.000000	0.379945
1817.000000	0.379916
1818.000000	0.378565
1819.000000	0.378286
1820.000000	0.377441
1821.000000	0.376403
1822.000000	0.376334
1823.000000	0.377162
1824.000000	0.377138
1825.000000	0.376775
1826.000000	0.377276
1827.000000	0.378013
1828.000000	0.378562
1829.000000	0.378998
1830.000000	0.379487
1831.000000	0.379123
1832.000000	0.377195
1833.000000	0.376547
1834.000000	0.376328
1835.000000	0.375837
1836.000000	0.374906
1837.000000	0.374820
1838.000000	0.375169
1839.000000	0.375262
1840.000000	0.375420
1841.000000	0.375622
1842.000000	0.375537
1843.000000	0.374740
1844.000000	0.374355
1845.000000	0.373835
1846.000000	0.373704
1847.000000	0.373569
1848.000000	0.373485
1849.000000	0.373414
1850.000000	0.373314
1851.000000	0.372660
1852.000000	0.371020
1853.000000	0.370222
1854.000000	0.369077
1855.000000	0.368502
1856.000000	0.368574
1857.000000	0.368204
1858.000000	0.367823
1859.000000	0.367647
1860.000000	0.366181
1861.000000	0.364919
1862.000000	0.363481
1863.000000	0.361375
1864.000000	0.359859
1865.000000	0.358710
1866.000000	0.357210
1867.000000	0.355581
1868.000000	0.354336
1869.000000	0.352550
1870.000000	0.351006
1871.000000	0.349332
1872.000000	0.347122
1873.000000	0.344721
1874.000000	0.341796
1875.000000	0.338930
1876.000000	0.335574
1877.000000	0.332181
1878.000000	0.329123
1879.000000	0.325750
1880.000000	0.322408
1881.000000	0.319184
1882.000000	0.314978
1883.000000	0.310611
1884.000000	0.306500
1885.000000	0.302135
1886.000000	0.297480
1887.000000	0.292586
1888.000000	0.288013
1889.000000	0.283093
1890.000000	0.278692
1891.000000	0.274842
1892.000000	0.270704
1893.000000	0.266228
1894.000000	0.261119
1895.000000	0.256362
1896.000000	0.251528
1897.000000	0.246988
1898.000000	0.242527
1899.000000	0.239056
1900.000000	0.235540
1901.000000	0.232088
1902.000000	0.229096
1903.000000	0.226145
1904.000000	0.223586
1905.000000	0.220919
1906.000000	0.218450
1907.000000	0.216173
1908.000000	0.214382
1909.000000	0.212556
1910.000000	0.210927
1911.000000	0.209516
1912.000000	0.207902
1913.000000	0.206659
1914.000000	0.205903
1915.000000	0.204898
1916.000000	0.204008
1917.000000	0.203064
1918.000000	0.202030
1919.000000	0.200928
1920.000000	0.200143
1921.000000	0.199717
1922.000000	0.199644
1923.000000	0.199150
1924.000000	0.198974
1925.000000	0.199254
1926.000000	0.199013
1927.000000	0.199208
1928.000000	0.199311
1929.000000	0.199538
1930.000000	0.199319
1931.000000	0.199243
1932.000000	0.199493
1933.000000	0.200016
1934.000000	0.200686
1935.000000	0.201860
1936.000000	0.202393
1937.000000	0.202255
1938.000000	0.201959
1939.000000	0.201837
1940.000000	0.201429
1941.000000	0.201479
1942.000000	0.201343
1943.000000	0.201383
1944.000000	0.201392
1945.000000	0.200989
1946.000000	0.201035
1947.000000	0.200868
1948.000000	0.200740
1949.000000	0.201068
1950.000000	0.200918
1951.000000	0.200834
1952.000000	0.201137
1953.000000	0.200779
1954.000000	0.199711
1955.000000	0.199652
1956.000000	0.199043
1957.000000	0.198889
1958.000000	0.199314
1959.000000	0.199187
1960.000000	0.199609
1961.000000	0.199912
1962.000000	0.199879
1963.000000	0.199624
1964.000000	0.199451
1965.000000	0.199544
1966.000000	0.199376
1967.000000	0.199250
1968.000000	0.199335
1969.000000	0.198509
1970.000000	0.197948
1971.000000	0.197578
1972.000000	0.197650
1973.000000	0.197970
1974.000000	0.198774
1975.000000	0.199390
1976.000000	0.200250
1977.000000	0.201436
1978.000000	0.201858
1979.000000	0.202640
1980.000000	0.203498
1981.000000	0.203889
1982.000000	0.204195
1983.000000	0.204878
1984.000000	0.205158
1985.000000	0.204768
1986.000000	0.204957
1987.000000	0.205359
1988.000000	0.205828
1989.000000	0.206440
1990.000000	0.207474
1991.000000	0.208211
1992.000000	0.208707
1993.000000	0.209592
1994.000000	0.210773
1995.000000	0.212000
1996.000000	0.213476
1997.000000	0.214595
1998.000000	0.215678
1999.000000	0.216519
2000.000000	0.217152
2001.000000	0.217409
2002.000000	0.217942
2003.000000	0.218720
2004.000000	0.219210
2005.000000	0.220005
2006.000000	0.221092
2007.000000	0.221965
2008.000000	0.223166
2009.000000	0.224934
2010.000000	0.226325
2011.000000	0.227356
2012.000000	0.228705
2013.000000	0.230158
2014.000000	0.231320
2015.000000	0.232960
2016.000000	0.234717
2017.000000	0.235714
2018.000000	0.236582
2019.000000	0.236866
2020.000000	0.237336
2021.000000	0.238005
2022.000000	0.238574
2023.000000	0.239468
2024.000000	0.240720
2025.000000	0.241920
2026.000000	0.243224
2027.000000	0.244698
2028.000000	0.245423
2029.000000	0.246228
2030.000000	0.246446
2031.000000	0.246800
2032.000000	0.248478
2033.000000	0.249518
2034.000000	0.250371
2035.000000	0.251367
2036.000000	0.252163
2037.000000	0.252688
2038.000000	0.253419
2039.000000	0.254245
2040.000000	0.255327
2041.000000	0.256281
2042.000000	0.256997
2043.000000	0.258253
2044.000000	0.259563
2045.000000	0.260235
2046.000000	0.260896
2047.000000	0.261741
2048.000000	0.262323
2049.000000	0.263261
2050.000000	0.264438
2051.000000	0.265034
2052.000000	0.265427
2053.000000	0.265605
2054.000000	0.265387
2055.000000	0.265571
2056.000000	0.266255
2057.000000	0.266727
2058.000000	0.267487
2059.000000	0.268840
2060.000000	0.269753
2061.000000	0.270591
2062.000000	0.271336
2063.000000	0.271936
2064.000000	0.272507
2065.000000	0.273068
2066.000000	0.273640
2067.000000	0.274507
2068.000000	0.275463
2069.000000	0.276084
2070.000000	0.277121
2071.000000	0.277620
2072.000000	0.278094
2073.000000	0.278822
2074.000000	0.279604
2075.000000	0.280471
2076.000000	0.281664
2077.000000	0.282471
2078.000000	0.283061
2079.000000	0.283708
2080.000000	0.284452
2081.000000	0.285096
2082.000000	0.285755
2083.000000	0.286178
2084.000000	0.286883
2085.000000	0.287058
2086.000000	0.287839
2087.000000	0.289357
2088.000000	0.290116
2089.000000	0.291331
2090.000000	0.292143
2091.000000	0.292395
2092.000000	0.292897
2093.000000	0.293661
2094.000000	0.294045
2095.000000	0.294251
2096.000000	0.294744
2097.000000	0.294845
2098.000000	0.295377
2099.000000	0.296869
2100.000000	0.297875
2101.000000	0.298831
2102.000000	0.299180
2103.000000	0.299110
2104.000000	0.299524
2105.000000	0.300006
2106.000000	0.301080
2107.000000	0.301678
2108.000000	0.302122
2109.000000	0.302295
2110.000000	0.301595
2111.000000	0.301813
2112.000000	0.302164
2113.000000	0.302612
2114.000000	0.303606
2115.000000	0.304228
2116.000000	0.304184
2117.000000	0.303883
2118.000000	0.303830
2119.000000	0.304098
2120.000000	0.304350
2121.000000	0.304797
2122.000000	0.305230
2123.000000	0.306023
2124.000000	0.306041
2125.000000	0.305462
2126.000000	0.305435
2127.000000	0.304705
2128.000000	0.304998
2129.000000	0.306238
2130.000000	0.307547
2131.000000	0.308132
2132.000000	0.309428
2133.000000	0.310026
2134.000000	0.310334
2135.000000	0.311088
2136.000000	0.311057
2137.000000	0.311551
2138.000000	0.312440
2139.000000	0.312826
2140.000000	0.313114
2141.000000	0.313495
2142.000000	0.313441
2143.000000	0.313226
2144.000000	0.313699
2145.000000	0.313486
2146.000000	0.312336
2147.000000	0.312360
2148.000000	0.311704
2149.000000	0.311328
2150.000000	0.312518
2151.000000	0.313022
2152.000000	0.313877
2153.000000	0.314618
2154.000000	0.314830
2155.000000	0.314511
2156.000000	0.314127
2157.000000	0.313551
2158.000000	0.312837
2159.000000	0.311350
2160.000000	0.310844
2161.000000	0.310593
2162.000000	0.310600
2163.000000	0.311087
2164.000000	0.311677
2165.000000	0.312641
2166.000000	0.313204
2167.000000	0.314391
2168.000000	0.315601
2169.000000	0.315594
2170.000000	0.315875
2171.000000	0.316300
2172.000000	0.316416
2173.000000	0.316533
2174.000000	0.317237
2175.000000	0.317296
2176.000000	0.316738
2177.000000	0.316727
2178.000000	0.316935
2179.000000	0.316948
2180.000000	0.316818
2181.000000	0.316828
2182.000000	0.316183
2183.000000	0.315507
2184.000000	0.315665
2185.000000	0.315782
2186.000000	0.315361
2187.000000	0.315082
2188.000000	0.314432
2189.000000	0.314110
2190.000000	0.314901
2191.000000	0.315469
2192.000000	0.316120
2193.000000	0.317832
2194.000000	0.317558
2195.000000	0.316159
2196.000000	0.315106
2197.000000	0.311918
2198.000000	0.310555
2199.000000	0.310027
2200.000000	0.310394
2201.000000	0.313122
2202.000000	0.313620
2203.000000	0.313190
2204.000000	0.313715
2205.000000	0.312763
2206.000000	0.311998
2207.000000	0.312078
2208.000000	0.312156
2209.000000	0.311046
2210.000000	0.312362
2211.000000	0.315322
2212.000000	0.318129
2213.000000	0.318131
2214.000000	0.316148
2215.000000	0.314746
2216.000000	0.309918
2217.000000	0.309616
2218.000000	0.313246
2219.000000	0.314268
2220.000000	0.316417
2221.000000	0.316595
2222.000000	0.313510
2223.000000	0.312875
2224.000000	0.313487
2225.000000	0.312714
2226.000000	0.313645
2227.000000	0.313766
2228.000000	0.309721
2229.000000	0.309268
2230.000000	0.309135
2231.000000	0.308021
2232.000000	0.310459
2233.000000	0.312369
2234.000000	0.311190
2235.000000	0.312081
2236.000000	0.312450
2237.000000	0.312453
2238.000000	0.311293
2239.000000	0.309088
2240.000000	0.308485
2241.000000	0.307582
2242.000000	0.307335
2243.000000	0.308829
2244.000000	0.309892
2245.000000	0.311296
2246.000000	0.310993
2247.000000	0.309251
2248.000000	0.309675
2249.000000	0.310510
2250.000000	0.309672
2251.000000	0.311730
2252.000000	0.313786
2253.000000	0.311904
2254.000000	0.310538
2255.000000	0.310364
2256.000000	0.311153
2257.000000	0.311770
2258.000000	0.312670
2259.000000	0.314159
2260.000000	0.313761
2261.000000	0.312529
2262.000000	0.310827
2263.000000	0.309807
2264.000000	0.306805
2265.000000	0.305966
2266.000000	0.308345
2267.000000	0.307566
2268.000000	0.304827
2269.000000	0.304299
2270.000000	0.302789
2271.000000	0.302870
2272.000000	0.306323
2273.000000	0.307028
2274.000000	0.307541
2275.000000	0.306116
2276.000000	0.301909
2277.000000	0.299373
2278.000000	0.296145
2279.000000	0.295830
2280.000000	0.297626
2281.000000	0.296275
2282.000000	0.296110
2283.000000	0.295792
2284.000000	0.293871
2285.000000	0.294476
2286.000000	0.292634
2287.000000	0.289619
2288.000000	0.287425
2289.000000	0.283135
2290.000000	0.280995
2291.000000	0.280352
2292.000000	0.280380
2293.000000	0.281008
2294.000000	0.280865
2295.000000	0.280004
2296.000000	0.279876
2297.000000	0.280250
2298.000000	0.279821
2299.000000	0.280380
2300.000000	0.279696
2301.000000	0.276096
2302.000000	0.274787
2303.000000	0.275295
2304.000000	0.273305
2305.000000	0.270807
2306.000000	0.268982
2307.000000	0.265916
2308.000000	0.263209
2309.000000	0.261454
2310.000000	0.260570
2311.000000	0.260152
2312.000000	0.256659
2313.000000	0.253960
2314.000000	0.253949
2315.000000	0.252022
2316.000000	0.252230
2317.000000	0.254756
2318.000000	0.255712
2319.000000	0.257414
2320.000000	0.260371
2321.000000	0.262843
2322.000000	0.264359
2323.000000	0.266014
2324.000000	0.266981
2325.000000	0.265683
2326.000000	0.263293
2327.000000	0.263236
2328.000000	0.262050
2329.000000	0.260288
2330.000000	0.260243
2331.000000	0.256790
2332.000000	0.254619
2333.000000	0.254283
2334.000000	0.253320
2335.000000	0.253801
2336.000000	0.256249
2337.000000	0.255938
2338.000000	0.254504
2339.000000	0.254709
2340.000000	0.253506
2341.000000	0.252799
2342.000000	0.253787
2343.000000	0.254060
2344.000000	0.255619
2345.000000	0.255806
2346.000000	0.254593
2347.000000	0.253696
2348.000000	0.252095
2349.000000	0.248815
2350.000000	0.247334
2351.000000	0.248636
2352.000000	0.248792
2353.000000	0.245985
2354.000000	0.242734
2355.000000	0.239795
2356.000000	0.238240
2357.000000	0.238545
2358.000000	0.238938
2359.000000	0.238416
2360.000000	0.236454
2361.000000	0.233037
2362.000000	0.228242
2363.000000	0.228421
2364.000000	0.229349
2365.000000	0.229140
2366.000000	0.232504
2367.000000	0.231772
2368.000000	0.229675
2369.000000	0.226018
2370.000000	0.218598
2371.000000	0.214858
2372.000000	0.213999
2373.000000	0.213400
2374.000000	0.214971
2375.000000	0.219481
2376.000000	0.218684
2377.000000	0.214750
2378.000000	0.216282
2379.000000	0.213091
2380.000000	0.205730
2381.000000	0.205227
2382.000000	0.203874
2383.000000	0.200954
2384.000000	0.202794
2385.000000	0.209340
2386.000000	0.212578
2387.000000	0.211001
2388.000000	0.212181
2389.000000	0.207229
2390.000000	0.203560
2391.000000	0.200678
2392.000000	0.192950
2393.000000	0.193977
2394.000000	0.193711
2395.000000	0.199102
2396.000000	0.207785
2397.000000	0.206206
2398.000000	0.205471
2399.000000	0.198530
2400.000000	0.196445
2401.000000	0.198101
2402.000000	0.194585
2403.000000	0.197360
2404.000000	0.192075
2405.000000	0.185474
2406.000000	0.181435
2407.000000	0.174699
2408.000000	0.177214
2409.000000	0.178209
2410.000000	0.179799
2411.000000	0.183828
2412.000000	0.180212
2413.000000	0.177964
2414.000000	0.179905
2415.000000	0.181999
2416.000000	0.186768
2417.000000	0.193410
2418.000000	0.197660
2419.000000	0.195797
2420.000000	0.198418
2421.000000	0.199065
2422.000000	0.193164
2423.000000	0.200786
2424.000000	0.203855
2425.000000	0.202449
2426.000000	0.200179
2427.000000	0.187928
2428.000000	0.183077
2429.000000	0.184581
2430.000000	0.194753
2431.000000	0.198459
2432.000000	0.193626
2433.000000	0.194900
2434.000000	0.189357
2435.000000	0.188631
2436.000000	0.199680
2437.000000	0.201223
2438.000000	0.195672
2439.000000	0.193208
2440.000000	0.181604
2441.000000	0.170884
2442.000000	0.171836
2443.000000	0.165595
2444.000000	0.171883
2445.000000	0.180823
2446.000000	0.171229
2447.000000	0.169811
2448.000000	0.164918
2449.000000	0.163269
2450.000000	0.171931
2451.000000	0.181965
2452.000000	0.186609
2453.000000	0.173428
2454.000000	0.164342
2455.000000	0.153760
2456.000000	0.136829
2457.000000	0.134969
2458.000000	0.130907
2459.000000	0.119834
2460.000000	0.123572
2461.000000	0.117121
2462.000000	0.113542
2463.000000	0.130889
2464.000000	0.138456
2465.000000	0.148904
2466.000000	0.165875
2467.000000	0.166694
2468.000000	0.165697
2469.000000	0.177848
2470.000000	0.158913
2471.000000	0.129750
2472.000000	0.126811
2473.000000	0.124981
2474.000000	0.121635
2475.000000	0.138811
2476.000000	0.153640
2477.000000	0.137713
2478.000000	0.150362
2479.000000	0.144824
2480.000000	0.117520
2481.000000	0.128314
2482.000000	0.117079
2483.000000	0.122237
2484.000000	0.147272
2485.000000	0.135880
2486.000000	0.128521
2487.000000	0.126381
2488.000000	0.133501
2489.000000	0.169387
2490.000000	0.177468
2491.000000	0.199815
2492.000000	0.165663
2493.000000	0.037157
2494.000000	0.004419
2495.000000	-0.010327
2496.000000	-0.010391
2497.000000	0.089369
2498.000000	0.109967
2499.000000	0.091955
2500.000000	0.068258
