# Wavelength	SM1200H-60_HEX-20_FV7-20_00001.asd.rts.txt
350.000000	0.324644
351.000000	0.352210
352.000000	0.345831
353.000000	0.331747
354.000000	0.331397
355.000000	0.343587
356.000000	0.349392
357.000000	0.349585
358.000000	0.352329
359.000000	0.347589
360.000000	0.339088
361.000000	0.333604
362.000000	0.339005
363.000000	0.347627
364.000000	0.351438
365.000000	0.344208
366.000000	0.343358
367.000000	0.350148
368.000000	0.353788
369.000000	0.347843
370.000000	0.342068
371.000000	0.347914
372.000000	0.345362
373.000000	0.343860
374.000000	0.350197
375.000000	0.354234
376.000000	0.355238
377.000000	0.354982
378.000000	0.358611
379.000000	0.357817
380.000000	0.354099
381.000000	0.353226
382.000000	0.356105
383.000000	0.357742
384.000000	0.356247
385.000000	0.358261
386.000000	0.359496
387.000000	0.358932
388.000000	0.358216
389.000000	0.357986
390.000000	0.358462
391.000000	0.359239
392.000000	0.361183
393.000000	0.361965
394.000000	0.360574
395.000000	0.361255
396.000000	0.362029
397.000000	0.362093
398.000000	0.362192
399.000000	0.364003
400.000000	0.366038
401.000000	0.365378
402.000000	0.365245
403.000000	0.365646
404.000000	0.366229
405.000000	0.366541
406.000000	0.367226
407.000000	0.368261
408.000000	0.368232
409.000000	0.367757
410.000000	0.367536
411.000000	0.368317
412.000000	0.368499
413.000000	0.368836
414.000000	0.370174
415.000000	0.370448
416.000000	0.370345
417.000000	0.370554
418.000000	0.371421
419.000000	0.371984
420.000000	0.372175
421.000000	0.372648
422.000000	0.373156
423.000000	0.373636
424.000000	0.374180
425.000000	0.374656
426.000000	0.374757
427.000000	0.374507
428.000000	0.375193
429.000000	0.375483
430.000000	0.375192
431.000000	0.375638
432.000000	0.375871
433.000000	0.376108
434.000000	0.377130
435.000000	0.377250
436.000000	0.377129
437.000000	0.377547
438.000000	0.377766
439.000000	0.378029
440.000000	0.378468
441.000000	0.378314
442.000000	0.378517
443.000000	0.378982
444.000000	0.379155
445.000000	0.379603
446.000000	0.380191
447.000000	0.380363
448.000000	0.380334
449.000000	0.380664
450.000000	0.381423
451.000000	0.381091
452.000000	0.381297
453.000000	0.382069
454.000000	0.381919
455.000000	0.382067
456.000000	0.382696
457.000000	0.383291
458.000000	0.383616
459.000000	0.383909
460.000000	0.384401
461.000000	0.384391
462.000000	0.384715
463.000000	0.385321
464.000000	0.385291
465.000000	0.385228
466.000000	0.385305
467.000000	0.385677
468.000000	0.385693
469.000000	0.385604
470.000000	0.386065
471.000000	0.386636
472.000000	0.387034
473.000000	0.387165
474.000000	0.387134
475.000000	0.387070
476.000000	0.387262
477.000000	0.387675
478.000000	0.387986
479.000000	0.388290
480.000000	0.388331
481.000000	0.388358
482.000000	0.388700
483.000000	0.389196
484.000000	0.389582
485.000000	0.389701
486.000000	0.389874
487.000000	0.390419
488.000000	0.390839
489.000000	0.391085
490.000000	0.391357
491.000000	0.391449
492.000000	0.391686
493.000000	0.392193
494.000000	0.392336
495.000000	0.392519
496.000000	0.392948
497.000000	0.393266
498.000000	0.393487
499.000000	0.393753
500.000000	0.394080
501.000000	0.394412
502.000000	0.394742
503.000000	0.394959
504.000000	0.395282
505.000000	0.395540
506.000000	0.395626
507.000000	0.396048
508.000000	0.396462
509.000000	0.396673
510.000000	0.397124
511.000000	0.397404
512.000000	0.397562
513.000000	0.397922
514.000000	0.398253
515.000000	0.398593
516.000000	0.398938
517.000000	0.399111
518.000000	0.399356
519.000000	0.399716
520.000000	0.400004
521.000000	0.400354
522.000000	0.400778
523.000000	0.401087
524.000000	0.401285
525.000000	0.401451
526.000000	0.401785
527.000000	0.402063
528.000000	0.402250
529.000000	0.402453
530.000000	0.402765
531.000000	0.403140
532.000000	0.403423
533.000000	0.403743
534.000000	0.404001
535.000000	0.404226
536.000000	0.404654
537.000000	0.404955
538.000000	0.405137
539.000000	0.405325
540.000000	0.405564
541.000000	0.405848
542.000000	0.406192
543.000000	0.406442
544.000000	0.406769
545.000000	0.407127
546.000000	0.407401
547.000000	0.407679
548.000000	0.408030
549.000000	0.408374
550.000000	0.408745
551.000000	0.409137
552.000000	0.409453
553.000000	0.409718
554.000000	0.409959
555.000000	0.410222
556.000000	0.410571
557.000000	0.410840
558.000000	0.411156
559.000000	0.411485
560.000000	0.411754
561.000000	0.412064
562.000000	0.412381
563.000000	0.412711
564.000000	0.413069
565.000000	0.413320
566.000000	0.413575
567.000000	0.413871
568.000000	0.414187
569.000000	0.414506
570.000000	0.414856
571.000000	0.415202
572.000000	0.415491
573.000000	0.415821
574.000000	0.416119
575.000000	0.416355
576.000000	0.416656
577.000000	0.416930
578.000000	0.417186
579.000000	0.417436
580.000000	0.417711
581.000000	0.418013
582.000000	0.418322
583.000000	0.418614
584.000000	0.418900
585.000000	0.419217
586.000000	0.419485
587.000000	0.419754
588.000000	0.420070
589.000000	0.420223
590.000000	0.420403
591.000000	0.420717
592.000000	0.420979
593.000000	0.421287
594.000000	0.421641
595.000000	0.421951
596.000000	0.422259
597.000000	0.422526
598.000000	0.422556
599.000000	0.422604
600.000000	0.422837
601.000000	0.423183
602.000000	0.423357
603.000000	0.423458
604.000000	0.423575
605.000000	0.423716
606.000000	0.423893
607.000000	0.424053
608.000000	0.424088
609.000000	0.424137
610.000000	0.424270
611.000000	0.424506
612.000000	0.424732
613.000000	0.424938
614.000000	0.425163
615.000000	0.425325
616.000000	0.425455
617.000000	0.425541
618.000000	0.425680
619.000000	0.425841
620.000000	0.425973
621.000000	0.426108
622.000000	0.426301
623.000000	0.426467
624.000000	0.426547
625.000000	0.426668
626.000000	0.426857
627.000000	0.427103
628.000000	0.427332
629.000000	0.427581
630.000000	0.427723
631.000000	0.427955
632.000000	0.428086
633.000000	0.428168
634.000000	0.428267
635.000000	0.428361
636.000000	0.428456
637.000000	0.428542
638.000000	0.428662
639.000000	0.428787
640.000000	0.428955
641.000000	0.429018
642.000000	0.429092
643.000000	0.429204
644.000000	0.429347
645.000000	0.429440
646.000000	0.429554
647.000000	0.429703
648.000000	0.429839
649.000000	0.429987
650.000000	0.430120
651.000000	0.430220
652.000000	0.430371
653.000000	0.430595
654.000000	0.430759
655.000000	0.430913
656.000000	0.431096
657.000000	0.431254
658.000000	0.431406
659.000000	0.431555
660.000000	0.431677
661.000000	0.431787
662.000000	0.431873
663.000000	0.432002
664.000000	0.432141
665.000000	0.432320
666.000000	0.432491
667.000000	0.432576
668.000000	0.432748
669.000000	0.432882
670.000000	0.432936
671.000000	0.433041
672.000000	0.433238
673.000000	0.433467
674.000000	0.433606
675.000000	0.433745
676.000000	0.433883
677.000000	0.434019
678.000000	0.434153
679.000000	0.434312
680.000000	0.434505
681.000000	0.434607
682.000000	0.434791
683.000000	0.434973
684.000000	0.435132
685.000000	0.435293
686.000000	0.435470
687.000000	0.435598
688.000000	0.435799
689.000000	0.436017
690.000000	0.436227
691.000000	0.436348
692.000000	0.436427
693.000000	0.436580
694.000000	0.436755
695.000000	0.436929
696.000000	0.437068
697.000000	0.437147
698.000000	0.437249
699.000000	0.437389
700.000000	0.437553
701.000000	0.437615
702.000000	0.437749
703.000000	0.437947
704.000000	0.438026
705.000000	0.438156
706.000000	0.438307
707.000000	0.438500
708.000000	0.438662
709.000000	0.438818
710.000000	0.439013
711.000000	0.439137
712.000000	0.439269
713.000000	0.439450
714.000000	0.439577
715.000000	0.439735
716.000000	0.439894
717.000000	0.439947
718.000000	0.440024
719.000000	0.440094
720.000000	0.440155
721.000000	0.440329
722.000000	0.440431
723.000000	0.440491
724.000000	0.440556
725.000000	0.440610
726.000000	0.440755
727.000000	0.440890
728.000000	0.440942
729.000000	0.441061
730.000000	0.441281
731.000000	0.441496
732.000000	0.441704
733.000000	0.441910
734.000000	0.441939
735.000000	0.441955
736.000000	0.442100
737.000000	0.442143
738.000000	0.442173
739.000000	0.442252
740.000000	0.442197
741.000000	0.442249
742.000000	0.442277
743.000000	0.442247
744.000000	0.442352
745.000000	0.442445
746.000000	0.442534
747.000000	0.442548
748.000000	0.442658
749.000000	0.442765
750.000000	0.442764
751.000000	0.442794
752.000000	0.442857
753.000000	0.442955
754.000000	0.443050
755.000000	0.443194
756.000000	0.443341
757.000000	0.443372
758.000000	0.443411
759.000000	0.443474
760.000000	0.443490
761.000000	0.443612
762.000000	0.443779
763.000000	0.443913
764.000000	0.444036
765.000000	0.444128
766.000000	0.444163
767.000000	0.444142
768.000000	0.444229
769.000000	0.444265
770.000000	0.444207
771.000000	0.444174
772.000000	0.444279
773.000000	0.444401
774.000000	0.444506
775.000000	0.444540
776.000000	0.444557
777.000000	0.444588
778.000000	0.444650
779.000000	0.444729
780.000000	0.444821
781.000000	0.444897
782.000000	0.444876
783.000000	0.444930
784.000000	0.444987
785.000000	0.444966
786.000000	0.444945
787.000000	0.444961
788.000000	0.444985
789.000000	0.445024
790.000000	0.445029
791.000000	0.445005
792.000000	0.444981
793.000000	0.444990
794.000000	0.445041
795.000000	0.445025
796.000000	0.445051
797.000000	0.445117
798.000000	0.445119
799.000000	0.445144
800.000000	0.445187
801.000000	0.445214
802.000000	0.445180
803.000000	0.445158
804.000000	0.445205
805.000000	0.445113
806.000000	0.445087
807.000000	0.445174
808.000000	0.445133
809.000000	0.445119
810.000000	0.445137
811.000000	0.445160
812.000000	0.445225
813.000000	0.445258
814.000000	0.445254
815.000000	0.445292
816.000000	0.445332
817.000000	0.445346
818.000000	0.445220
819.000000	0.445195
820.000000	0.445309
821.000000	0.445398
822.000000	0.445230
823.000000	0.445113
824.000000	0.445050
825.000000	0.445086
826.000000	0.445006
827.000000	0.444885
828.000000	0.444845
829.000000	0.444814
830.000000	0.444776
831.000000	0.444772
832.000000	0.444638
833.000000	0.444507
834.000000	0.444404
835.000000	0.444384
836.000000	0.444440
837.000000	0.444418
838.000000	0.444335
839.000000	0.444280
840.000000	0.444336
841.000000	0.444423
842.000000	0.444399
843.000000	0.444348
844.000000	0.444213
845.000000	0.444018
846.000000	0.443985
847.000000	0.444016
848.000000	0.443998
849.000000	0.443893
850.000000	0.443727
851.000000	0.443630
852.000000	0.443673
853.000000	0.443688
854.000000	0.443610
855.000000	0.443565
856.000000	0.443465
857.000000	0.443365
858.000000	0.443343
859.000000	0.443282
860.000000	0.443094
861.000000	0.442969
862.000000	0.442976
863.000000	0.442993
864.000000	0.442892
865.000000	0.442795
866.000000	0.442786
867.000000	0.442724
868.000000	0.442673
869.000000	0.442579
870.000000	0.442500
871.000000	0.442241
872.000000	0.441978
873.000000	0.441793
874.000000	0.441850
875.000000	0.441769
876.000000	0.441600
877.000000	0.441457
878.000000	0.441222
879.000000	0.441074
880.000000	0.440906
881.000000	0.440744
882.000000	0.440519
883.000000	0.440294
884.000000	0.440075
885.000000	0.439817
886.000000	0.439606
887.000000	0.439524
888.000000	0.439517
889.000000	0.439470
890.000000	0.439266
891.000000	0.439109
892.000000	0.438782
893.000000	0.438516
894.000000	0.438540
895.000000	0.438460
896.000000	0.438146
897.000000	0.437780
898.000000	0.437621
899.000000	0.437517
900.000000	0.437346
901.000000	0.437079
902.000000	0.437007
903.000000	0.437053
904.000000	0.437069
905.000000	0.436803
906.000000	0.436627
907.000000	0.436315
908.000000	0.435947
909.000000	0.435688
910.000000	0.435438
911.000000	0.435232
912.000000	0.435113
913.000000	0.434956
914.000000	0.434627
915.000000	0.434298
916.000000	0.434120
917.000000	0.433925
918.000000	0.433814
919.000000	0.433795
920.000000	0.433641
921.000000	0.433483
922.000000	0.433316
923.000000	0.433056
924.000000	0.432958
925.000000	0.432784
926.000000	0.432487
927.000000	0.432281
928.000000	0.431967
929.000000	0.431610
930.000000	0.431342
931.000000	0.431142
932.000000	0.430790
933.000000	0.430421
934.000000	0.430388
935.000000	0.430233
936.000000	0.430015
937.000000	0.429721
938.000000	0.429384
939.000000	0.429079
940.000000	0.428771
941.000000	0.428564
942.000000	0.428152
943.000000	0.427838
944.000000	0.427600
945.000000	0.427319
946.000000	0.426903
947.000000	0.426502
948.000000	0.426192
949.000000	0.425854
950.000000	0.425671
951.000000	0.425535
952.000000	0.425247
953.000000	0.425054
954.000000	0.424939
955.000000	0.424750
956.000000	0.424563
957.000000	0.424309
958.000000	0.423909
959.000000	0.423530
960.000000	0.423535
961.000000	0.423490
962.000000	0.423140
963.000000	0.422612
964.000000	0.422382
965.000000	0.422266
966.000000	0.421909
967.000000	0.421689
968.000000	0.421500
969.000000	0.421339
970.000000	0.421360
971.000000	0.420997
972.000000	0.420718
973.000000	0.420598
974.000000	0.420399
975.000000	0.420093
976.000000	0.419940
977.000000	0.420038
978.000000	0.419877
979.000000	0.419859
980.000000	0.419680
981.000000	0.419459
982.000000	0.419160
983.000000	0.418917
984.000000	0.418790
985.000000	0.418537
986.000000	0.418440
987.000000	0.418304
988.000000	0.417876
989.000000	0.417557
990.000000	0.417567
991.000000	0.417569
992.000000	0.417279
993.000000	0.417355
994.000000	0.417312
995.000000	0.417298
996.000000	0.417332
997.000000	0.417119
998.000000	0.416829
999.000000	0.416760
1000.000000	0.416913
1001.000000	0.415973
1002.000000	0.416931
1003.000000	0.417597
1004.000000	0.417795
1005.000000	0.418230
1006.000000	0.418017
1007.000000	0.416951
1008.000000	0.416374
1009.000000	0.416252
1010.000000	0.415417
1011.000000	0.415641
1012.000000	0.415823
1013.000000	0.415033
1014.000000	0.415080
1015.000000	0.414852
1016.000000	0.414857
1017.000000	0.415423
1018.000000	0.415663
1019.000000	0.415932
1020.000000	0.416512
1021.000000	0.416112
1022.000000	0.415226
1023.000000	0.415394
1024.000000	0.415508
1025.000000	0.415736
1026.000000	0.416136
1027.000000	0.415856
1028.000000	0.415349
1029.000000	0.414969
1030.000000	0.415106
1031.000000	0.415625
1032.000000	0.415784
1033.000000	0.415349
1034.000000	0.415184
1035.000000	0.414710
1036.000000	0.414796
1037.000000	0.415403
1038.000000	0.415441
1039.000000	0.415510
1040.000000	0.415649
1041.000000	0.415624
1042.000000	0.416022
1043.000000	0.416790
1044.000000	0.417028
1045.000000	0.416749
1046.000000	0.416785
1047.000000	0.417096
1048.000000	0.417606
1049.000000	0.417676
1050.000000	0.417805
1051.000000	0.417958
1052.000000	0.417889
1053.000000	0.417732
1054.000000	0.417797
1055.000000	0.417875
1056.000000	0.417730
1057.000000	0.417649
1058.000000	0.418223
1059.000000	0.418813
1060.000000	0.418807
1061.000000	0.418885
1062.000000	0.418664
1063.000000	0.418477
1064.000000	0.418668
1065.000000	0.419305
1066.000000	0.419597
1067.000000	0.419980
1068.000000	0.420023
1069.000000	0.419516
1070.000000	0.419534
1071.000000	0.419605
1072.000000	0.419923
1073.000000	0.420797
1074.000000	0.421663
1075.000000	0.422071
1076.000000	0.422082
1077.000000	0.421593
1078.000000	0.421281
1079.000000	0.421187
1080.000000	0.421222
1081.000000	0.421298
1082.000000	0.421777
1083.000000	0.421912
1084.000000	0.421811
1085.000000	0.422078
1086.000000	0.422537
1087.000000	0.422842
1088.000000	0.423253
1089.000000	0.423466
1090.000000	0.423548
1091.000000	0.423132
1092.000000	0.423170
1093.000000	0.423550
1094.000000	0.423871
1095.000000	0.424359
1096.000000	0.424700
1097.000000	0.425014
1098.000000	0.425330
1099.000000	0.425639
1100.000000	0.425781
1101.000000	0.425779
1102.000000	0.425744
1103.000000	0.425320
1104.000000	0.425322
1105.000000	0.425466
1106.000000	0.425692
1107.000000	0.426163
1108.000000	0.426505
1109.000000	0.427104
1110.000000	0.427339
1111.000000	0.427568
1112.000000	0.427671
1113.000000	0.427897
1114.000000	0.427962
1115.000000	0.428342
1116.000000	0.429297
1117.000000	0.429357
1118.000000	0.428979
1119.000000	0.428823
1120.000000	0.428094
1121.000000	0.427848
1122.000000	0.428260
1123.000000	0.428633
1124.000000	0.428585
1125.000000	0.428847
1126.000000	0.429536
1127.000000	0.429680
1128.000000	0.429636
1129.000000	0.429468
1130.000000	0.429552
1131.000000	0.429411
1132.000000	0.429377
1133.000000	0.429770
1134.000000	0.429897
1135.000000	0.429650
1136.000000	0.429612
1137.000000	0.429757
1138.000000	0.429703
1139.000000	0.429551
1140.000000	0.429670
1141.000000	0.429915
1142.000000	0.429997
1143.000000	0.430083
1144.000000	0.430219
1145.000000	0.430020
1146.000000	0.429644
1147.000000	0.429526
1148.000000	0.429341
1149.000000	0.429323
1150.000000	0.429554
1151.000000	0.429546
1152.000000	0.429304
1153.000000	0.429393
1154.000000	0.429595
1155.000000	0.429572
1156.000000	0.429632
1157.000000	0.429675
1158.000000	0.429379
1159.000000	0.429280
1160.000000	0.429395
1161.000000	0.429429
1162.000000	0.429604
1163.000000	0.429695
1164.000000	0.429654
1165.000000	0.429732
1166.000000	0.429789
1167.000000	0.429743
1168.000000	0.429709
1169.000000	0.429726
1170.000000	0.429812
1171.000000	0.429930
1172.000000	0.430098
1173.000000	0.430399
1174.000000	0.430517
1175.000000	0.430541
1176.000000	0.430491
1177.000000	0.430291
1178.000000	0.430290
1179.000000	0.430461
1180.000000	0.430383
1181.000000	0.430308
1182.000000	0.430412
1183.000000	0.430425
1184.000000	0.430380
1185.000000	0.430379
1186.000000	0.430539
1187.000000	0.430490
1188.000000	0.430286
1189.000000	0.430134
1190.000000	0.429977
1191.000000	0.429873
1192.000000	0.429942
1193.000000	0.430080
1194.000000	0.430138
1195.000000	0.430172
1196.000000	0.430051
1197.000000	0.430044
1198.000000	0.430175
1199.000000	0.430218
1200.000000	0.430247
1201.000000	0.430349
1202.000000	0.430201
1203.000000	0.430207
1204.000000	0.430304
1205.000000	0.430267
1206.000000	0.430237
1207.000000	0.430335
1208.000000	0.430315
1209.000000	0.430357
1210.000000	0.430313
1211.000000	0.430137
1212.000000	0.430096
1213.000000	0.430075
1214.000000	0.430142
1215.000000	0.430427
1216.000000	0.430518
1217.000000	0.430515
1218.000000	0.430459
1219.000000	0.430286
1220.000000	0.430188
1221.000000	0.430299
1222.000000	0.430314
1223.000000	0.430451
1224.000000	0.430591
1225.000000	0.430461
1226.000000	0.430409
1227.000000	0.430344
1228.000000	0.430328
1229.000000	0.430247
1230.000000	0.430106
1231.000000	0.430004
1232.000000	0.430089
1233.000000	0.430131
1234.000000	0.430208
1235.000000	0.430195
1236.000000	0.429910
1237.000000	0.429844
1238.000000	0.429805
1239.000000	0.429724
1240.000000	0.429667
1241.000000	0.429626
1242.000000	0.429656
1243.000000	0.429688
1244.000000	0.429686
1245.000000	0.429774
1246.000000	0.429863
1247.000000	0.429978
1248.000000	0.430189
1249.000000	0.430409
1250.000000	0.430333
1251.000000	0.430189
1252.000000	0.430134
1253.000000	0.430095
1254.000000	0.430032
1255.000000	0.430041
1256.000000	0.429993
1257.000000	0.429831
1258.000000	0.429827
1259.000000	0.429852
1260.000000	0.429899
1261.000000	0.429912
1262.000000	0.429925
1263.000000	0.430021
1264.000000	0.429974
1265.000000	0.429871
1266.000000	0.429876
1267.000000	0.429753
1268.000000	0.429646
1269.000000	0.429499
1270.000000	0.429372
1271.000000	0.429269
1272.000000	0.429188
1273.000000	0.429296
1274.000000	0.429303
1275.000000	0.429314
1276.000000	0.429406
1277.000000	0.429540
1278.000000	0.429563
1279.000000	0.429588
1280.000000	0.429507
1281.000000	0.429419
1282.000000	0.429434
1283.000000	0.429426
1284.000000	0.429246
1285.000000	0.429229
1286.000000	0.429209
1287.000000	0.429169
1288.000000	0.429343
1289.000000	0.429431
1290.000000	0.429306
1291.000000	0.429174
1292.000000	0.429061
1293.000000	0.429079
1294.000000	0.429021
1295.000000	0.428862
1296.000000	0.428590
1297.000000	0.428285
1298.000000	0.428252
1299.000000	0.428323
1300.000000	0.428501
1301.000000	0.428591
1302.000000	0.428512
1303.000000	0.428436
1304.000000	0.428269
1305.000000	0.428052
1306.000000	0.427934
1307.000000	0.427869
1308.000000	0.427874
1309.000000	0.427973
1310.000000	0.427987
1311.000000	0.428062
1312.000000	0.428042
1313.000000	0.427825
1314.000000	0.427687
1315.000000	0.427545
1316.000000	0.427409
1317.000000	0.427444
1318.000000	0.427417
1319.000000	0.427289
1320.000000	0.427289
1321.000000	0.427207
1322.000000	0.427116
1323.000000	0.426958
1324.000000	0.426627
1325.000000	0.426181
1326.000000	0.425770
1327.000000	0.425564
1328.000000	0.425533
1329.000000	0.425400
1330.000000	0.425479
1331.000000	0.425297
1332.000000	0.424962
1333.000000	0.424699
1334.000000	0.424412
1335.000000	0.424295
1336.000000	0.424392
1337.000000	0.424239
1338.000000	0.423979
1339.000000	0.423616
1340.000000	0.423307
1341.000000	0.423048
1342.000000	0.422811
1343.000000	0.422763
1344.000000	0.422608
1345.000000	0.422301
1346.000000	0.422245
1347.000000	0.422083
1348.000000	0.421958
1349.000000	0.421731
1350.000000	0.421569
1351.000000	0.421313
1352.000000	0.420865
1353.000000	0.420594
1354.000000	0.420474
1355.000000	0.420416
1356.000000	0.420422
1357.000000	0.420258
1358.000000	0.419976
1359.000000	0.419629
1360.000000	0.419333
1361.000000	0.419111
1362.000000	0.418894
1363.000000	0.418690
1364.000000	0.418412
1365.000000	0.418111
1366.000000	0.417773
1367.000000	0.417347
1368.000000	0.416920
1369.000000	0.416606
1370.000000	0.416103
1371.000000	0.415470
1372.000000	0.414781
1373.000000	0.414015
1374.000000	0.413179
1375.000000	0.412195
1376.000000	0.411121
1377.000000	0.409815
1378.000000	0.408031
1379.000000	0.405847
1380.000000	0.403281
1381.000000	0.400226
1382.000000	0.397074
1383.000000	0.393908
1384.000000	0.390405
1385.000000	0.386955
1386.000000	0.383818
1387.000000	0.380945
1388.000000	0.378686
1389.000000	0.377084
1390.000000	0.375970
1391.000000	0.375206
1392.000000	0.374875
1393.000000	0.374818
1394.000000	0.375324
1395.000000	0.375655
1396.000000	0.376320
1397.000000	0.376604
1398.000000	0.376697
1399.000000	0.376680
1400.000000	0.376595
1401.000000	0.376234
1402.000000	0.375760
1403.000000	0.375081
1404.000000	0.374155
1405.000000	0.373013
1406.000000	0.371889
1407.000000	0.370924
1408.000000	0.370057
1409.000000	0.369378
1410.000000	0.368899
1411.000000	0.368295
1412.000000	0.367696
1413.000000	0.367305
1414.000000	0.366945
1415.000000	0.366735
1416.000000	0.366576
1417.000000	0.366334
1418.000000	0.366043
1419.000000	0.365876
1420.000000	0.365742
1421.000000	0.365821
1422.000000	0.365898
1423.000000	0.365955
1424.000000	0.365957
1425.000000	0.365915
1426.000000	0.365825
1427.000000	0.365696
1428.000000	0.365725
1429.000000	0.365879
1430.000000	0.366070
1431.000000	0.366328
1432.000000	0.366364
1433.000000	0.366199
1434.000000	0.366166
1435.000000	0.366157
1436.000000	0.366155
1437.000000	0.366293
1438.000000	0.366248
1439.000000	0.366101
1440.000000	0.366036
1441.000000	0.365981
1442.000000	0.365930
1443.000000	0.365812
1444.000000	0.365768
1445.000000	0.365702
1446.000000	0.365586
1447.000000	0.365538
1448.000000	0.365397
1449.000000	0.365170
1450.000000	0.365000
1451.000000	0.364794
1452.000000	0.364583
1453.000000	0.364524
1454.000000	0.364343
1455.000000	0.364150
1456.000000	0.364117
1457.000000	0.364009
1458.000000	0.363962
1459.000000	0.363988
1460.000000	0.363916
1461.000000	0.363820
1462.000000	0.363821
1463.000000	0.363780
1464.000000	0.363872
1465.000000	0.364155
1466.000000	0.364269
1467.000000	0.364466
1468.000000	0.364757
1469.000000	0.364992
1470.000000	0.365233
1471.000000	0.365595
1472.000000	0.365887
1473.000000	0.366262
1474.000000	0.366823
1475.000000	0.367332
1476.000000	0.367711
1477.000000	0.368120
1478.000000	0.368444
1479.000000	0.368826
1480.000000	0.369373
1481.000000	0.369793
1482.000000	0.370271
1483.000000	0.370739
1484.000000	0.371096
1485.000000	0.371490
1486.000000	0.371912
1487.000000	0.372350
1488.000000	0.372815
1489.000000	0.373269
1490.000000	0.373641
1491.000000	0.374034
1492.000000	0.374237
1493.000000	0.374676
1494.000000	0.375259
1495.000000	0.375701
1496.000000	0.376187
1497.000000	0.376649
1498.000000	0.377047
1499.000000	0.377426
1500.000000	0.377957
1501.000000	0.378475
1502.000000	0.378914
1503.000000	0.379316
1504.000000	0.379709
1505.000000	0.380108
1506.000000	0.380519
1507.000000	0.380855
1508.000000	0.381098
1509.000000	0.381372
1510.000000	0.381680
1511.000000	0.382000
1512.000000	0.382280
1513.000000	0.382535
1514.000000	0.382801
1515.000000	0.383004
1516.000000	0.383277
1517.000000	0.383512
1518.000000	0.383709
1519.000000	0.383959
1520.000000	0.384270
1521.000000	0.384508
1522.000000	0.384752
1523.000000	0.385041
1524.000000	0.385207
1525.000000	0.385313
1526.000000	0.385388
1527.000000	0.385405
1528.000000	0.385428
1529.000000	0.385523
1530.000000	0.385606
1531.000000	0.385702
1532.000000	0.385955
1533.000000	0.386281
1534.000000	0.386487
1535.000000	0.386678
1536.000000	0.386748
1537.000000	0.386773
1538.000000	0.386838
1539.000000	0.386972
1540.000000	0.387173
1541.000000	0.387451
1542.000000	0.387792
1543.000000	0.388036
1544.000000	0.388169
1545.000000	0.388235
1546.000000	0.388349
1547.000000	0.388512
1548.000000	0.388738
1549.000000	0.389092
1550.000000	0.389263
1551.000000	0.389375
1552.000000	0.389525
1553.000000	0.389514
1554.000000	0.389584
1555.000000	0.389680
1556.000000	0.389786
1557.000000	0.389916
1558.000000	0.389957
1559.000000	0.389848
1560.000000	0.389863
1561.000000	0.389901
1562.000000	0.389871
1563.000000	0.389954
1564.000000	0.390018
1565.000000	0.389976
1566.000000	0.389914
1567.000000	0.390039
1568.000000	0.390058
1569.000000	0.390068
1570.000000	0.390076
1571.000000	0.390008
1572.000000	0.390086
1573.000000	0.390263
1574.000000	0.390300
1575.000000	0.390428
1576.000000	0.390508
1577.000000	0.390381
1578.000000	0.390373
1579.000000	0.390531
1580.000000	0.390613
1581.000000	0.390804
1582.000000	0.390899
1583.000000	0.390936
1584.000000	0.390925
1585.000000	0.390892
1586.000000	0.390862
1587.000000	0.390836
1588.000000	0.390897
1589.000000	0.390997
1590.000000	0.391095
1591.000000	0.391307
1592.000000	0.391409
1593.000000	0.391460
1594.000000	0.391499
1595.000000	0.391568
1596.000000	0.391655
1597.000000	0.391815
1598.000000	0.391886
1599.000000	0.391928
1600.000000	0.391933
1601.000000	0.391955
1602.000000	0.391990
1603.000000	0.392178
1604.000000	0.392139
1605.000000	0.391948
1606.000000	0.391844
1607.000000	0.391665
1608.000000	0.391625
1609.000000	0.391873
1610.000000	0.391923
1611.000000	0.391913
1612.000000	0.391920
1613.000000	0.391976
1614.000000	0.392031
1615.000000	0.392211
1616.000000	0.392376
1617.000000	0.392486
1618.000000	0.392520
1619.000000	0.392468
1620.000000	0.392485
1621.000000	0.392523
1622.000000	0.392688
1623.000000	0.392891
1624.000000	0.393022
1625.000000	0.392985
1626.000000	0.393020
1627.000000	0.393146
1628.000000	0.393239
1629.000000	0.393300
1630.000000	0.393406
1631.000000	0.393372
1632.000000	0.393432
1633.000000	0.393690
1634.000000	0.393758
1635.000000	0.393742
1636.000000	0.393807
1637.000000	0.393833
1638.000000	0.393869
1639.000000	0.394079
1640.000000	0.394160
1641.000000	0.394219
1642.000000	0.394342
1643.000000	0.394531
1644.000000	0.394681
1645.000000	0.394807
1646.000000	0.394915
1647.000000	0.395076
1648.000000	0.395105
1649.000000	0.395179
1650.000000	0.395322
1651.000000	0.395494
1652.000000	0.395612
1653.000000	0.395697
1654.000000	0.395828
1655.000000	0.395808
1656.000000	0.395787
1657.000000	0.395985
1658.000000	0.395944
1659.000000	0.395804
1660.000000	0.395898
1661.000000	0.395904
1662.000000	0.395991
1663.000000	0.396285
1664.000000	0.396301
1665.000000	0.396091
1666.000000	0.396238
1667.000000	0.396336
1668.000000	0.396475
1669.000000	0.396814
1670.000000	0.396904
1671.000000	0.397009
1672.000000	0.397081
1673.000000	0.397024
1674.000000	0.397095
1675.000000	0.397101
1676.000000	0.397118
1677.000000	0.397266
1678.000000	0.397270
1679.000000	0.397249
1680.000000	0.397284
1681.000000	0.397376
1682.000000	0.397442
1683.000000	0.397511
1684.000000	0.397519
1685.000000	0.397483
1686.000000	0.397565
1687.000000	0.397701
1688.000000	0.397664
1689.000000	0.397620
1690.000000	0.397525
1691.000000	0.397458
1692.000000	0.397428
1693.000000	0.397434
1694.000000	0.397360
1695.000000	0.397278
1696.000000	0.397263
1697.000000	0.397220
1698.000000	0.397250
1699.000000	0.397367
1700.000000	0.397557
1701.000000	0.397786
1702.000000	0.397963
1703.000000	0.397989
1704.000000	0.397904
1705.000000	0.397950
1706.000000	0.398132
1707.000000	0.398171
1708.000000	0.398137
1709.000000	0.398108
1710.000000	0.398048
1711.000000	0.398087
1712.000000	0.398383
1713.000000	0.398452
1714.000000	0.398438
1715.000000	0.398466
1716.000000	0.398458
1717.000000	0.398387
1718.000000	0.398226
1719.000000	0.398151
1720.000000	0.398119
1721.000000	0.398084
1722.000000	0.398156
1723.000000	0.398181
1724.000000	0.398121
1725.000000	0.398217
1726.000000	0.398386
1727.000000	0.398394
1728.000000	0.398251
1729.000000	0.398188
1730.000000	0.398227
1731.000000	0.398251
1732.000000	0.398461
1733.000000	0.398498
1734.000000	0.398154
1735.000000	0.398132
1736.000000	0.398135
1737.000000	0.398165
1738.000000	0.398384
1739.000000	0.398472
1740.000000	0.398489
1741.000000	0.398452
1742.000000	0.398406
1743.000000	0.398403
1744.000000	0.398315
1745.000000	0.398241
1746.000000	0.398227
1747.000000	0.397931
1748.000000	0.397742
1749.000000	0.397610
1750.000000	0.397444
1751.000000	0.397546
1752.000000	0.397678
1753.000000	0.397587
1754.000000	0.397565
1755.000000	0.397557
1756.000000	0.397505
1757.000000	0.397430
1758.000000	0.397401
1759.000000	0.397399
1760.000000	0.397308
1761.000000	0.397069
1762.000000	0.396966
1763.000000	0.396938
1764.000000	0.396839
1765.000000	0.396700
1766.000000	0.396703
1767.000000	0.396600
1768.000000	0.396505
1769.000000	0.396724
1770.000000	0.396793
1771.000000	0.396606
1772.000000	0.396621
1773.000000	0.396694
1774.000000	0.396706
1775.000000	0.396850
1776.000000	0.396883
1777.000000	0.396793
1778.000000	0.396686
1779.000000	0.396474
1780.000000	0.396469
1781.000000	0.396422
1782.000000	0.396534
1783.000000	0.396962
1784.000000	0.396870
1785.000000	0.396972
1786.000000	0.397116
1787.000000	0.397221
1788.000000	0.397489
1789.000000	0.397570
1790.000000	0.397504
1791.000000	0.397424
1792.000000	0.397385
1793.000000	0.397400
1794.000000	0.397540
1795.000000	0.397527
1796.000000	0.397456
1797.000000	0.397407
1798.000000	0.397096
1799.000000	0.397048
1800.000000	0.397276
1801.000000	0.396398
1802.000000	0.396932
1803.000000	0.398090
1804.000000	0.398834
1805.000000	0.401059
1806.000000	0.401652
1807.000000	0.400850
1808.000000	0.400557
1809.000000	0.399864
1810.000000	0.399256
1811.000000	0.399045
1812.000000	0.399073
1813.000000	0.399336
1814.000000	0.400465
1815.000000	0.400401
1816.000000	0.400153
1817.000000	0.399496
1818.000000	0.397614
1819.000000	0.396433
1820.000000	0.396894
1821.000000	0.396900
1822.000000	0.397087
1823.000000	0.398444
1824.000000	0.398349
1825.000000	0.396401
1826.000000	0.396397
1827.000000	0.396870
1828.000000	0.397199
1829.000000	0.398418
1830.000000	0.399645
1831.000000	0.399691
1832.000000	0.398591
1833.000000	0.398095
1834.000000	0.397223
1835.000000	0.396610
1836.000000	0.396117
1837.000000	0.395515
1838.000000	0.394849
1839.000000	0.393641
1840.000000	0.393014
1841.000000	0.392726
1842.000000	0.392554
1843.000000	0.392680
1844.000000	0.392879
1845.000000	0.393068
1846.000000	0.393463
1847.000000	0.393986
1848.000000	0.394711
1849.000000	0.394635
1850.000000	0.394189
1851.000000	0.393585
1852.000000	0.392013
1853.000000	0.391230
1854.000000	0.390620
1855.000000	0.389648
1856.000000	0.388640
1857.000000	0.387246
1858.000000	0.385947
1859.000000	0.384615
1860.000000	0.382895
1861.000000	0.382002
1862.000000	0.381273
1863.000000	0.381261
1864.000000	0.380415
1865.000000	0.379774
1866.000000	0.378529
1867.000000	0.376510
1868.000000	0.374220
1869.000000	0.372282
1870.000000	0.370624
1871.000000	0.368604
1872.000000	0.366536
1873.000000	0.364244
1874.000000	0.361522
1875.000000	0.358824
1876.000000	0.355858
1877.000000	0.352667
1878.000000	0.348915
1879.000000	0.345208
1880.000000	0.341302
1881.000000	0.336783
1882.000000	0.332057
1883.000000	0.327764
1884.000000	0.323446
1885.000000	0.319074
1886.000000	0.314146
1887.000000	0.309265
1888.000000	0.303528
1889.000000	0.297266
1890.000000	0.291419
1891.000000	0.285860
1892.000000	0.280668
1893.000000	0.275441
1894.000000	0.270490
1895.000000	0.265559
1896.000000	0.260763
1897.000000	0.256121
1898.000000	0.251937
1899.000000	0.248353
1900.000000	0.244845
1901.000000	0.241626
1902.000000	0.239580
1903.000000	0.237462
1904.000000	0.235308
1905.000000	0.233947
1906.000000	0.232566
1907.000000	0.231044
1908.000000	0.229743
1909.000000	0.229508
1910.000000	0.229199
1911.000000	0.228785
1912.000000	0.228774
1913.000000	0.228683
1914.000000	0.229073
1915.000000	0.229369
1916.000000	0.229517
1917.000000	0.229812
1918.000000	0.230359
1919.000000	0.230548
1920.000000	0.230846
1921.000000	0.231416
1922.000000	0.232004
1923.000000	0.232466
1924.000000	0.232923
1925.000000	0.233093
1926.000000	0.232722
1927.000000	0.232951
1928.000000	0.233432
1929.000000	0.234147
1930.000000	0.235243
1931.000000	0.236536
1932.000000	0.237269
1933.000000	0.237791
1934.000000	0.237911
1935.000000	0.237933
1936.000000	0.238022
1937.000000	0.238114
1938.000000	0.238471
1939.000000	0.238968
1940.000000	0.239707
1941.000000	0.240672
1942.000000	0.241347
1943.000000	0.241578
1944.000000	0.241982
1945.000000	0.242229
1946.000000	0.242478
1947.000000	0.243014
1948.000000	0.243108
1949.000000	0.243086
1950.000000	0.243594
1951.000000	0.243641
1952.000000	0.243504
1953.000000	0.243484
1954.000000	0.243765
1955.000000	0.243098
1956.000000	0.243124
1957.000000	0.243513
1958.000000	0.243503
1959.000000	0.244151
1960.000000	0.244558
1961.000000	0.244658
1962.000000	0.244894
1963.000000	0.245217
1964.000000	0.245455
1965.000000	0.245513
1966.000000	0.245716
1967.000000	0.245939
1968.000000	0.245655
1969.000000	0.245544
1970.000000	0.245811
1971.000000	0.245671
1972.000000	0.246169
1973.000000	0.246483
1974.000000	0.246557
1975.000000	0.247114
1976.000000	0.248065
1977.000000	0.249091
1978.000000	0.250113
1979.000000	0.251704
1980.000000	0.252558
1981.000000	0.252951
1982.000000	0.253347
1983.000000	0.253573
1984.000000	0.253824
1985.000000	0.253759
1986.000000	0.254463
1987.000000	0.255578
1988.000000	0.256626
1989.000000	0.258260
1990.000000	0.259965
1991.000000	0.260280
1992.000000	0.260791
1993.000000	0.260923
1994.000000	0.260858
1995.000000	0.261581
1996.000000	0.261981
1997.000000	0.262742
1998.000000	0.263927
1999.000000	0.265094
2000.000000	0.266229
2001.000000	0.267910
2002.000000	0.269644
2003.000000	0.271302
2004.000000	0.272141
2005.000000	0.272446
2006.000000	0.272737
2007.000000	0.273141
2008.000000	0.273870
2009.000000	0.275240
2010.000000	0.276252
2011.000000	0.277086
2012.000000	0.277765
2013.000000	0.278148
2014.000000	0.278602
2015.000000	0.279514
2016.000000	0.280268
2017.000000	0.281788
2018.000000	0.283128
2019.000000	0.283693
2020.000000	0.284822
2021.000000	0.285662
2022.000000	0.285924
2023.000000	0.286624
2024.000000	0.287498
2025.000000	0.288568
2026.000000	0.289587
2027.000000	0.290983
2028.000000	0.292485
2029.000000	0.293687
2030.000000	0.294866
2031.000000	0.295665
2032.000000	0.295989
2033.000000	0.296436
2034.000000	0.297176
2035.000000	0.297991
2036.000000	0.298817
2037.000000	0.300346
2038.000000	0.301355
2039.000000	0.302138
2040.000000	0.302931
2041.000000	0.303511
2042.000000	0.304390
2043.000000	0.305445
2044.000000	0.306293
2045.000000	0.306887
2046.000000	0.307025
2047.000000	0.307256
2048.000000	0.306711
2049.000000	0.307345
2050.000000	0.308437
2051.000000	0.309044
2052.000000	0.309861
2053.000000	0.310280
2054.000000	0.310385
2055.000000	0.310713
2056.000000	0.311124
2057.000000	0.312082
2058.000000	0.313008
2059.000000	0.313969
2060.000000	0.314653
2061.000000	0.315526
2062.000000	0.315703
2063.000000	0.314814
2064.000000	0.315031
2065.000000	0.315766
2066.000000	0.316074
2067.000000	0.316996
2068.000000	0.318408
2069.000000	0.318196
2070.000000	0.318413
2071.000000	0.318310
2072.000000	0.318734
2073.000000	0.319750
2074.000000	0.320285
2075.000000	0.321068
2076.000000	0.322269
2077.000000	0.322943
2078.000000	0.323429
2079.000000	0.323826
2080.000000	0.324055
2081.000000	0.324298
2082.000000	0.324516
2083.000000	0.324444
2084.000000	0.324248
2085.000000	0.324766
2086.000000	0.324777
2087.000000	0.325116
2088.000000	0.326698
2089.000000	0.327861
2090.000000	0.328687
2091.000000	0.329725
2092.000000	0.330631
2093.000000	0.330850
2094.000000	0.331378
2095.000000	0.332433
2096.000000	0.333139
2097.000000	0.333449
2098.000000	0.333922
2099.000000	0.334151
2100.000000	0.334285
2101.000000	0.334621
2102.000000	0.334871
2103.000000	0.335357
2104.000000	0.335983
2105.000000	0.336371
2106.000000	0.336598
2107.000000	0.336817
2108.000000	0.336689
2109.000000	0.337238
2110.000000	0.337919
2111.000000	0.338495
2112.000000	0.339669
2113.000000	0.339874
2114.000000	0.339649
2115.000000	0.339603
2116.000000	0.339547
2117.000000	0.339405
2118.000000	0.339815
2119.000000	0.340457
2120.000000	0.340947
2121.000000	0.341703
2122.000000	0.342078
2123.000000	0.342071
2124.000000	0.342541
2125.000000	0.343219
2126.000000	0.343641
2127.000000	0.344237
2128.000000	0.344643
2129.000000	0.344738
2130.000000	0.344695
2131.000000	0.344532
2132.000000	0.344077
2133.000000	0.343945
2134.000000	0.343881
2135.000000	0.344333
2136.000000	0.345580
2137.000000	0.346162
2138.000000	0.346979
2139.000000	0.347127
2140.000000	0.346574
2141.000000	0.346250
2142.000000	0.345383
2143.000000	0.344871
2144.000000	0.344806
2145.000000	0.344711
2146.000000	0.344866
2147.000000	0.345348
2148.000000	0.345154
2149.000000	0.345625
2150.000000	0.346155
2151.000000	0.346228
2152.000000	0.346856
2153.000000	0.347316
2154.000000	0.347678
2155.000000	0.348055
2156.000000	0.348437
2157.000000	0.348934
2158.000000	0.348883
2159.000000	0.348655
2160.000000	0.348407
2161.000000	0.347650
2162.000000	0.347296
2163.000000	0.346636
2164.000000	0.346574
2165.000000	0.346901
2166.000000	0.347062
2167.000000	0.348793
2168.000000	0.349375
2169.000000	0.349474
2170.000000	0.349774
2171.000000	0.349109
2172.000000	0.347159
2173.000000	0.346587
2174.000000	0.345481
2175.000000	0.345651
2176.000000	0.347353
2177.000000	0.348326
2178.000000	0.350474
2179.000000	0.351290
2180.000000	0.351092
2181.000000	0.350888
2182.000000	0.349206
2183.000000	0.347662
2184.000000	0.346087
2185.000000	0.345712
2186.000000	0.345933
2187.000000	0.346028
2188.000000	0.347475
2189.000000	0.347924
2190.000000	0.348011
2191.000000	0.348927
2192.000000	0.348750
2193.000000	0.347491
2194.000000	0.346978
2195.000000	0.346369
2196.000000	0.345626
2197.000000	0.344252
2198.000000	0.344209
2199.000000	0.345774
2200.000000	0.345945
2201.000000	0.346408
2202.000000	0.346701
2203.000000	0.345275
2204.000000	0.343790
2205.000000	0.344825
2206.000000	0.346555
2207.000000	0.347818
2208.000000	0.349033
2209.000000	0.350330
2210.000000	0.351600
2211.000000	0.352279
2212.000000	0.352527
2213.000000	0.350400
2214.000000	0.344174
2215.000000	0.341861
2216.000000	0.338875
2217.000000	0.339137
2218.000000	0.343620
2219.000000	0.346261
2220.000000	0.350536
2221.000000	0.351589
2222.000000	0.350462
2223.000000	0.349919
2224.000000	0.348148
2225.000000	0.346814
2226.000000	0.345151
2227.000000	0.343429
2228.000000	0.340508
2229.000000	0.338365
2230.000000	0.338486
2231.000000	0.339284
2232.000000	0.340264
2233.000000	0.342030
2234.000000	0.342584
2235.000000	0.342141
2236.000000	0.342238
2237.000000	0.342162
2238.000000	0.342250
2239.000000	0.342559
2240.000000	0.342864
2241.000000	0.343705
2242.000000	0.343309
2243.000000	0.342193
2244.000000	0.341110
2245.000000	0.338278
2246.000000	0.336892
2247.000000	0.337119
2248.000000	0.336156
2249.000000	0.334453
2250.000000	0.334441
2251.000000	0.333701
2252.000000	0.333490
2253.000000	0.334960
2254.000000	0.336459
2255.000000	0.337491
2256.000000	0.337610
2257.000000	0.337366
2258.000000	0.337360
2259.000000	0.338012
2260.000000	0.339862
2261.000000	0.339726
2262.000000	0.339102
2263.000000	0.338531
2264.000000	0.336129
2265.000000	0.335156
2266.000000	0.336133
2267.000000	0.335148
2268.000000	0.333021
2269.000000	0.331532
2270.000000	0.328564
2271.000000	0.327985
2272.000000	0.329549
2273.000000	0.330161
2274.000000	0.332574
2275.000000	0.332295
2276.000000	0.330315
2277.000000	0.327663
2278.000000	0.324502
2279.000000	0.321767
2280.000000	0.319726
2281.000000	0.318288
2282.000000	0.316292
2283.000000	0.313151
2284.000000	0.311040
2285.000000	0.308090
2286.000000	0.304134
2287.000000	0.302400
2288.000000	0.303439
2289.000000	0.304498
2290.000000	0.305629
2291.000000	0.307436
2292.000000	0.306587
2293.000000	0.304575
2294.000000	0.303382
2295.000000	0.303303
2296.000000	0.301496
2297.000000	0.298507
2298.000000	0.296647
2299.000000	0.293532
2300.000000	0.291936
2301.000000	0.291837
2302.000000	0.290980
2303.000000	0.292565
2304.000000	0.290600
2305.000000	0.286575
2306.000000	0.282674
2307.000000	0.276611
2308.000000	0.269318
2309.000000	0.265922
2310.000000	0.264585
2311.000000	0.265928
2312.000000	0.268983
2313.000000	0.270183
2314.000000	0.269625
2315.000000	0.268623
2316.000000	0.268958
2317.000000	0.272364
2318.000000	0.276894
2319.000000	0.281611
2320.000000	0.283595
2321.000000	0.283833
2322.000000	0.284097
2323.000000	0.284000
2324.000000	0.285548
2325.000000	0.284714
2326.000000	0.285681
2327.000000	0.286342
2328.000000	0.283657
2329.000000	0.286609
2330.000000	0.288407
2331.000000	0.287911
2332.000000	0.290928
2333.000000	0.291422
2334.000000	0.289382
2335.000000	0.289044
2336.000000	0.289229
2337.000000	0.288647
2338.000000	0.287891
2339.000000	0.287461
2340.000000	0.285530
2341.000000	0.285503
2342.000000	0.288365
2343.000000	0.288745
2344.000000	0.289786
2345.000000	0.288853
2346.000000	0.283151
2347.000000	0.280823
2348.000000	0.278608
2349.000000	0.280155
2350.000000	0.281763
2351.000000	0.281646
2352.000000	0.280820
2353.000000	0.277247
2354.000000	0.273910
2355.000000	0.273274
2356.000000	0.272918
2357.000000	0.275182
2358.000000	0.275437
2359.000000	0.275320
2360.000000	0.276541
2361.000000	0.273739
2362.000000	0.271274
2363.000000	0.270654
2364.000000	0.269507
2365.000000	0.269933
2366.000000	0.270355
2367.000000	0.269040
2368.000000	0.269085
2369.000000	0.266286
2370.000000	0.262330
2371.000000	0.264073
2372.000000	0.263505
2373.000000	0.260921
2374.000000	0.261538
2375.000000	0.260625
2376.000000	0.254344
2377.000000	0.247885
2378.000000	0.246694
2379.000000	0.241551
2380.000000	0.236813
2381.000000	0.240843
2382.000000	0.243611
2383.000000	0.247488
2384.000000	0.257568
2385.000000	0.263771
2386.000000	0.261750
2387.000000	0.259363
2388.000000	0.255143
2389.000000	0.251264
2390.000000	0.247272
2391.000000	0.240277
2392.000000	0.238601
2393.000000	0.230878
2394.000000	0.231135
2395.000000	0.243083
2396.000000	0.242741
2397.000000	0.248834
2398.000000	0.250504
2399.000000	0.243681
2400.000000	0.241180
2401.000000	0.232872
2402.000000	0.236784
2403.000000	0.245214
2404.000000	0.245677
2405.000000	0.252913
2406.000000	0.251597
2407.000000	0.238344
2408.000000	0.240608
2409.000000	0.242044
2410.000000	0.236471
2411.000000	0.247293
2412.000000	0.245603
2413.000000	0.238643
2414.000000	0.245968
2415.000000	0.241874
2416.000000	0.241746
2417.000000	0.240812
2418.000000	0.232818
2419.000000	0.234849
2420.000000	0.231583
2421.000000	0.233408
2422.000000	0.238246
2423.000000	0.233624
2424.000000	0.233829
2425.000000	0.229129
2426.000000	0.220749
2427.000000	0.221506
2428.000000	0.223132
2429.000000	0.233254
2430.000000	0.245179
2431.000000	0.242931
2432.000000	0.241099
2433.000000	0.234571
2434.000000	0.225599
2435.000000	0.219107
2436.000000	0.200684
2437.000000	0.193545
2438.000000	0.190391
2439.000000	0.184339
2440.000000	0.199861
2441.000000	0.203736
2442.000000	0.206621
2443.000000	0.231201
2444.000000	0.237738
2445.000000	0.237738
2446.000000	0.236728
2447.000000	0.222546
2448.000000	0.201690
2449.000000	0.201927
2450.000000	0.219404
2451.000000	0.216213
2452.000000	0.220995
2453.000000	0.216675
2454.000000	0.192959
2455.000000	0.191921
2456.000000	0.202105
2457.000000	0.220082
2458.000000	0.242145
2459.000000	0.258544
2460.000000	0.269405
2461.000000	0.264667
2462.000000	0.258257
2463.000000	0.240538
2464.000000	0.214119
2465.000000	0.216317
2466.000000	0.221715
2467.000000	0.214477
2468.000000	0.234522
2469.000000	0.259524
2470.000000	0.250674
2471.000000	0.237401
2472.000000	0.229609
2473.000000	0.181070
2474.000000	0.146379
2475.000000	0.175033
2476.000000	0.183384
2477.000000	0.201765
2478.000000	0.236429
2479.000000	0.224724
2480.000000	0.234564
2481.000000	0.244739
2482.000000	0.241033
2483.000000	0.252613
2484.000000	0.221365
2485.000000	0.197105
2486.000000	0.188361
2487.000000	0.156973
2488.000000	0.157546
2489.000000	0.165488
2490.000000	0.145245
2491.000000	0.142102
2492.000000	0.153199
2493.000000	0.207393
2494.000000	0.222221
2495.000000	0.244164
2496.000000	0.213227
2497.000000	0.075896
2498.000000	0.022667
2499.000000	-0.027966
2500.000000	-0.020019
