# Wavelength	SM1200H-40_FV7-60_00000.asd.rts.txt
350.000000	0.261894
351.000000	0.250409
352.000000	0.253042
353.000000	0.258014
354.000000	0.259730
355.000000	0.255162
356.000000	0.254175
357.000000	0.257813
358.000000	0.256994
359.000000	0.256812
360.000000	0.256926
361.000000	0.255929
362.000000	0.257116
363.000000	0.258488
364.000000	0.258555
365.000000	0.260789
366.000000	0.259632
367.000000	0.256142
368.000000	0.257854
369.000000	0.259777
370.000000	0.261247
371.000000	0.262624
372.000000	0.262722
373.000000	0.262367
374.000000	0.262895
375.000000	0.264744
376.000000	0.264869
377.000000	0.263531
378.000000	0.264559
379.000000	0.264884
380.000000	0.264795
381.000000	0.266238
382.000000	0.267062
383.000000	0.267552
384.000000	0.268005
385.000000	0.266385
386.000000	0.266233
387.000000	0.267804
388.000000	0.267399
389.000000	0.267377
390.000000	0.268627
391.000000	0.270952
392.000000	0.270938
393.000000	0.270228
394.000000	0.270499
395.000000	0.271075
396.000000	0.272248
397.000000	0.273439
398.000000	0.272722
399.000000	0.273232
400.000000	0.274526
401.000000	0.274584
402.000000	0.274703
403.000000	0.274887
404.000000	0.275084
405.000000	0.274988
406.000000	0.275422
407.000000	0.276410
408.000000	0.276367
409.000000	0.276625
410.000000	0.277132
411.000000	0.277062
412.000000	0.277551
413.000000	0.278026
414.000000	0.277848
415.000000	0.278130
416.000000	0.278450
417.000000	0.278594
418.000000	0.279120
419.000000	0.279131
420.000000	0.278929
421.000000	0.279873
422.000000	0.280551
423.000000	0.280746
424.000000	0.280760
425.000000	0.281185
426.000000	0.281575
427.000000	0.281623
428.000000	0.281954
429.000000	0.282300
430.000000	0.282561
431.000000	0.282840
432.000000	0.283068
433.000000	0.283142
434.000000	0.283090
435.000000	0.283391
436.000000	0.283728
437.000000	0.283766
438.000000	0.283988
439.000000	0.284323
440.000000	0.284687
441.000000	0.284569
442.000000	0.284580
443.000000	0.284845
444.000000	0.285366
445.000000	0.285523
446.000000	0.285582
447.000000	0.285786
448.000000	0.285865
449.000000	0.286039
450.000000	0.286421
451.000000	0.286680
452.000000	0.286871
453.000000	0.287019
454.000000	0.287387
455.000000	0.287748
456.000000	0.288095
457.000000	0.288305
458.000000	0.288598
459.000000	0.288833
460.000000	0.288954
461.000000	0.289249
462.000000	0.289516
463.000000	0.289557
464.000000	0.289807
465.000000	0.290139
466.000000	0.290392
467.000000	0.290510
468.000000	0.290667
469.000000	0.290747
470.000000	0.290809
471.000000	0.291119
472.000000	0.291427
473.000000	0.291601
474.000000	0.291816
475.000000	0.291923
476.000000	0.292070
477.000000	0.292335
478.000000	0.292469
479.000000	0.292658
480.000000	0.292852
481.000000	0.292954
482.000000	0.293239
483.000000	0.293634
484.000000	0.293798
485.000000	0.293877
486.000000	0.294137
487.000000	0.294391
488.000000	0.294554
489.000000	0.294715
490.000000	0.295069
491.000000	0.295322
492.000000	0.295582
493.000000	0.295871
494.000000	0.296065
495.000000	0.296319
496.000000	0.296655
497.000000	0.296849
498.000000	0.297031
499.000000	0.297312
500.000000	0.297562
501.000000	0.297757
502.000000	0.298001
503.000000	0.298354
504.000000	0.298624
505.000000	0.298870
506.000000	0.299156
507.000000	0.299291
508.000000	0.299442
509.000000	0.299667
510.000000	0.299966
511.000000	0.300221
512.000000	0.300455
513.000000	0.300744
514.000000	0.301117
515.000000	0.301536
516.000000	0.301870
517.000000	0.302135
518.000000	0.302400
519.000000	0.302636
520.000000	0.302939
521.000000	0.303216
522.000000	0.303445
523.000000	0.303683
524.000000	0.303961
525.000000	0.304248
526.000000	0.304531
527.000000	0.304793
528.000000	0.305017
529.000000	0.305255
530.000000	0.305498
531.000000	0.305806
532.000000	0.306101
533.000000	0.306360
534.000000	0.306651
535.000000	0.306948
536.000000	0.307161
537.000000	0.307397
538.000000	0.307669
539.000000	0.307937
540.000000	0.308197
541.000000	0.308403
542.000000	0.308568
543.000000	0.308744
544.000000	0.308986
545.000000	0.309241
546.000000	0.309532
547.000000	0.309841
548.000000	0.310168
549.000000	0.310419
550.000000	0.310676
551.000000	0.310970
552.000000	0.311252
553.000000	0.311526
554.000000	0.311801
555.000000	0.312092
556.000000	0.312389
557.000000	0.312659
558.000000	0.313029
559.000000	0.313440
560.000000	0.313771
561.000000	0.314089
562.000000	0.314391
563.000000	0.314668
564.000000	0.314957
565.000000	0.315195
566.000000	0.315559
567.000000	0.315912
568.000000	0.316159
569.000000	0.316416
570.000000	0.316662
571.000000	0.316886
572.000000	0.317112
573.000000	0.317355
574.000000	0.317609
575.000000	0.317916
576.000000	0.318199
577.000000	0.318440
578.000000	0.318717
579.000000	0.319061
580.000000	0.319425
581.000000	0.319755
582.000000	0.319983
583.000000	0.320187
584.000000	0.320417
585.000000	0.320717
586.000000	0.320980
587.000000	0.321206
588.000000	0.321433
589.000000	0.321733
590.000000	0.322068
591.000000	0.322389
592.000000	0.322620
593.000000	0.322849
594.000000	0.323096
595.000000	0.323322
596.000000	0.323493
597.000000	0.323677
598.000000	0.323867
599.000000	0.324057
600.000000	0.324280
601.000000	0.324484
602.000000	0.324707
603.000000	0.324957
604.000000	0.325240
605.000000	0.325536
606.000000	0.325809
607.000000	0.326031
608.000000	0.326171
609.000000	0.326330
610.000000	0.326494
611.000000	0.326619
612.000000	0.326711
613.000000	0.326774
614.000000	0.326843
615.000000	0.326865
616.000000	0.326897
617.000000	0.326945
618.000000	0.327087
619.000000	0.327207
620.000000	0.327273
621.000000	0.327357
622.000000	0.327476
623.000000	0.327610
624.000000	0.327738
625.000000	0.327887
626.000000	0.328001
627.000000	0.328041
628.000000	0.327976
629.000000	0.327947
630.000000	0.327864
631.000000	0.327825
632.000000	0.327892
633.000000	0.328032
634.000000	0.328171
635.000000	0.328269
636.000000	0.328419
637.000000	0.328654
638.000000	0.328959
639.000000	0.329277
640.000000	0.329606
641.000000	0.329809
642.000000	0.329980
643.000000	0.330162
644.000000	0.330380
645.000000	0.330572
646.000000	0.330747
647.000000	0.330891
648.000000	0.331038
649.000000	0.331178
650.000000	0.331297
651.000000	0.331448
652.000000	0.331576
653.000000	0.331684
654.000000	0.331715
655.000000	0.331805
656.000000	0.331945
657.000000	0.332044
658.000000	0.332122
659.000000	0.332263
660.000000	0.332453
661.000000	0.332553
662.000000	0.332620
663.000000	0.332721
664.000000	0.332822
665.000000	0.332916
666.000000	0.333031
667.000000	0.333163
668.000000	0.333301
669.000000	0.333427
670.000000	0.333545
671.000000	0.333673
672.000000	0.333872
673.000000	0.334091
674.000000	0.334206
675.000000	0.334271
676.000000	0.334332
677.000000	0.334453
678.000000	0.334637
679.000000	0.334816
680.000000	0.334960
681.000000	0.335102
682.000000	0.335253
683.000000	0.335348
684.000000	0.335490
685.000000	0.335586
686.000000	0.335695
687.000000	0.335859
688.000000	0.336050
689.000000	0.336216
690.000000	0.336367
691.000000	0.336539
692.000000	0.336703
693.000000	0.336905
694.000000	0.337073
695.000000	0.337216
696.000000	0.337341
697.000000	0.337453
698.000000	0.337493
699.000000	0.337538
700.000000	0.337649
701.000000	0.337717
702.000000	0.337821
703.000000	0.337963
704.000000	0.338108
705.000000	0.338289
706.000000	0.338449
707.000000	0.338598
708.000000	0.338731
709.000000	0.338859
710.000000	0.339011
711.000000	0.339151
712.000000	0.339291
713.000000	0.339448
714.000000	0.339562
715.000000	0.339700
716.000000	0.339849
717.000000	0.339933
718.000000	0.339989
719.000000	0.340050
720.000000	0.340150
721.000000	0.340237
722.000000	0.340301
723.000000	0.340420
724.000000	0.340594
725.000000	0.340730
726.000000	0.340870
727.000000	0.340936
728.000000	0.340995
729.000000	0.341065
730.000000	0.341104
731.000000	0.341205
732.000000	0.341290
733.000000	0.341364
734.000000	0.341402
735.000000	0.341477
736.000000	0.341650
737.000000	0.341708
738.000000	0.341745
739.000000	0.341859
740.000000	0.341920
741.000000	0.341991
742.000000	0.342048
743.000000	0.342071
744.000000	0.342142
745.000000	0.342219
746.000000	0.342309
747.000000	0.342334
748.000000	0.342400
749.000000	0.342521
750.000000	0.342656
751.000000	0.342814
752.000000	0.342917
753.000000	0.342942
754.000000	0.342888
755.000000	0.342900
756.000000	0.342958
757.000000	0.342962
758.000000	0.343060
759.000000	0.343185
760.000000	0.343226
761.000000	0.343309
762.000000	0.343348
763.000000	0.343344
764.000000	0.343428
765.000000	0.343468
766.000000	0.343457
767.000000	0.343413
768.000000	0.343367
769.000000	0.343323
770.000000	0.343311
771.000000	0.343386
772.000000	0.343499
773.000000	0.343588
774.000000	0.343724
775.000000	0.343809
776.000000	0.343854
777.000000	0.343867
778.000000	0.343892
779.000000	0.343859
780.000000	0.343785
781.000000	0.343743
782.000000	0.343758
783.000000	0.343900
784.000000	0.344028
785.000000	0.344138
786.000000	0.344184
787.000000	0.344173
788.000000	0.344242
789.000000	0.344311
790.000000	0.344344
791.000000	0.344370
792.000000	0.344353
793.000000	0.344341
794.000000	0.344374
795.000000	0.344387
796.000000	0.344377
797.000000	0.344347
798.000000	0.344313
799.000000	0.344354
800.000000	0.344422
801.000000	0.344442
802.000000	0.344449
803.000000	0.344350
804.000000	0.344158
805.000000	0.343938
806.000000	0.343696
807.000000	0.343567
808.000000	0.343560
809.000000	0.343617
810.000000	0.343732
811.000000	0.343858
812.000000	0.343841
813.000000	0.343807
814.000000	0.343806
815.000000	0.343845
816.000000	0.343978
817.000000	0.344132
818.000000	0.344128
819.000000	0.344055
820.000000	0.343960
821.000000	0.343824
822.000000	0.343710
823.000000	0.343648
824.000000	0.343545
825.000000	0.343423
826.000000	0.343405
827.000000	0.343399
828.000000	0.343396
829.000000	0.343444
830.000000	0.343397
831.000000	0.343326
832.000000	0.343238
833.000000	0.343185
834.000000	0.343173
835.000000	0.343219
836.000000	0.343244
837.000000	0.343268
838.000000	0.343327
839.000000	0.343412
840.000000	0.343414
841.000000	0.343383
842.000000	0.343338
843.000000	0.343295
844.000000	0.343174
845.000000	0.342950
846.000000	0.342741
847.000000	0.342596
848.000000	0.342502
849.000000	0.342461
850.000000	0.342431
851.000000	0.342428
852.000000	0.342471
853.000000	0.342455
854.000000	0.342311
855.000000	0.342184
856.000000	0.342064
857.000000	0.341902
858.000000	0.341903
859.000000	0.342021
860.000000	0.342059
861.000000	0.341932
862.000000	0.341756
863.000000	0.341630
864.000000	0.341476
865.000000	0.341352
866.000000	0.341286
867.000000	0.341134
868.000000	0.341079
869.000000	0.341017
870.000000	0.340882
871.000000	0.340818
872.000000	0.340717
873.000000	0.340474
874.000000	0.340278
875.000000	0.340038
876.000000	0.339790
877.000000	0.339543
878.000000	0.339330
879.000000	0.339205
880.000000	0.339041
881.000000	0.338915
882.000000	0.338757
883.000000	0.338588
884.000000	0.338399
885.000000	0.338255
886.000000	0.338086
887.000000	0.337905
888.000000	0.337800
889.000000	0.337662
890.000000	0.337416
891.000000	0.337236
892.000000	0.336972
893.000000	0.336758
894.000000	0.336728
895.000000	0.336539
896.000000	0.336385
897.000000	0.336216
898.000000	0.335939
899.000000	0.335723
900.000000	0.335509
901.000000	0.335230
902.000000	0.334959
903.000000	0.334630
904.000000	0.334378
905.000000	0.334242
906.000000	0.334257
907.000000	0.334201
908.000000	0.334050
909.000000	0.333812
910.000000	0.333543
911.000000	0.333300
912.000000	0.333120
913.000000	0.332879
914.000000	0.332630
915.000000	0.332457
916.000000	0.332280
917.000000	0.332107
918.000000	0.332014
919.000000	0.331943
920.000000	0.331545
921.000000	0.331094
922.000000	0.330713
923.000000	0.330408
924.000000	0.330166
925.000000	0.329924
926.000000	0.329699
927.000000	0.329538
928.000000	0.329352
929.000000	0.329139
930.000000	0.328918
931.000000	0.328635
932.000000	0.328267
933.000000	0.327955
934.000000	0.327879
935.000000	0.327728
936.000000	0.327516
937.000000	0.327213
938.000000	0.326862
939.000000	0.326686
940.000000	0.326506
941.000000	0.326097
942.000000	0.325608
943.000000	0.325314
944.000000	0.325153
945.000000	0.324919
946.000000	0.324584
947.000000	0.324362
948.000000	0.324370
949.000000	0.324272
950.000000	0.324140
951.000000	0.323969
952.000000	0.323793
953.000000	0.323595
954.000000	0.323406
955.000000	0.323163
956.000000	0.322856
957.000000	0.322578
958.000000	0.322243
959.000000	0.321867
960.000000	0.321640
961.000000	0.321390
962.000000	0.321065
963.000000	0.320839
964.000000	0.320719
965.000000	0.320644
966.000000	0.320430
967.000000	0.320151
968.000000	0.319900
969.000000	0.319540
970.000000	0.319028
971.000000	0.318726
972.000000	0.318460
973.000000	0.318123
974.000000	0.317947
975.000000	0.317739
976.000000	0.317539
977.000000	0.317391
978.000000	0.317257
979.000000	0.317156
980.000000	0.316849
981.000000	0.316560
982.000000	0.316520
983.000000	0.316338
984.000000	0.316043
985.000000	0.315952
986.000000	0.315574
987.000000	0.315146
988.000000	0.314819
989.000000	0.314668
990.000000	0.314685
991.000000	0.314575
992.000000	0.314180
993.000000	0.314223
994.000000	0.314130
995.000000	0.313931
996.000000	0.313721
997.000000	0.313694
998.000000	0.313687
999.000000	0.313662
1000.000000	0.313577
1001.000000	0.313932
1002.000000	0.313644
1003.000000	0.313349
1004.000000	0.313200
1005.000000	0.313090
1006.000000	0.312673
1007.000000	0.312146
1008.000000	0.312130
1009.000000	0.311836
1010.000000	0.311472
1011.000000	0.312112
1012.000000	0.312288
1013.000000	0.311867
1014.000000	0.311878
1015.000000	0.311611
1016.000000	0.311280
1017.000000	0.311184
1018.000000	0.311157
1019.000000	0.311151
1020.000000	0.311442
1021.000000	0.311222
1022.000000	0.310834
1023.000000	0.310889
1024.000000	0.310834
1025.000000	0.310992
1026.000000	0.311177
1027.000000	0.311229
1028.000000	0.311001
1029.000000	0.310815
1030.000000	0.310703
1031.000000	0.310687
1032.000000	0.310835
1033.000000	0.310785
1034.000000	0.310684
1035.000000	0.310476
1036.000000	0.310362
1037.000000	0.310104
1038.000000	0.310028
1039.000000	0.310179
1040.000000	0.310507
1041.000000	0.310500
1042.000000	0.310203
1043.000000	0.309960
1044.000000	0.309996
1045.000000	0.310063
1046.000000	0.310172
1047.000000	0.310453
1048.000000	0.310728
1049.000000	0.310878
1050.000000	0.311378
1051.000000	0.311497
1052.000000	0.311054
1053.000000	0.311034
1054.000000	0.311280
1055.000000	0.311445
1056.000000	0.311682
1057.000000	0.312244
1058.000000	0.312426
1059.000000	0.312309
1060.000000	0.312499
1061.000000	0.312569
1062.000000	0.312490
1063.000000	0.312740
1064.000000	0.313004
1065.000000	0.313276
1066.000000	0.313557
1067.000000	0.314065
1068.000000	0.314244
1069.000000	0.314146
1070.000000	0.314157
1071.000000	0.314058
1072.000000	0.314075
1073.000000	0.314136
1074.000000	0.314452
1075.000000	0.314629
1076.000000	0.314971
1077.000000	0.315424
1078.000000	0.315614
1079.000000	0.315768
1080.000000	0.315853
1081.000000	0.316042
1082.000000	0.316246
1083.000000	0.316460
1084.000000	0.316824
1085.000000	0.317108
1086.000000	0.317341
1087.000000	0.317517
1088.000000	0.317489
1089.000000	0.317679
1090.000000	0.318005
1091.000000	0.317983
1092.000000	0.318424
1093.000000	0.318845
1094.000000	0.319049
1095.000000	0.318995
1096.000000	0.319227
1097.000000	0.319443
1098.000000	0.319736
1099.000000	0.320201
1100.000000	0.320530
1101.000000	0.320787
1102.000000	0.320938
1103.000000	0.320860
1104.000000	0.321036
1105.000000	0.321340
1106.000000	0.321506
1107.000000	0.321654
1108.000000	0.321815
1109.000000	0.321902
1110.000000	0.322014
1111.000000	0.322142
1112.000000	0.322395
1113.000000	0.322565
1114.000000	0.322658
1115.000000	0.322796
1116.000000	0.322958
1117.000000	0.323141
1118.000000	0.323323
1119.000000	0.323446
1120.000000	0.323591
1121.000000	0.323718
1122.000000	0.323870
1123.000000	0.324195
1124.000000	0.324385
1125.000000	0.324600
1126.000000	0.324753
1127.000000	0.324899
1128.000000	0.325036
1129.000000	0.325181
1130.000000	0.325382
1131.000000	0.325699
1132.000000	0.325769
1133.000000	0.325743
1134.000000	0.325900
1135.000000	0.325994
1136.000000	0.326044
1137.000000	0.326204
1138.000000	0.326265
1139.000000	0.326233
1140.000000	0.326337
1141.000000	0.326494
1142.000000	0.326634
1143.000000	0.326712
1144.000000	0.326874
1145.000000	0.326916
1146.000000	0.326893
1147.000000	0.326866
1148.000000	0.326649
1149.000000	0.326686
1150.000000	0.326826
1151.000000	0.326944
1152.000000	0.327124
1153.000000	0.327263
1154.000000	0.327375
1155.000000	0.327389
1156.000000	0.327349
1157.000000	0.327349
1158.000000	0.327163
1159.000000	0.327118
1160.000000	0.327194
1161.000000	0.327225
1162.000000	0.327276
1163.000000	0.327568
1164.000000	0.327630
1165.000000	0.327627
1166.000000	0.327691
1167.000000	0.327669
1168.000000	0.327674
1169.000000	0.327726
1170.000000	0.327835
1171.000000	0.328055
1172.000000	0.328157
1173.000000	0.328233
1174.000000	0.328292
1175.000000	0.328167
1176.000000	0.328151
1177.000000	0.328327
1178.000000	0.328418
1179.000000	0.328543
1180.000000	0.328527
1181.000000	0.328495
1182.000000	0.328425
1183.000000	0.328422
1184.000000	0.328489
1185.000000	0.328491
1186.000000	0.328511
1187.000000	0.328533
1188.000000	0.328541
1189.000000	0.328492
1190.000000	0.328492
1191.000000	0.328498
1192.000000	0.328499
1193.000000	0.328641
1194.000000	0.328841
1195.000000	0.328929
1196.000000	0.328963
1197.000000	0.328934
1198.000000	0.328769
1199.000000	0.328707
1200.000000	0.328618
1201.000000	0.328611
1202.000000	0.328661
1203.000000	0.328705
1204.000000	0.328669
1205.000000	0.328665
1206.000000	0.328590
1207.000000	0.328533
1208.000000	0.328478
1209.000000	0.328452
1210.000000	0.328443
1211.000000	0.328461
1212.000000	0.328474
1213.000000	0.328569
1214.000000	0.328622
1215.000000	0.328632
1216.000000	0.328631
1217.000000	0.328554
1218.000000	0.328513
1219.000000	0.328510
1220.000000	0.328557
1221.000000	0.328482
1222.000000	0.328457
1223.000000	0.328494
1224.000000	0.328471
1225.000000	0.328498
1226.000000	0.328595
1227.000000	0.328518
1228.000000	0.328488
1229.000000	0.328435
1230.000000	0.328348
1231.000000	0.328203
1232.000000	0.328132
1233.000000	0.328192
1234.000000	0.328318
1235.000000	0.328324
1236.000000	0.328237
1237.000000	0.328224
1238.000000	0.328108
1239.000000	0.327993
1240.000000	0.327939
1241.000000	0.327851
1242.000000	0.327719
1243.000000	0.327681
1244.000000	0.327714
1245.000000	0.327877
1246.000000	0.327907
1247.000000	0.327914
1248.000000	0.328005
1249.000000	0.328005
1250.000000	0.328052
1251.000000	0.328129
1252.000000	0.328136
1253.000000	0.328116
1254.000000	0.328113
1255.000000	0.328079
1256.000000	0.328055
1257.000000	0.328067
1258.000000	0.328096
1259.000000	0.328049
1260.000000	0.328096
1261.000000	0.328114
1262.000000	0.328133
1263.000000	0.328221
1264.000000	0.328276
1265.000000	0.328317
1266.000000	0.328311
1267.000000	0.328221
1268.000000	0.328125
1269.000000	0.327981
1270.000000	0.327958
1271.000000	0.327946
1272.000000	0.327951
1273.000000	0.327986
1274.000000	0.327953
1275.000000	0.327901
1276.000000	0.327864
1277.000000	0.327845
1278.000000	0.327687
1279.000000	0.327619
1280.000000	0.327514
1281.000000	0.327417
1282.000000	0.327410
1283.000000	0.327460
1284.000000	0.327473
1285.000000	0.327487
1286.000000	0.327520
1287.000000	0.327516
1288.000000	0.327538
1289.000000	0.327553
1290.000000	0.327446
1291.000000	0.327334
1292.000000	0.327239
1293.000000	0.327209
1294.000000	0.327337
1295.000000	0.327520
1296.000000	0.327613
1297.000000	0.327600
1298.000000	0.327520
1299.000000	0.327414
1300.000000	0.327392
1301.000000	0.327346
1302.000000	0.327243
1303.000000	0.327262
1304.000000	0.327214
1305.000000	0.327212
1306.000000	0.327138
1307.000000	0.327062
1308.000000	0.327051
1309.000000	0.327016
1310.000000	0.326972
1311.000000	0.327034
1312.000000	0.326995
1313.000000	0.326873
1314.000000	0.326830
1315.000000	0.326746
1316.000000	0.326739
1317.000000	0.326796
1318.000000	0.326794
1319.000000	0.326680
1320.000000	0.326633
1321.000000	0.326579
1322.000000	0.326406
1323.000000	0.326338
1324.000000	0.326336
1325.000000	0.326201
1326.000000	0.326017
1327.000000	0.325923
1328.000000	0.325977
1329.000000	0.325905
1330.000000	0.325807
1331.000000	0.325803
1332.000000	0.325886
1333.000000	0.325823
1334.000000	0.325811
1335.000000	0.325839
1336.000000	0.325766
1337.000000	0.325751
1338.000000	0.325785
1339.000000	0.325758
1340.000000	0.325678
1341.000000	0.325529
1342.000000	0.325398
1343.000000	0.325339
1344.000000	0.325259
1345.000000	0.325217
1346.000000	0.325200
1347.000000	0.325045
1348.000000	0.325015
1349.000000	0.324921
1350.000000	0.324886
1351.000000	0.324908
1352.000000	0.324860
1353.000000	0.324824
1354.000000	0.324887
1355.000000	0.324850
1356.000000	0.324688
1357.000000	0.324534
1358.000000	0.324390
1359.000000	0.324173
1360.000000	0.324030
1361.000000	0.324066
1362.000000	0.323967
1363.000000	0.323778
1364.000000	0.323697
1365.000000	0.323587
1366.000000	0.323502
1367.000000	0.323482
1368.000000	0.323368
1369.000000	0.323304
1370.000000	0.323187
1371.000000	0.322936
1372.000000	0.322707
1373.000000	0.322462
1374.000000	0.322171
1375.000000	0.321975
1376.000000	0.321764
1377.000000	0.321418
1378.000000	0.321012
1379.000000	0.320356
1380.000000	0.319642
1381.000000	0.318916
1382.000000	0.318109
1383.000000	0.317309
1384.000000	0.316281
1385.000000	0.315112
1386.000000	0.314124
1387.000000	0.313304
1388.000000	0.312587
1389.000000	0.312089
1390.000000	0.311737
1391.000000	0.311489
1392.000000	0.311582
1393.000000	0.311702
1394.000000	0.312073
1395.000000	0.312368
1396.000000	0.312750
1397.000000	0.312958
1398.000000	0.313097
1399.000000	0.313276
1400.000000	0.313428
1401.000000	0.313428
1402.000000	0.313436
1403.000000	0.313310
1404.000000	0.313192
1405.000000	0.312980
1406.000000	0.312826
1407.000000	0.312778
1408.000000	0.312573
1409.000000	0.312478
1410.000000	0.312517
1411.000000	0.312482
1412.000000	0.312439
1413.000000	0.312451
1414.000000	0.312469
1415.000000	0.312532
1416.000000	0.312662
1417.000000	0.312808
1418.000000	0.312897
1419.000000	0.313049
1420.000000	0.313173
1421.000000	0.313343
1422.000000	0.313511
1423.000000	0.313707
1424.000000	0.313803
1425.000000	0.313933
1426.000000	0.314025
1427.000000	0.314076
1428.000000	0.314192
1429.000000	0.314292
1430.000000	0.314424
1431.000000	0.314624
1432.000000	0.314774
1433.000000	0.314933
1434.000000	0.315086
1435.000000	0.315364
1436.000000	0.315515
1437.000000	0.315572
1438.000000	0.315660
1439.000000	0.315757
1440.000000	0.315833
1441.000000	0.315959
1442.000000	0.316080
1443.000000	0.316118
1444.000000	0.316113
1445.000000	0.316165
1446.000000	0.316279
1447.000000	0.316405
1448.000000	0.316480
1449.000000	0.316578
1450.000000	0.316701
1451.000000	0.316778
1452.000000	0.316811
1453.000000	0.316821
1454.000000	0.316768
1455.000000	0.316719
1456.000000	0.316774
1457.000000	0.316824
1458.000000	0.316824
1459.000000	0.316796
1460.000000	0.316729
1461.000000	0.316695
1462.000000	0.316692
1463.000000	0.316665
1464.000000	0.316707
1465.000000	0.316773
1466.000000	0.316774
1467.000000	0.316797
1468.000000	0.316863
1469.000000	0.317042
1470.000000	0.317131
1471.000000	0.317191
1472.000000	0.317236
1473.000000	0.317238
1474.000000	0.317239
1475.000000	0.317330
1476.000000	0.317427
1477.000000	0.317506
1478.000000	0.317615
1479.000000	0.317677
1480.000000	0.317719
1481.000000	0.317788
1482.000000	0.317934
1483.000000	0.318034
1484.000000	0.318120
1485.000000	0.318238
1486.000000	0.318331
1487.000000	0.318444
1488.000000	0.318701
1489.000000	0.318808
1490.000000	0.318637
1491.000000	0.318646
1492.000000	0.318602
1493.000000	0.318605
1494.000000	0.318689
1495.000000	0.318728
1496.000000	0.318722
1497.000000	0.318753
1498.000000	0.318815
1499.000000	0.318890
1500.000000	0.318982
1501.000000	0.319062
1502.000000	0.319152
1503.000000	0.319344
1504.000000	0.319543
1505.000000	0.319696
1506.000000	0.319880
1507.000000	0.319989
1508.000000	0.320116
1509.000000	0.320304
1510.000000	0.320459
1511.000000	0.320604
1512.000000	0.320694
1513.000000	0.320770
1514.000000	0.320826
1515.000000	0.320790
1516.000000	0.320825
1517.000000	0.320832
1518.000000	0.320775
1519.000000	0.320717
1520.000000	0.320742
1521.000000	0.320754
1522.000000	0.320814
1523.000000	0.320982
1524.000000	0.321055
1525.000000	0.321068
1526.000000	0.321066
1527.000000	0.321101
1528.000000	0.321170
1529.000000	0.321201
1530.000000	0.321197
1531.000000	0.321231
1532.000000	0.321265
1533.000000	0.321300
1534.000000	0.321377
1535.000000	0.321481
1536.000000	0.321493
1537.000000	0.321582
1538.000000	0.321706
1539.000000	0.321694
1540.000000	0.321715
1541.000000	0.321769
1542.000000	0.321792
1543.000000	0.321847
1544.000000	0.321879
1545.000000	0.321902
1546.000000	0.321903
1547.000000	0.321905
1548.000000	0.321947
1549.000000	0.321940
1550.000000	0.321883
1551.000000	0.321833
1552.000000	0.321765
1553.000000	0.321662
1554.000000	0.321566
1555.000000	0.321510
1556.000000	0.321468
1557.000000	0.321398
1558.000000	0.321376
1559.000000	0.321339
1560.000000	0.321283
1561.000000	0.321276
1562.000000	0.321234
1563.000000	0.321198
1564.000000	0.321198
1565.000000	0.321212
1566.000000	0.321153
1567.000000	0.321171
1568.000000	0.321179
1569.000000	0.321237
1570.000000	0.321273
1571.000000	0.321294
1572.000000	0.321336
1573.000000	0.321390
1574.000000	0.321411
1575.000000	0.321480
1576.000000	0.321521
1577.000000	0.321506
1578.000000	0.321453
1579.000000	0.321461
1580.000000	0.321418
1581.000000	0.321372
1582.000000	0.321314
1583.000000	0.321216
1584.000000	0.321111
1585.000000	0.321059
1586.000000	0.321035
1587.000000	0.321037
1588.000000	0.321028
1589.000000	0.321031
1590.000000	0.321047
1591.000000	0.321109
1592.000000	0.321138
1593.000000	0.321217
1594.000000	0.321213
1595.000000	0.321206
1596.000000	0.321160
1597.000000	0.321073
1598.000000	0.321003
1599.000000	0.320920
1600.000000	0.320842
1601.000000	0.320871
1602.000000	0.320879
1603.000000	0.320923
1604.000000	0.320943
1605.000000	0.320994
1606.000000	0.320992
1607.000000	0.320977
1608.000000	0.321009
1609.000000	0.321118
1610.000000	0.321140
1611.000000	0.321197
1612.000000	0.321215
1613.000000	0.321236
1614.000000	0.321265
1615.000000	0.321389
1616.000000	0.321457
1617.000000	0.321422
1618.000000	0.321447
1619.000000	0.321473
1620.000000	0.321460
1621.000000	0.321506
1622.000000	0.321535
1623.000000	0.321437
1624.000000	0.321405
1625.000000	0.321309
1626.000000	0.321170
1627.000000	0.321036
1628.000000	0.320927
1629.000000	0.320759
1630.000000	0.320651
1631.000000	0.320489
1632.000000	0.320402
1633.000000	0.320377
1634.000000	0.320374
1635.000000	0.320517
1636.000000	0.320533
1637.000000	0.320508
1638.000000	0.320484
1639.000000	0.320483
1640.000000	0.320450
1641.000000	0.320473
1642.000000	0.320484
1643.000000	0.320485
1644.000000	0.320472
1645.000000	0.320491
1646.000000	0.320432
1647.000000	0.320353
1648.000000	0.320273
1649.000000	0.320241
1650.000000	0.320231
1651.000000	0.320273
1652.000000	0.320296
1653.000000	0.320279
1654.000000	0.320289
1655.000000	0.320241
1656.000000	0.320127
1657.000000	0.320045
1658.000000	0.319998
1659.000000	0.320038
1660.000000	0.320085
1661.000000	0.320116
1662.000000	0.320097
1663.000000	0.319983
1664.000000	0.319955
1665.000000	0.319951
1666.000000	0.320001
1667.000000	0.320039
1668.000000	0.320035
1669.000000	0.319998
1670.000000	0.319899
1671.000000	0.319860
1672.000000	0.319829
1673.000000	0.319719
1674.000000	0.319714
1675.000000	0.319791
1676.000000	0.319847
1677.000000	0.319880
1678.000000	0.319911
1679.000000	0.319951
1680.000000	0.320022
1681.000000	0.320049
1682.000000	0.320032
1683.000000	0.320036
1684.000000	0.319971
1685.000000	0.319950
1686.000000	0.319972
1687.000000	0.319956
1688.000000	0.319883
1689.000000	0.319883
1690.000000	0.319844
1691.000000	0.319847
1692.000000	0.319839
1693.000000	0.319815
1694.000000	0.319788
1695.000000	0.319727
1696.000000	0.319657
1697.000000	0.319534
1698.000000	0.319399
1699.000000	0.319319
1700.000000	0.319249
1701.000000	0.319250
1702.000000	0.319113
1703.000000	0.318980
1704.000000	0.318937
1705.000000	0.318904
1706.000000	0.318951
1707.000000	0.318958
1708.000000	0.318912
1709.000000	0.318845
1710.000000	0.318882
1711.000000	0.318852
1712.000000	0.318804
1713.000000	0.318752
1714.000000	0.318643
1715.000000	0.318639
1716.000000	0.318746
1717.000000	0.318793
1718.000000	0.318850
1719.000000	0.318849
1720.000000	0.318884
1721.000000	0.318823
1722.000000	0.318679
1723.000000	0.318588
1724.000000	0.318426
1725.000000	0.318406
1726.000000	0.318407
1727.000000	0.318427
1728.000000	0.318482
1729.000000	0.318428
1730.000000	0.318466
1731.000000	0.318483
1732.000000	0.318485
1733.000000	0.318517
1734.000000	0.318407
1735.000000	0.318422
1736.000000	0.318441
1737.000000	0.318445
1738.000000	0.318557
1739.000000	0.318558
1740.000000	0.318453
1741.000000	0.318389
1742.000000	0.318303
1743.000000	0.318371
1744.000000	0.318496
1745.000000	0.318508
1746.000000	0.318576
1747.000000	0.318445
1748.000000	0.318338
1749.000000	0.318261
1750.000000	0.318192
1751.000000	0.318307
1752.000000	0.318423
1753.000000	0.318442
1754.000000	0.318431
1755.000000	0.318244
1756.000000	0.318177
1757.000000	0.318178
1758.000000	0.318174
1759.000000	0.318251
1760.000000	0.318258
1761.000000	0.318170
1762.000000	0.318078
1763.000000	0.317989
1764.000000	0.317883
1765.000000	0.317656
1766.000000	0.317582
1767.000000	0.317491
1768.000000	0.317413
1769.000000	0.317529
1770.000000	0.317621
1771.000000	0.317639
1772.000000	0.317721
1773.000000	0.317838
1774.000000	0.317890
1775.000000	0.317996
1776.000000	0.318062
1777.000000	0.317998
1778.000000	0.318078
1779.000000	0.318229
1780.000000	0.318307
1781.000000	0.318405
1782.000000	0.318418
1783.000000	0.318379
1784.000000	0.318432
1785.000000	0.318336
1786.000000	0.318232
1787.000000	0.318280
1788.000000	0.318360
1789.000000	0.318268
1790.000000	0.318274
1791.000000	0.318127
1792.000000	0.317899
1793.000000	0.317727
1794.000000	0.317448
1795.000000	0.317346
1796.000000	0.317370
1797.000000	0.317374
1798.000000	0.317489
1799.000000	0.317527
1800.000000	0.317551
1801.000000	0.318042
1802.000000	0.317831
1803.000000	0.316694
1804.000000	0.316292
1805.000000	0.315682
1806.000000	0.315429
1807.000000	0.315673
1808.000000	0.315627
1809.000000	0.315507
1810.000000	0.315387
1811.000000	0.315470
1812.000000	0.315684
1813.000000	0.315736
1814.000000	0.316145
1815.000000	0.316096
1816.000000	0.315438
1817.000000	0.315086
1818.000000	0.314736
1819.000000	0.314556
1820.000000	0.314658
1821.000000	0.314957
1822.000000	0.314961
1823.000000	0.314712
1824.000000	0.314759
1825.000000	0.314727
1826.000000	0.314867
1827.000000	0.315379
1828.000000	0.315449
1829.000000	0.315558
1830.000000	0.315352
1831.000000	0.315190
1832.000000	0.314949
1833.000000	0.314790
1834.000000	0.314458
1835.000000	0.314358
1836.000000	0.314133
1837.000000	0.314188
1838.000000	0.314449
1839.000000	0.314683
1840.000000	0.314804
1841.000000	0.315360
1842.000000	0.315521
1843.000000	0.315318
1844.000000	0.315474
1845.000000	0.315640
1846.000000	0.315694
1847.000000	0.315757
1848.000000	0.315746
1849.000000	0.315092
1850.000000	0.314437
1851.000000	0.314267
1852.000000	0.314024
1853.000000	0.314013
1854.000000	0.314613
1855.000000	0.314557
1856.000000	0.314080
1857.000000	0.313665
1858.000000	0.313078
1859.000000	0.312388
1860.000000	0.312307
1861.000000	0.312122
1862.000000	0.311956
1863.000000	0.312197
1864.000000	0.312106
1865.000000	0.311763
1866.000000	0.311648
1867.000000	0.311590
1868.000000	0.311561
1869.000000	0.311101
1870.000000	0.310054
1871.000000	0.309392
1872.000000	0.308466
1873.000000	0.307917
1874.000000	0.308173
1875.000000	0.307746
1876.000000	0.306736
1877.000000	0.305700
1878.000000	0.304885
1879.000000	0.303982
1880.000000	0.303074
1881.000000	0.302187
1882.000000	0.300883
1883.000000	0.299014
1884.000000	0.297918
1885.000000	0.297358
1886.000000	0.296156
1887.000000	0.295019
1888.000000	0.293701
1889.000000	0.291554
1890.000000	0.289541
1891.000000	0.287706
1892.000000	0.285822
1893.000000	0.284096
1894.000000	0.282326
1895.000000	0.280606
1896.000000	0.278974
1897.000000	0.277650
1898.000000	0.276414
1899.000000	0.275347
1900.000000	0.274231
1901.000000	0.273232
1902.000000	0.272583
1903.000000	0.271693
1904.000000	0.270850
1905.000000	0.270572
1906.000000	0.270390
1907.000000	0.270303
1908.000000	0.270522
1909.000000	0.271414
1910.000000	0.272098
1911.000000	0.272159
1912.000000	0.272579
1913.000000	0.272892
1914.000000	0.272936
1915.000000	0.273744
1916.000000	0.274622
1917.000000	0.275220
1918.000000	0.275892
1919.000000	0.276721
1920.000000	0.276745
1921.000000	0.277197
1922.000000	0.278138
1923.000000	0.278335
1924.000000	0.278836
1925.000000	0.279297
1926.000000	0.279075
1927.000000	0.279515
1928.000000	0.279877
1929.000000	0.280496
1930.000000	0.280707
1931.000000	0.281299
1932.000000	0.281794
1933.000000	0.282183
1934.000000	0.282498
1935.000000	0.282587
1936.000000	0.282719
1937.000000	0.282835
1938.000000	0.283173
1939.000000	0.283624
1940.000000	0.284330
1941.000000	0.284875
1942.000000	0.285210
1943.000000	0.285343
1944.000000	0.285297
1945.000000	0.285213
1946.000000	0.285502
1947.000000	0.285894
1948.000000	0.286185
1949.000000	0.286546
1950.000000	0.286790
1951.000000	0.286856
1952.000000	0.286835
1953.000000	0.286863
1954.000000	0.287031
1955.000000	0.287193
1956.000000	0.287623
1957.000000	0.287987
1958.000000	0.288059
1959.000000	0.288081
1960.000000	0.287820
1961.000000	0.287762
1962.000000	0.287691
1963.000000	0.287704
1964.000000	0.287681
1965.000000	0.287834
1966.000000	0.287818
1967.000000	0.287937
1968.000000	0.288438
1969.000000	0.288693
1970.000000	0.288701
1971.000000	0.288774
1972.000000	0.288760
1973.000000	0.288910
1974.000000	0.289572
1975.000000	0.290081
1976.000000	0.290745
1977.000000	0.291108
1978.000000	0.291426
1979.000000	0.291444
1980.000000	0.291658
1981.000000	0.292002
1982.000000	0.291921
1983.000000	0.292087
1984.000000	0.292186
1985.000000	0.291964
1986.000000	0.292134
1987.000000	0.292698
1988.000000	0.293237
1989.000000	0.293589
1990.000000	0.294126
1991.000000	0.294154
1992.000000	0.294004
1993.000000	0.294217
1994.000000	0.294350
1995.000000	0.294805
1996.000000	0.295163
1997.000000	0.295365
1998.000000	0.295545
1999.000000	0.295794
2000.000000	0.295941
2001.000000	0.296093
2002.000000	0.296415
2003.000000	0.296066
2004.000000	0.295632
2005.000000	0.295233
2006.000000	0.295132
2007.000000	0.295558
2008.000000	0.295974
2009.000000	0.296902
2010.000000	0.297438
2011.000000	0.297762
2012.000000	0.297900
2013.000000	0.297784
2014.000000	0.297522
2015.000000	0.297380
2016.000000	0.297364
2017.000000	0.297707
2018.000000	0.297783
2019.000000	0.297794
2020.000000	0.297766
2021.000000	0.297780
2022.000000	0.297572
2023.000000	0.297797
2024.000000	0.298341
2025.000000	0.298853
2026.000000	0.299504
2027.000000	0.299902
2028.000000	0.300064
2029.000000	0.300149
2030.000000	0.300122
2031.000000	0.299835
2032.000000	0.299812
2033.000000	0.299808
2034.000000	0.299844
2035.000000	0.300122
2036.000000	0.300205
2037.000000	0.300485
2038.000000	0.300518
2039.000000	0.300482
2040.000000	0.300409
2041.000000	0.299980
2042.000000	0.300052
2043.000000	0.300104
2044.000000	0.300028
2045.000000	0.300320
2046.000000	0.300199
2047.000000	0.300321
2048.000000	0.300524
2049.000000	0.300924
2050.000000	0.301109
2051.000000	0.301330
2052.000000	0.301613
2053.000000	0.301554
2054.000000	0.301498
2055.000000	0.301650
2056.000000	0.301553
2057.000000	0.301397
2058.000000	0.301107
2059.000000	0.301206
2060.000000	0.301348
2061.000000	0.301743
2062.000000	0.301944
2063.000000	0.302371
2064.000000	0.302227
2065.000000	0.301851
2066.000000	0.301570
2067.000000	0.301322
2068.000000	0.301210
2069.000000	0.301581
2070.000000	0.301863
2071.000000	0.301652
2072.000000	0.301758
2073.000000	0.301536
2074.000000	0.301047
2075.000000	0.300778
2076.000000	0.300510
2077.000000	0.300445
2078.000000	0.300565
2079.000000	0.300548
2080.000000	0.300951
2081.000000	0.300925
2082.000000	0.300601
2083.000000	0.300078
2084.000000	0.299828
2085.000000	0.299704
2086.000000	0.300185
2087.000000	0.301055
2088.000000	0.301635
2089.000000	0.302393
2090.000000	0.302563
2091.000000	0.302153
2092.000000	0.302011
2093.000000	0.301505
2094.000000	0.301338
2095.000000	0.301494
2096.000000	0.301685
2097.000000	0.301973
2098.000000	0.302189
2099.000000	0.302536
2100.000000	0.302422
2101.000000	0.302027
2102.000000	0.302162
2103.000000	0.302395
2104.000000	0.302473
2105.000000	0.302601
2106.000000	0.303118
2107.000000	0.302938
2108.000000	0.302238
2109.000000	0.301887
2110.000000	0.300749
2111.000000	0.300484
2112.000000	0.300824
2113.000000	0.300828
2114.000000	0.300997
2115.000000	0.301404
2116.000000	0.301309
2117.000000	0.300907
2118.000000	0.300992
2119.000000	0.300982
2120.000000	0.300974
2121.000000	0.301076
2122.000000	0.301296
2123.000000	0.301446
2124.000000	0.301650
2125.000000	0.302230
2126.000000	0.302242
2127.000000	0.301817
2128.000000	0.301839
2129.000000	0.301754
2130.000000	0.301717
2131.000000	0.301734
2132.000000	0.301747
2133.000000	0.301672
2134.000000	0.301567
2135.000000	0.301499
2136.000000	0.301684
2137.000000	0.301722
2138.000000	0.301494
2139.000000	0.301642
2140.000000	0.301970
2141.000000	0.302293
2142.000000	0.303326
2143.000000	0.303348
2144.000000	0.302853
2145.000000	0.302743
2146.000000	0.302479
2147.000000	0.302109
2148.000000	0.302174
2149.000000	0.302411
2150.000000	0.302891
2151.000000	0.302754
2152.000000	0.302597
2153.000000	0.302684
2154.000000	0.302479
2155.000000	0.301787
2156.000000	0.301733
2157.000000	0.302147
2158.000000	0.302043
2159.000000	0.301909
2160.000000	0.301923
2161.000000	0.301331
2162.000000	0.301547
2163.000000	0.302942
2164.000000	0.303105
2165.000000	0.302675
2166.000000	0.302714
2167.000000	0.302318
2168.000000	0.301720
2169.000000	0.301615
2170.000000	0.301940
2171.000000	0.302117
2172.000000	0.302162
2173.000000	0.302256
2174.000000	0.302635
2175.000000	0.302562
2176.000000	0.302025
2177.000000	0.301982
2178.000000	0.302140
2179.000000	0.302452
2180.000000	0.303182
2181.000000	0.303568
2182.000000	0.303361
2183.000000	0.302903
2184.000000	0.302422
2185.000000	0.301764
2186.000000	0.300687
2187.000000	0.300059
2188.000000	0.300216
2189.000000	0.300440
2190.000000	0.301570
2191.000000	0.303278
2192.000000	0.303971
2193.000000	0.304200
2194.000000	0.304105
2195.000000	0.303326
2196.000000	0.302729
2197.000000	0.301369
2198.000000	0.300525
2199.000000	0.299810
2200.000000	0.299398
2201.000000	0.299497
2202.000000	0.299576
2203.000000	0.299808
2204.000000	0.300276
2205.000000	0.299574
2206.000000	0.298809
2207.000000	0.297986
2208.000000	0.297648
2209.000000	0.297928
2210.000000	0.298211
2211.000000	0.298683
2212.000000	0.298915
2213.000000	0.299032
2214.000000	0.299379
2215.000000	0.299437
2216.000000	0.299102
2217.000000	0.298715
2218.000000	0.297588
2219.000000	0.297337
2220.000000	0.297857
2221.000000	0.297729
2222.000000	0.298313
2223.000000	0.297986
2224.000000	0.296166
2225.000000	0.295437
2226.000000	0.295020
2227.000000	0.293978
2228.000000	0.295096
2229.000000	0.295451
2230.000000	0.296327
2231.000000	0.297597
2232.000000	0.297724
2233.000000	0.296924
2234.000000	0.295520
2235.000000	0.295351
2236.000000	0.295216
2237.000000	0.295524
2238.000000	0.296288
2239.000000	0.297415
2240.000000	0.298212
2241.000000	0.300038
2242.000000	0.300044
2243.000000	0.298860
2244.000000	0.298202
2245.000000	0.295990
2246.000000	0.295165
2247.000000	0.294875
2248.000000	0.295366
2249.000000	0.296645
2250.000000	0.299271
2251.000000	0.299755
2252.000000	0.299789
2253.000000	0.299697
2254.000000	0.297816
2255.000000	0.296795
2256.000000	0.296777
2257.000000	0.296514
2258.000000	0.295342
2259.000000	0.294145
2260.000000	0.292871
2261.000000	0.292245
2262.000000	0.291523
2263.000000	0.291477
2264.000000	0.293066
2265.000000	0.293101
2266.000000	0.292455
2267.000000	0.291695
2268.000000	0.289367
2269.000000	0.288798
2270.000000	0.289202
2271.000000	0.289426
2272.000000	0.290963
2273.000000	0.291834
2274.000000	0.291954
2275.000000	0.292078
2276.000000	0.292360
2277.000000	0.291978
2278.000000	0.291874
2279.000000	0.291252
2280.000000	0.288714
2281.000000	0.286632
2282.000000	0.284196
2283.000000	0.282807
2284.000000	0.282699
2285.000000	0.282050
2286.000000	0.281716
2287.000000	0.281452
2288.000000	0.281639
2289.000000	0.282484
2290.000000	0.283109
2291.000000	0.283198
2292.000000	0.282541
2293.000000	0.281753
2294.000000	0.281669
2295.000000	0.282007
2296.000000	0.281859
2297.000000	0.282231
2298.000000	0.282068
2299.000000	0.281065
2300.000000	0.280317
2301.000000	0.279712
2302.000000	0.279113
2303.000000	0.278754
2304.000000	0.277852
2305.000000	0.276631
2306.000000	0.275010
2307.000000	0.272308
2308.000000	0.270169
2309.000000	0.270501
2310.000000	0.271876
2311.000000	0.274553
2312.000000	0.276741
2313.000000	0.276162
2314.000000	0.274764
2315.000000	0.273404
2316.000000	0.272604
2317.000000	0.272548
2318.000000	0.274167
2319.000000	0.275432
2320.000000	0.276159
2321.000000	0.277851
2322.000000	0.278076
2323.000000	0.278535
2324.000000	0.279847
2325.000000	0.280131
2326.000000	0.281161
2327.000000	0.282842
2328.000000	0.283681
2329.000000	0.285039
2330.000000	0.285156
2331.000000	0.283191
2332.000000	0.282813
2333.000000	0.281953
2334.000000	0.280348
2335.000000	0.280683
2336.000000	0.282093
2337.000000	0.282388
2338.000000	0.284110
2339.000000	0.284884
2340.000000	0.283029
2341.000000	0.283668
2342.000000	0.285840
2343.000000	0.286749
2344.000000	0.289825
2345.000000	0.290957
2346.000000	0.290148
2347.000000	0.288979
2348.000000	0.287144
2349.000000	0.283522
2350.000000	0.281375
2351.000000	0.279329
2352.000000	0.277653
2353.000000	0.279309
2354.000000	0.279983
2355.000000	0.282262
2356.000000	0.285249
2357.000000	0.284613
2358.000000	0.284066
2359.000000	0.283805
2360.000000	0.283936
2361.000000	0.286010
2362.000000	0.287294
2363.000000	0.286952
2364.000000	0.284901
2365.000000	0.283056
2366.000000	0.281797
2367.000000	0.281753
2368.000000	0.283574
2369.000000	0.282492
2370.000000	0.280852
2371.000000	0.278907
2372.000000	0.276414
2373.000000	0.277277
2374.000000	0.278073
2375.000000	0.277588
2376.000000	0.276429
2377.000000	0.274539
2378.000000	0.272770
2379.000000	0.272887
2380.000000	0.274807
2381.000000	0.276723
2382.000000	0.277312
2383.000000	0.279441
2384.000000	0.282167
2385.000000	0.282188
2386.000000	0.282628
2387.000000	0.281308
2388.000000	0.280408
2389.000000	0.279667
2390.000000	0.275840
2391.000000	0.273052
2392.000000	0.269831
2393.000000	0.267143
2394.000000	0.268149
2395.000000	0.272092
2396.000000	0.274594
2397.000000	0.273817
2398.000000	0.275940
2399.000000	0.278314
2400.000000	0.277134
2401.000000	0.278847
2402.000000	0.280204
2403.000000	0.277392
2404.000000	0.277528
2405.000000	0.275620
2406.000000	0.273844
2407.000000	0.274734
2408.000000	0.270139
2409.000000	0.267792
2410.000000	0.266796
2411.000000	0.263949
2412.000000	0.266136
2413.000000	0.271831
2414.000000	0.279389
2415.000000	0.282367
2416.000000	0.282629
2417.000000	0.281819
2418.000000	0.273493
2419.000000	0.269341
2420.000000	0.269891
2421.000000	0.268353
2422.000000	0.267420
2423.000000	0.270564
2424.000000	0.272150
2425.000000	0.271331
2426.000000	0.273151
2427.000000	0.268964
2428.000000	0.264755
2429.000000	0.263738
2430.000000	0.260277
2431.000000	0.260866
2432.000000	0.262764
2433.000000	0.262535
2434.000000	0.267716
2435.000000	0.270007
2436.000000	0.262202
2437.000000	0.256919
2438.000000	0.254786
2439.000000	0.251091
2440.000000	0.252991
2441.000000	0.259095
2442.000000	0.266026
2443.000000	0.272827
2444.000000	0.278559
2445.000000	0.280851
2446.000000	0.271530
2447.000000	0.261692
2448.000000	0.264463
2449.000000	0.267672
2450.000000	0.269028
2451.000000	0.283801
2452.000000	0.292605
2453.000000	0.289097
2454.000000	0.291058
2455.000000	0.278193
2456.000000	0.258344
2457.000000	0.253496
2458.000000	0.246806
2459.000000	0.241036
2460.000000	0.249848
2461.000000	0.253143
2462.000000	0.262507
2463.000000	0.281065
2464.000000	0.281209
2465.000000	0.284274
2466.000000	0.284857
2467.000000	0.274830
2468.000000	0.280296
2469.000000	0.280623
2470.000000	0.273514
2471.000000	0.272229
2472.000000	0.265593
2473.000000	0.256807
2474.000000	0.247898
2475.000000	0.253011
2476.000000	0.256369
2477.000000	0.244861
2478.000000	0.248793
2479.000000	0.241558
2480.000000	0.222166
2481.000000	0.223996
2482.000000	0.230784
2483.000000	0.227675
2484.000000	0.219045
2485.000000	0.216841
2486.000000	0.215575
2487.000000	0.225189
2488.000000	0.264395
2489.000000	0.284850
2490.000000	0.278372
2491.000000	0.257233
2492.000000	0.238847
2493.000000	0.215427
2494.000000	0.215779
2495.000000	0.243261
2496.000000	0.243360
2497.000000	0.234994
2498.000000	0.232998
2499.000000	0.218453
2500.000000	0.201293
