# Wavelength	SM1200H-30_HEX-20_FV7-50_00000.asd.rts.txt
350.000000	0.240422
351.000000	0.244425
352.000000	0.245465
353.000000	0.249188
354.000000	0.256949
355.000000	0.248546
356.000000	0.246408
357.000000	0.255196
358.000000	0.263982
359.000000	0.260372
360.000000	0.251186
361.000000	0.246179
362.000000	0.243392
363.000000	0.245207
364.000000	0.250601
365.000000	0.253218
366.000000	0.251101
367.000000	0.247735
368.000000	0.252817
369.000000	0.252857
370.000000	0.251996
371.000000	0.257336
372.000000	0.255058
373.000000	0.253938
374.000000	0.258956
375.000000	0.257392
376.000000	0.253699
377.000000	0.250531
378.000000	0.249463
379.000000	0.247034
380.000000	0.245887
381.000000	0.250320
382.000000	0.253998
383.000000	0.254329
384.000000	0.251962
385.000000	0.253255
386.000000	0.255439
387.000000	0.257307
388.000000	0.258984
389.000000	0.257239
390.000000	0.254579
391.000000	0.254872
392.000000	0.255757
393.000000	0.256054
394.000000	0.255741
395.000000	0.258258
396.000000	0.259134
397.000000	0.258035
398.000000	0.260537
399.000000	0.261368
400.000000	0.260664
401.000000	0.260565
402.000000	0.261310
403.000000	0.262136
404.000000	0.262408
405.000000	0.261867
406.000000	0.261920
407.000000	0.263005
408.000000	0.263990
409.000000	0.264106
410.000000	0.263789
411.000000	0.264187
412.000000	0.264335
413.000000	0.264424
414.000000	0.264828
415.000000	0.265277
416.000000	0.265871
417.000000	0.266491
418.000000	0.266356
419.000000	0.266456
420.000000	0.266945
421.000000	0.267283
422.000000	0.267928
423.000000	0.268476
424.000000	0.268486
425.000000	0.268843
426.000000	0.269236
427.000000	0.269395
428.000000	0.269752
429.000000	0.270056
430.000000	0.270286
431.000000	0.270717
432.000000	0.271065
433.000000	0.271104
434.000000	0.270799
435.000000	0.271062
436.000000	0.271586
437.000000	0.271915
438.000000	0.272318
439.000000	0.272533
440.000000	0.272576
441.000000	0.272634
442.000000	0.272851
443.000000	0.273137
444.000000	0.273397
445.000000	0.273433
446.000000	0.273625
447.000000	0.274165
448.000000	0.274181
449.000000	0.274218
450.000000	0.274662
451.000000	0.275061
452.000000	0.275422
453.000000	0.275628
454.000000	0.275631
455.000000	0.275949
456.000000	0.276476
457.000000	0.276653
458.000000	0.276772
459.000000	0.276952
460.000000	0.277271
461.000000	0.277457
462.000000	0.277785
463.000000	0.278115
464.000000	0.278041
465.000000	0.278258
466.000000	0.278690
467.000000	0.278918
468.000000	0.278974
469.000000	0.279013
470.000000	0.279341
471.000000	0.279458
472.000000	0.279598
473.000000	0.279914
474.000000	0.280034
475.000000	0.280058
476.000000	0.280245
477.000000	0.280695
478.000000	0.280918
479.000000	0.281043
480.000000	0.281082
481.000000	0.281282
482.000000	0.281616
483.000000	0.281790
484.000000	0.282040
485.000000	0.282129
486.000000	0.282241
487.000000	0.282754
488.000000	0.283195
489.000000	0.283446
490.000000	0.283577
491.000000	0.283802
492.000000	0.284126
493.000000	0.284334
494.000000	0.284419
495.000000	0.284673
496.000000	0.285133
497.000000	0.285258
498.000000	0.285364
499.000000	0.285677
500.000000	0.286150
501.000000	0.286389
502.000000	0.286534
503.000000	0.286864
504.000000	0.287170
505.000000	0.287455
506.000000	0.287732
507.000000	0.287817
508.000000	0.288085
509.000000	0.288564
510.000000	0.288662
511.000000	0.288848
512.000000	0.289268
513.000000	0.289780
514.000000	0.290120
515.000000	0.290342
516.000000	0.290550
517.000000	0.290885
518.000000	0.291255
519.000000	0.291503
520.000000	0.291825
521.000000	0.292103
522.000000	0.292323
523.000000	0.292627
524.000000	0.292866
525.000000	0.293067
526.000000	0.293390
527.000000	0.293647
528.000000	0.293789
529.000000	0.293898
530.000000	0.294204
531.000000	0.294556
532.000000	0.294777
533.000000	0.295076
534.000000	0.295334
535.000000	0.295545
536.000000	0.295856
537.000000	0.296204
538.000000	0.296473
539.000000	0.296540
540.000000	0.296833
541.000000	0.297167
542.000000	0.297371
543.000000	0.297571
544.000000	0.297907
545.000000	0.298305
546.000000	0.298553
547.000000	0.298889
548.000000	0.299311
549.000000	0.299554
550.000000	0.299817
551.000000	0.300084
552.000000	0.300255
553.000000	0.300592
554.000000	0.300948
555.000000	0.301223
556.000000	0.301579
557.000000	0.301876
558.000000	0.302198
559.000000	0.302508
560.000000	0.302817
561.000000	0.303183
562.000000	0.303526
563.000000	0.303843
564.000000	0.304170
565.000000	0.304433
566.000000	0.304709
567.000000	0.304994
568.000000	0.305262
569.000000	0.305539
570.000000	0.305764
571.000000	0.305967
572.000000	0.306290
573.000000	0.306586
574.000000	0.306872
575.000000	0.307261
576.000000	0.307610
577.000000	0.307867
578.000000	0.308100
579.000000	0.308420
580.000000	0.308720
581.000000	0.308972
582.000000	0.309291
583.000000	0.309486
584.000000	0.309634
585.000000	0.309961
586.000000	0.310223
587.000000	0.310454
588.000000	0.310732
589.000000	0.310977
590.000000	0.311259
591.000000	0.311594
592.000000	0.311817
593.000000	0.312058
594.000000	0.312335
595.000000	0.312567
596.000000	0.312748
597.000000	0.312975
598.000000	0.313256
599.000000	0.313368
600.000000	0.313505
601.000000	0.313754
602.000000	0.313941
603.000000	0.314122
604.000000	0.314333
605.000000	0.314525
606.000000	0.314697
607.000000	0.314877
608.000000	0.315116
609.000000	0.315300
610.000000	0.315498
611.000000	0.315781
612.000000	0.315939
613.000000	0.316020
614.000000	0.316121
615.000000	0.316250
616.000000	0.316362
617.000000	0.316440
618.000000	0.316608
619.000000	0.316741
620.000000	0.316842
621.000000	0.317023
622.000000	0.317191
623.000000	0.317294
624.000000	0.317325
625.000000	0.317431
626.000000	0.317554
627.000000	0.317652
628.000000	0.317694
629.000000	0.317820
630.000000	0.317923
631.000000	0.318064
632.000000	0.318213
633.000000	0.318353
634.000000	0.318471
635.000000	0.318684
636.000000	0.318923
637.000000	0.319106
638.000000	0.319201
639.000000	0.319322
640.000000	0.319521
641.000000	0.319628
642.000000	0.319716
643.000000	0.319843
644.000000	0.320055
645.000000	0.320246
646.000000	0.320388
647.000000	0.320471
648.000000	0.320631
649.000000	0.320788
650.000000	0.320907
651.000000	0.321073
652.000000	0.321202
653.000000	0.321317
654.000000	0.321400
655.000000	0.321477
656.000000	0.321589
657.000000	0.321713
658.000000	0.321914
659.000000	0.322117
660.000000	0.322289
661.000000	0.322559
662.000000	0.322728
663.000000	0.322856
664.000000	0.323046
665.000000	0.323203
666.000000	0.323355
667.000000	0.323510
668.000000	0.323658
669.000000	0.323815
670.000000	0.323984
671.000000	0.324103
672.000000	0.324301
673.000000	0.324523
674.000000	0.324589
675.000000	0.324690
676.000000	0.324830
677.000000	0.324974
678.000000	0.325068
679.000000	0.325158
680.000000	0.325281
681.000000	0.325353
682.000000	0.325538
683.000000	0.325738
684.000000	0.325820
685.000000	0.325941
686.000000	0.326126
687.000000	0.326291
688.000000	0.326413
689.000000	0.326541
690.000000	0.326741
691.000000	0.326945
692.000000	0.327078
693.000000	0.327197
694.000000	0.327323
695.000000	0.327449
696.000000	0.327575
697.000000	0.327713
698.000000	0.327876
699.000000	0.328030
700.000000	0.328164
701.000000	0.328327
702.000000	0.328507
703.000000	0.328666
704.000000	0.328781
705.000000	0.328956
706.000000	0.329169
707.000000	0.329436
708.000000	0.329649
709.000000	0.329801
710.000000	0.329923
711.000000	0.330019
712.000000	0.330064
713.000000	0.330103
714.000000	0.330227
715.000000	0.330319
716.000000	0.330418
717.000000	0.330598
718.000000	0.330741
719.000000	0.330850
720.000000	0.330957
721.000000	0.331063
722.000000	0.331141
723.000000	0.331247
724.000000	0.331352
725.000000	0.331440
726.000000	0.331601
727.000000	0.331781
728.000000	0.331922
729.000000	0.332058
730.000000	0.332171
731.000000	0.332298
732.000000	0.332420
733.000000	0.332545
734.000000	0.332588
735.000000	0.332628
736.000000	0.332759
737.000000	0.332804
738.000000	0.332819
739.000000	0.332898
740.000000	0.332926
741.000000	0.333027
742.000000	0.333094
743.000000	0.333100
744.000000	0.333194
745.000000	0.333268
746.000000	0.333382
747.000000	0.333519
748.000000	0.333608
749.000000	0.333702
750.000000	0.333796
751.000000	0.333857
752.000000	0.333890
753.000000	0.333907
754.000000	0.333901
755.000000	0.333970
756.000000	0.334089
757.000000	0.334154
758.000000	0.334230
759.000000	0.334315
760.000000	0.334344
761.000000	0.334417
762.000000	0.334493
763.000000	0.334551
764.000000	0.334658
765.000000	0.334693
766.000000	0.334716
767.000000	0.334797
768.000000	0.334907
769.000000	0.334999
770.000000	0.335059
771.000000	0.335109
772.000000	0.335184
773.000000	0.335237
774.000000	0.335336
775.000000	0.335421
776.000000	0.335504
777.000000	0.335582
778.000000	0.335662
779.000000	0.335705
780.000000	0.335720
781.000000	0.335735
782.000000	0.335751
783.000000	0.335813
784.000000	0.335788
785.000000	0.335798
786.000000	0.335837
787.000000	0.335871
788.000000	0.335817
789.000000	0.335830
790.000000	0.335877
791.000000	0.335890
792.000000	0.335974
793.000000	0.336075
794.000000	0.336126
795.000000	0.336067
796.000000	0.336020
797.000000	0.336014
798.000000	0.335991
799.000000	0.335973
800.000000	0.335979
801.000000	0.336022
802.000000	0.336035
803.000000	0.336023
804.000000	0.336047
805.000000	0.336130
806.000000	0.336215
807.000000	0.336307
808.000000	0.336278
809.000000	0.336234
810.000000	0.336178
811.000000	0.336092
812.000000	0.336000
813.000000	0.335943
814.000000	0.335937
815.000000	0.336004
816.000000	0.336168
817.000000	0.336282
818.000000	0.336142
819.000000	0.336074
820.000000	0.336036
821.000000	0.335956
822.000000	0.335905
823.000000	0.335868
824.000000	0.335848
825.000000	0.335951
826.000000	0.335922
827.000000	0.335870
828.000000	0.335908
829.000000	0.335904
830.000000	0.335913
831.000000	0.335952
832.000000	0.335842
833.000000	0.335731
834.000000	0.335645
835.000000	0.335616
836.000000	0.335624
837.000000	0.335570
838.000000	0.335461
839.000000	0.335340
840.000000	0.335244
841.000000	0.335203
842.000000	0.335178
843.000000	0.335134
844.000000	0.335082
845.000000	0.335009
846.000000	0.334956
847.000000	0.335051
848.000000	0.335125
849.000000	0.335041
850.000000	0.335032
851.000000	0.335024
852.000000	0.335011
853.000000	0.334981
854.000000	0.334862
855.000000	0.334808
856.000000	0.334791
857.000000	0.334610
858.000000	0.334510
859.000000	0.334470
860.000000	0.334242
861.000000	0.334147
862.000000	0.334134
863.000000	0.333968
864.000000	0.333933
865.000000	0.333922
866.000000	0.333876
867.000000	0.333778
868.000000	0.333686
869.000000	0.333516
870.000000	0.333283
871.000000	0.333151
872.000000	0.333097
873.000000	0.332988
874.000000	0.332742
875.000000	0.332531
876.000000	0.332390
877.000000	0.332214
878.000000	0.332007
879.000000	0.331892
880.000000	0.331755
881.000000	0.331535
882.000000	0.331331
883.000000	0.331175
884.000000	0.331003
885.000000	0.330861
886.000000	0.330696
887.000000	0.330518
888.000000	0.330363
889.000000	0.330299
890.000000	0.330190
891.000000	0.330075
892.000000	0.329903
893.000000	0.329681
894.000000	0.329570
895.000000	0.329557
896.000000	0.329365
897.000000	0.329116
898.000000	0.329012
899.000000	0.328735
900.000000	0.328542
901.000000	0.328488
902.000000	0.328457
903.000000	0.328226
904.000000	0.327918
905.000000	0.327630
906.000000	0.327432
907.000000	0.327389
908.000000	0.327396
909.000000	0.327003
910.000000	0.326742
911.000000	0.326607
912.000000	0.326481
913.000000	0.326283
914.000000	0.325970
915.000000	0.325676
916.000000	0.325472
917.000000	0.325259
918.000000	0.325064
919.000000	0.324891
920.000000	0.324716
921.000000	0.324577
922.000000	0.324438
923.000000	0.324206
924.000000	0.323959
925.000000	0.323641
926.000000	0.323275
927.000000	0.322911
928.000000	0.322672
929.000000	0.322523
930.000000	0.322374
931.000000	0.322188
932.000000	0.321889
933.000000	0.321515
934.000000	0.321114
935.000000	0.320873
936.000000	0.320800
937.000000	0.320689
938.000000	0.320303
939.000000	0.320042
940.000000	0.319898
941.000000	0.319765
942.000000	0.319396
943.000000	0.319078
944.000000	0.318849
945.000000	0.318637
946.000000	0.318246
947.000000	0.317833
948.000000	0.317542
949.000000	0.317176
950.000000	0.317046
951.000000	0.317028
952.000000	0.316725
953.000000	0.316474
954.000000	0.316163
955.000000	0.315716
956.000000	0.315687
957.000000	0.315456
958.000000	0.315014
959.000000	0.314719
960.000000	0.314386
961.000000	0.314285
962.000000	0.314342
963.000000	0.314131
964.000000	0.314122
965.000000	0.314227
966.000000	0.314132
967.000000	0.313777
968.000000	0.313317
969.000000	0.312903
970.000000	0.312763
971.000000	0.312610
972.000000	0.312493
973.000000	0.312329
974.000000	0.312056
975.000000	0.311665
976.000000	0.311299
977.000000	0.311056
978.000000	0.310813
979.000000	0.310715
980.000000	0.310557
981.000000	0.310463
982.000000	0.310083
983.000000	0.309769
984.000000	0.309634
985.000000	0.309330
986.000000	0.309138
987.000000	0.308998
988.000000	0.308726
989.000000	0.308452
990.000000	0.308209
991.000000	0.308097
992.000000	0.308175
993.000000	0.308016
994.000000	0.307734
995.000000	0.307622
996.000000	0.307627
997.000000	0.307547
998.000000	0.307424
999.000000	0.307457
1000.000000	0.307732
1001.000000	0.307163
1002.000000	0.307445
1003.000000	0.308005
1004.000000	0.307830
1005.000000	0.306596
1006.000000	0.306146
1007.000000	0.305869
1008.000000	0.305320
1009.000000	0.305141
1010.000000	0.305123
1011.000000	0.305071
1012.000000	0.304886
1013.000000	0.304657
1014.000000	0.304664
1015.000000	0.304940
1016.000000	0.305343
1017.000000	0.305372
1018.000000	0.305637
1019.000000	0.305582
1020.000000	0.304970
1021.000000	0.304484
1022.000000	0.304019
1023.000000	0.304046
1024.000000	0.304230
1025.000000	0.304731
1026.000000	0.304150
1027.000000	0.303529
1028.000000	0.303333
1029.000000	0.303134
1030.000000	0.303552
1031.000000	0.304292
1032.000000	0.304779
1033.000000	0.304427
1034.000000	0.304303
1035.000000	0.304406
1036.000000	0.304472
1037.000000	0.304291
1038.000000	0.304256
1039.000000	0.304710
1040.000000	0.304462
1041.000000	0.304283
1042.000000	0.304041
1043.000000	0.304053
1044.000000	0.304673
1045.000000	0.305325
1046.000000	0.305888
1047.000000	0.306020
1048.000000	0.305669
1049.000000	0.305629
1050.000000	0.305206
1051.000000	0.305293
1052.000000	0.306092
1053.000000	0.306084
1054.000000	0.305871
1055.000000	0.306033
1056.000000	0.306112
1057.000000	0.306066
1058.000000	0.306338
1059.000000	0.306291
1060.000000	0.306324
1061.000000	0.306280
1062.000000	0.306223
1063.000000	0.307063
1064.000000	0.307535
1065.000000	0.307973
1066.000000	0.308227
1067.000000	0.308429
1068.000000	0.308483
1069.000000	0.308166
1070.000000	0.308229
1071.000000	0.308416
1072.000000	0.308625
1073.000000	0.309108
1074.000000	0.309527
1075.000000	0.309550
1076.000000	0.309993
1077.000000	0.310085
1078.000000	0.309994
1079.000000	0.310112
1080.000000	0.310397
1081.000000	0.310480
1082.000000	0.310606
1083.000000	0.310719
1084.000000	0.310704
1085.000000	0.310799
1086.000000	0.310944
1087.000000	0.311187
1088.000000	0.311462
1089.000000	0.311648
1090.000000	0.311962
1091.000000	0.312023
1092.000000	0.311813
1093.000000	0.311978
1094.000000	0.312036
1095.000000	0.311868
1096.000000	0.312171
1097.000000	0.312815
1098.000000	0.313205
1099.000000	0.313807
1100.000000	0.314148
1101.000000	0.314125
1102.000000	0.314233
1103.000000	0.314273
1104.000000	0.314404
1105.000000	0.314469
1106.000000	0.314696
1107.000000	0.315145
1108.000000	0.315356
1109.000000	0.315413
1110.000000	0.315825
1111.000000	0.315972
1112.000000	0.315810
1113.000000	0.316098
1114.000000	0.316664
1115.000000	0.316968
1116.000000	0.317485
1117.000000	0.317655
1118.000000	0.317418
1119.000000	0.317382
1120.000000	0.317188
1121.000000	0.317257
1122.000000	0.317678
1123.000000	0.318099
1124.000000	0.318527
1125.000000	0.318795
1126.000000	0.318784
1127.000000	0.318835
1128.000000	0.318861
1129.000000	0.318830
1130.000000	0.318915
1131.000000	0.319066
1132.000000	0.319199
1133.000000	0.319520
1134.000000	0.319585
1135.000000	0.319380
1136.000000	0.319432
1137.000000	0.319456
1138.000000	0.319480
1139.000000	0.319743
1140.000000	0.320036
1141.000000	0.320335
1142.000000	0.320470
1143.000000	0.320518
1144.000000	0.320688
1145.000000	0.320480
1146.000000	0.320430
1147.000000	0.320407
1148.000000	0.320374
1149.000000	0.320429
1150.000000	0.320585
1151.000000	0.320662
1152.000000	0.320682
1153.000000	0.320805
1154.000000	0.320941
1155.000000	0.320942
1156.000000	0.320893
1157.000000	0.321002
1158.000000	0.321110
1159.000000	0.321094
1160.000000	0.321113
1161.000000	0.321132
1162.000000	0.321062
1163.000000	0.321057
1164.000000	0.321250
1165.000000	0.321415
1166.000000	0.321498
1167.000000	0.321542
1168.000000	0.321435
1169.000000	0.321154
1170.000000	0.321128
1171.000000	0.321149
1172.000000	0.321189
1173.000000	0.321432
1174.000000	0.321448
1175.000000	0.321204
1176.000000	0.321128
1177.000000	0.321185
1178.000000	0.321178
1179.000000	0.321196
1180.000000	0.321156
1181.000000	0.321121
1182.000000	0.321077
1183.000000	0.321127
1184.000000	0.321281
1185.000000	0.321385
1186.000000	0.321513
1187.000000	0.321577
1188.000000	0.321634
1189.000000	0.321667
1190.000000	0.321746
1191.000000	0.321741
1192.000000	0.321760
1193.000000	0.321837
1194.000000	0.321743
1195.000000	0.321748
1196.000000	0.321804
1197.000000	0.321787
1198.000000	0.321715
1199.000000	0.321700
1200.000000	0.321622
1201.000000	0.321663
1202.000000	0.321728
1203.000000	0.321875
1204.000000	0.321950
1205.000000	0.321976
1206.000000	0.321985
1207.000000	0.322087
1208.000000	0.322047
1209.000000	0.321997
1210.000000	0.321928
1211.000000	0.321736
1212.000000	0.321645
1213.000000	0.321638
1214.000000	0.321653
1215.000000	0.321700
1216.000000	0.321713
1217.000000	0.321744
1218.000000	0.321701
1219.000000	0.321592
1220.000000	0.321570
1221.000000	0.321588
1222.000000	0.321616
1223.000000	0.321665
1224.000000	0.321640
1225.000000	0.321657
1226.000000	0.321709
1227.000000	0.321624
1228.000000	0.321650
1229.000000	0.321631
1230.000000	0.321489
1231.000000	0.321366
1232.000000	0.321463
1233.000000	0.321512
1234.000000	0.321446
1235.000000	0.321442
1236.000000	0.321354
1237.000000	0.321394
1238.000000	0.321562
1239.000000	0.321542
1240.000000	0.321520
1241.000000	0.321369
1242.000000	0.321144
1243.000000	0.320968
1244.000000	0.320856
1245.000000	0.321018
1246.000000	0.321189
1247.000000	0.321276
1248.000000	0.321349
1249.000000	0.321381
1250.000000	0.321349
1251.000000	0.321211
1252.000000	0.321155
1253.000000	0.321165
1254.000000	0.321158
1255.000000	0.321123
1256.000000	0.321188
1257.000000	0.321399
1258.000000	0.321472
1259.000000	0.321503
1260.000000	0.321525
1261.000000	0.321360
1262.000000	0.321250
1263.000000	0.321146
1264.000000	0.321074
1265.000000	0.321169
1266.000000	0.321152
1267.000000	0.321116
1268.000000	0.321203
1269.000000	0.321059
1270.000000	0.320879
1271.000000	0.320847
1272.000000	0.320781
1273.000000	0.320695
1274.000000	0.320706
1275.000000	0.320653
1276.000000	0.320584
1277.000000	0.320574
1278.000000	0.320451
1279.000000	0.320413
1280.000000	0.320377
1281.000000	0.320300
1282.000000	0.320348
1283.000000	0.320374
1284.000000	0.320173
1285.000000	0.320188
1286.000000	0.320326
1287.000000	0.320377
1288.000000	0.320465
1289.000000	0.320607
1290.000000	0.320404
1291.000000	0.320154
1292.000000	0.319997
1293.000000	0.319870
1294.000000	0.319918
1295.000000	0.319983
1296.000000	0.320034
1297.000000	0.320089
1298.000000	0.320060
1299.000000	0.320058
1300.000000	0.320165
1301.000000	0.320226
1302.000000	0.320199
1303.000000	0.320265
1304.000000	0.320231
1305.000000	0.320194
1306.000000	0.320110
1307.000000	0.320026
1308.000000	0.319989
1309.000000	0.319930
1310.000000	0.319882
1311.000000	0.319925
1312.000000	0.319817
1313.000000	0.319720
1314.000000	0.319581
1315.000000	0.319361
1316.000000	0.319295
1317.000000	0.319340
1318.000000	0.319379
1319.000000	0.319372
1320.000000	0.319388
1321.000000	0.319356
1322.000000	0.319371
1323.000000	0.319343
1324.000000	0.319202
1325.000000	0.319086
1326.000000	0.318867
1327.000000	0.318667
1328.000000	0.318767
1329.000000	0.318708
1330.000000	0.318560
1331.000000	0.318537
1332.000000	0.318676
1333.000000	0.318671
1334.000000	0.318730
1335.000000	0.318813
1336.000000	0.318807
1337.000000	0.318809
1338.000000	0.318833
1339.000000	0.318776
1340.000000	0.318662
1341.000000	0.318522
1342.000000	0.318400
1343.000000	0.318363
1344.000000	0.318267
1345.000000	0.318066
1346.000000	0.317966
1347.000000	0.317835
1348.000000	0.317736
1349.000000	0.317602
1350.000000	0.317523
1351.000000	0.317462
1352.000000	0.317392
1353.000000	0.317377
1354.000000	0.317375
1355.000000	0.317224
1356.000000	0.317030
1357.000000	0.316843
1358.000000	0.316702
1359.000000	0.316589
1360.000000	0.316468
1361.000000	0.316502
1362.000000	0.316406
1363.000000	0.316150
1364.000000	0.315988
1365.000000	0.315799
1366.000000	0.315693
1367.000000	0.315593
1368.000000	0.315621
1369.000000	0.315742
1370.000000	0.315556
1371.000000	0.315262
1372.000000	0.314994
1373.000000	0.314740
1374.000000	0.314646
1375.000000	0.314517
1376.000000	0.314231
1377.000000	0.313828
1378.000000	0.313216
1379.000000	0.312459
1380.000000	0.311831
1381.000000	0.311109
1382.000000	0.310171
1383.000000	0.309146
1384.000000	0.308062
1385.000000	0.306925
1386.000000	0.305929
1387.000000	0.305362
1388.000000	0.304813
1389.000000	0.304234
1390.000000	0.303943
1391.000000	0.303637
1392.000000	0.303446
1393.000000	0.303376
1394.000000	0.303556
1395.000000	0.303659
1396.000000	0.303891
1397.000000	0.303919
1398.000000	0.303869
1399.000000	0.303759
1400.000000	0.303446
1401.000000	0.303172
1402.000000	0.302941
1403.000000	0.302706
1404.000000	0.302369
1405.000000	0.302062
1406.000000	0.301663
1407.000000	0.301174
1408.000000	0.300808
1409.000000	0.300532
1410.000000	0.300247
1411.000000	0.300026
1412.000000	0.299772
1413.000000	0.299575
1414.000000	0.299502
1415.000000	0.299345
1416.000000	0.299065
1417.000000	0.298827
1418.000000	0.298575
1419.000000	0.298374
1420.000000	0.298193
1421.000000	0.298095
1422.000000	0.297992
1423.000000	0.297976
1424.000000	0.297973
1425.000000	0.297881
1426.000000	0.297729
1427.000000	0.297588
1428.000000	0.297460
1429.000000	0.297468
1430.000000	0.297396
1431.000000	0.297237
1432.000000	0.297168
1433.000000	0.297121
1434.000000	0.297037
1435.000000	0.297171
1436.000000	0.297145
1437.000000	0.296946
1438.000000	0.296810
1439.000000	0.296702
1440.000000	0.296576
1441.000000	0.296455
1442.000000	0.296403
1443.000000	0.296324
1444.000000	0.296227
1445.000000	0.296186
1446.000000	0.296102
1447.000000	0.295879
1448.000000	0.295659
1449.000000	0.295489
1450.000000	0.295391
1451.000000	0.295375
1452.000000	0.295381
1453.000000	0.295354
1454.000000	0.295208
1455.000000	0.295100
1456.000000	0.295068
1457.000000	0.294958
1458.000000	0.294948
1459.000000	0.294991
1460.000000	0.294890
1461.000000	0.294849
1462.000000	0.294820
1463.000000	0.294731
1464.000000	0.294751
1465.000000	0.294835
1466.000000	0.294912
1467.000000	0.294915
1468.000000	0.294866
1469.000000	0.294856
1470.000000	0.294791
1471.000000	0.294778
1472.000000	0.294778
1473.000000	0.294922
1474.000000	0.295073
1475.000000	0.295219
1476.000000	0.295402
1477.000000	0.295491
1478.000000	0.295579
1479.000000	0.295747
1480.000000	0.295823
1481.000000	0.295855
1482.000000	0.295849
1483.000000	0.296017
1484.000000	0.296160
1485.000000	0.296451
1486.000000	0.297059
1487.000000	0.297364
1488.000000	0.297528
1489.000000	0.297806
1490.000000	0.297843
1491.000000	0.298020
1492.000000	0.298379
1493.000000	0.298610
1494.000000	0.298719
1495.000000	0.298918
1496.000000	0.299094
1497.000000	0.299284
1498.000000	0.299527
1499.000000	0.299790
1500.000000	0.300039
1501.000000	0.300166
1502.000000	0.300319
1503.000000	0.300431
1504.000000	0.300426
1505.000000	0.300519
1506.000000	0.300582
1507.000000	0.300719
1508.000000	0.300970
1509.000000	0.301085
1510.000000	0.301191
1511.000000	0.301236
1512.000000	0.301220
1513.000000	0.301337
1514.000000	0.301427
1515.000000	0.301486
1516.000000	0.301620
1517.000000	0.301683
1518.000000	0.301773
1519.000000	0.301800
1520.000000	0.301803
1521.000000	0.301759
1522.000000	0.301802
1523.000000	0.301933
1524.000000	0.301931
1525.000000	0.301980
1526.000000	0.301926
1527.000000	0.301844
1528.000000	0.301860
1529.000000	0.301818
1530.000000	0.301775
1531.000000	0.301808
1532.000000	0.301902
1533.000000	0.302001
1534.000000	0.302012
1535.000000	0.302005
1536.000000	0.301970
1537.000000	0.301998
1538.000000	0.302071
1539.000000	0.302089
1540.000000	0.302228
1541.000000	0.302319
1542.000000	0.302347
1543.000000	0.302578
1544.000000	0.302724
1545.000000	0.302817
1546.000000	0.302960
1547.000000	0.302956
1548.000000	0.302912
1549.000000	0.302920
1550.000000	0.302977
1551.000000	0.303069
1552.000000	0.303154
1553.000000	0.303218
1554.000000	0.303146
1555.000000	0.303162
1556.000000	0.303321
1557.000000	0.303337
1558.000000	0.303383
1559.000000	0.303480
1560.000000	0.303450
1561.000000	0.303320
1562.000000	0.303241
1563.000000	0.303188
1564.000000	0.303100
1565.000000	0.302978
1566.000000	0.302856
1567.000000	0.302789
1568.000000	0.302774
1569.000000	0.302885
1570.000000	0.302892
1571.000000	0.302918
1572.000000	0.302884
1573.000000	0.302722
1574.000000	0.302703
1575.000000	0.302777
1576.000000	0.302769
1577.000000	0.302775
1578.000000	0.302724
1579.000000	0.302633
1580.000000	0.302615
1581.000000	0.302661
1582.000000	0.302729
1583.000000	0.302882
1584.000000	0.302897
1585.000000	0.302927
1586.000000	0.303021
1587.000000	0.303130
1588.000000	0.303113
1589.000000	0.303076
1590.000000	0.303075
1591.000000	0.302926
1592.000000	0.302936
1593.000000	0.303226
1594.000000	0.303277
1595.000000	0.303226
1596.000000	0.303341
1597.000000	0.303472
1598.000000	0.303522
1599.000000	0.303783
1600.000000	0.303815
1601.000000	0.303670
1602.000000	0.303616
1603.000000	0.303567
1604.000000	0.303492
1605.000000	0.303424
1606.000000	0.303396
1607.000000	0.303427
1608.000000	0.303444
1609.000000	0.303581
1610.000000	0.303562
1611.000000	0.303495
1612.000000	0.303419
1613.000000	0.303300
1614.000000	0.303243
1615.000000	0.303293
1616.000000	0.303339
1617.000000	0.303353
1618.000000	0.303402
1619.000000	0.303492
1620.000000	0.303531
1621.000000	0.303628
1622.000000	0.303682
1623.000000	0.303587
1624.000000	0.303561
1625.000000	0.303415
1626.000000	0.303316
1627.000000	0.303300
1628.000000	0.303337
1629.000000	0.303399
1630.000000	0.303422
1631.000000	0.303348
1632.000000	0.303337
1633.000000	0.303372
1634.000000	0.303392
1635.000000	0.303534
1636.000000	0.303587
1637.000000	0.303534
1638.000000	0.303505
1639.000000	0.303525
1640.000000	0.303558
1641.000000	0.303659
1642.000000	0.303779
1643.000000	0.303998
1644.000000	0.304077
1645.000000	0.304088
1646.000000	0.304093
1647.000000	0.304112
1648.000000	0.303994
1649.000000	0.303878
1650.000000	0.303868
1651.000000	0.303772
1652.000000	0.303887
1653.000000	0.304172
1654.000000	0.304348
1655.000000	0.304517
1656.000000	0.304553
1657.000000	0.304589
1658.000000	0.304626
1659.000000	0.304713
1660.000000	0.304738
1661.000000	0.304593
1662.000000	0.304689
1663.000000	0.304827
1664.000000	0.304914
1665.000000	0.305174
1666.000000	0.305267
1667.000000	0.305084
1668.000000	0.305140
1669.000000	0.305290
1670.000000	0.305235
1671.000000	0.305264
1672.000000	0.305254
1673.000000	0.305032
1674.000000	0.305133
1675.000000	0.305236
1676.000000	0.305199
1677.000000	0.305256
1678.000000	0.305274
1679.000000	0.305268
1680.000000	0.305353
1681.000000	0.305488
1682.000000	0.305588
1683.000000	0.305625
1684.000000	0.305711
1685.000000	0.305745
1686.000000	0.305627
1687.000000	0.305612
1688.000000	0.305429
1689.000000	0.305291
1690.000000	0.305355
1691.000000	0.305418
1692.000000	0.305513
1693.000000	0.305576
1694.000000	0.305536
1695.000000	0.305512
1696.000000	0.305487
1697.000000	0.305423
1698.000000	0.305374
1699.000000	0.305384
1700.000000	0.305392
1701.000000	0.305478
1702.000000	0.305489
1703.000000	0.305462
1704.000000	0.305543
1705.000000	0.305561
1706.000000	0.305539
1707.000000	0.305537
1708.000000	0.305450
1709.000000	0.305411
1710.000000	0.305606
1711.000000	0.305618
1712.000000	0.305520
1713.000000	0.305498
1714.000000	0.305418
1715.000000	0.305444
1716.000000	0.305691
1717.000000	0.305761
1718.000000	0.305685
1719.000000	0.305678
1720.000000	0.305720
1721.000000	0.305695
1722.000000	0.305696
1723.000000	0.305677
1724.000000	0.305529
1725.000000	0.305596
1726.000000	0.305745
1727.000000	0.305802
1728.000000	0.305946
1729.000000	0.305794
1730.000000	0.305482
1731.000000	0.305378
1732.000000	0.305210
1733.000000	0.305254
1734.000000	0.305453
1735.000000	0.305449
1736.000000	0.305336
1737.000000	0.305309
1738.000000	0.305245
1739.000000	0.305256
1740.000000	0.305378
1741.000000	0.305357
1742.000000	0.305282
1743.000000	0.305284
1744.000000	0.305240
1745.000000	0.305258
1746.000000	0.305323
1747.000000	0.305429
1748.000000	0.305435
1749.000000	0.305435
1750.000000	0.305368
1751.000000	0.305276
1752.000000	0.305335
1753.000000	0.305291
1754.000000	0.305312
1755.000000	0.305494
1756.000000	0.305479
1757.000000	0.305303
1758.000000	0.305256
1759.000000	0.305191
1760.000000	0.305060
1761.000000	0.304870
1762.000000	0.304809
1763.000000	0.304751
1764.000000	0.304715
1765.000000	0.304770
1766.000000	0.304876
1767.000000	0.304866
1768.000000	0.304909
1769.000000	0.305263
1770.000000	0.305410
1771.000000	0.305398
1772.000000	0.305377
1773.000000	0.305152
1774.000000	0.305140
1775.000000	0.305277
1776.000000	0.305342
1777.000000	0.305490
1778.000000	0.305485
1779.000000	0.305306
1780.000000	0.305271
1781.000000	0.305263
1782.000000	0.305155
1783.000000	0.305028
1784.000000	0.305195
1785.000000	0.305188
1786.000000	0.305444
1787.000000	0.305775
1788.000000	0.305812
1789.000000	0.305886
1790.000000	0.305861
1791.000000	0.305850
1792.000000	0.305946
1793.000000	0.305965
1794.000000	0.306049
1795.000000	0.306028
1796.000000	0.305711
1797.000000	0.305693
1798.000000	0.305880
1799.000000	0.305900
1800.000000	0.306104
1801.000000	0.306074
1802.000000	0.306173
1803.000000	0.305636
1804.000000	0.305611
1805.000000	0.305738
1806.000000	0.305935
1807.000000	0.306281
1808.000000	0.306589
1809.000000	0.307299
1810.000000	0.307511
1811.000000	0.307485
1812.000000	0.307076
1813.000000	0.306795
1814.000000	0.305985
1815.000000	0.306049
1816.000000	0.307041
1817.000000	0.307075
1818.000000	0.307349
1819.000000	0.306986
1820.000000	0.306528
1821.000000	0.305991
1822.000000	0.305809
1823.000000	0.306224
1824.000000	0.306113
1825.000000	0.305612
1826.000000	0.305490
1827.000000	0.305219
1828.000000	0.305000
1829.000000	0.305559
1830.000000	0.305664
1831.000000	0.305824
1832.000000	0.306252
1833.000000	0.306020
1834.000000	0.305409
1835.000000	0.305055
1836.000000	0.304208
1837.000000	0.303638
1838.000000	0.303067
1839.000000	0.302516
1840.000000	0.302224
1841.000000	0.302764
1842.000000	0.303222
1843.000000	0.304511
1844.000000	0.304772
1845.000000	0.304433
1846.000000	0.304389
1847.000000	0.303842
1848.000000	0.303742
1849.000000	0.303610
1850.000000	0.303226
1851.000000	0.302977
1852.000000	0.302580
1853.000000	0.302137
1854.000000	0.301371
1855.000000	0.301258
1856.000000	0.301379
1857.000000	0.301085
1858.000000	0.301559
1859.000000	0.301411
1860.000000	0.300473
1861.000000	0.300216
1862.000000	0.299872
1863.000000	0.299626
1864.000000	0.299354
1865.000000	0.299372
1866.000000	0.298940
1867.000000	0.298195
1868.000000	0.297423
1869.000000	0.296915
1870.000000	0.296390
1871.000000	0.295113
1872.000000	0.294415
1873.000000	0.293707
1874.000000	0.292721
1875.000000	0.291607
1876.000000	0.290696
1877.000000	0.289066
1878.000000	0.287251
1879.000000	0.285542
1880.000000	0.283708
1881.000000	0.282358
1882.000000	0.280641
1883.000000	0.279195
1884.000000	0.277630
1885.000000	0.276140
1886.000000	0.274230
1887.000000	0.272228
1888.000000	0.269212
1889.000000	0.266949
1890.000000	0.265157
1891.000000	0.263351
1892.000000	0.262166
1893.000000	0.259477
1894.000000	0.256516
1895.000000	0.254296
1896.000000	0.252360
1897.000000	0.250011
1898.000000	0.249012
1899.000000	0.248171
1900.000000	0.246214
1901.000000	0.245024
1902.000000	0.243458
1903.000000	0.241996
1904.000000	0.240770
1905.000000	0.238576
1906.000000	0.237162
1907.000000	0.235901
1908.000000	0.235200
1909.000000	0.234790
1910.000000	0.234899
1911.000000	0.234585
1912.000000	0.234024
1913.000000	0.234089
1914.000000	0.233886
1915.000000	0.233498
1916.000000	0.233553
1917.000000	0.233369
1918.000000	0.232884
1919.000000	0.232575
1920.000000	0.232583
1921.000000	0.232552
1922.000000	0.232137
1923.000000	0.232058
1924.000000	0.232404
1925.000000	0.232722
1926.000000	0.233322
1927.000000	0.233849
1928.000000	0.234025
1929.000000	0.234096
1930.000000	0.233885
1931.000000	0.233280
1932.000000	0.233065
1933.000000	0.233608
1934.000000	0.233930
1935.000000	0.234757
1936.000000	0.235844
1937.000000	0.236251
1938.000000	0.236333
1939.000000	0.236110
1940.000000	0.235303
1941.000000	0.234962
1942.000000	0.234393
1943.000000	0.233588
1944.000000	0.234248
1945.000000	0.233858
1946.000000	0.233634
1947.000000	0.234924
1948.000000	0.235218
1949.000000	0.235366
1950.000000	0.235970
1951.000000	0.235830
1952.000000	0.234862
1953.000000	0.234029
1954.000000	0.233986
1955.000000	0.233538
1956.000000	0.233831
1957.000000	0.234567
1958.000000	0.234788
1959.000000	0.235056
1960.000000	0.234724
1961.000000	0.234383
1962.000000	0.234457
1963.000000	0.234677
1964.000000	0.235184
1965.000000	0.236291
1966.000000	0.236599
1967.000000	0.236753
1968.000000	0.237014
1969.000000	0.236221
1970.000000	0.235847
1971.000000	0.235626
1972.000000	0.235625
1973.000000	0.235775
1974.000000	0.236689
1975.000000	0.237095
1976.000000	0.237546
1977.000000	0.237520
1978.000000	0.237669
1979.000000	0.238433
1980.000000	0.239639
1981.000000	0.240326
1982.000000	0.240197
1983.000000	0.240402
1984.000000	0.240508
1985.000000	0.240154
1986.000000	0.240410
1987.000000	0.241340
1988.000000	0.241599
1989.000000	0.241976
1990.000000	0.241827
1991.000000	0.241529
1992.000000	0.241808
1993.000000	0.241952
1994.000000	0.242607
1995.000000	0.243437
1996.000000	0.244073
1997.000000	0.244530
1998.000000	0.244818
1999.000000	0.245214
2000.000000	0.245414
2001.000000	0.245908
2002.000000	0.246653
2003.000000	0.247437
2004.000000	0.248064
2005.000000	0.248077
2006.000000	0.247854
2007.000000	0.247919
2008.000000	0.248214
2009.000000	0.248767
2010.000000	0.249215
2011.000000	0.249793
2012.000000	0.250203
2013.000000	0.250428
2014.000000	0.250480
2015.000000	0.251026
2016.000000	0.251574
2017.000000	0.252206
2018.000000	0.253002
2019.000000	0.253557
2020.000000	0.253901
2021.000000	0.254157
2022.000000	0.254219
2023.000000	0.254226
2024.000000	0.253798
2025.000000	0.254159
2026.000000	0.254673
2027.000000	0.255255
2028.000000	0.256559
2029.000000	0.257578
2030.000000	0.257343
2031.000000	0.257443
2032.000000	0.258139
2033.000000	0.258584
2034.000000	0.258998
2035.000000	0.260128
2036.000000	0.260316
2037.000000	0.259776
2038.000000	0.259769
2039.000000	0.259432
2040.000000	0.260226
2041.000000	0.261254
2042.000000	0.261516
2043.000000	0.261996
2044.000000	0.261667
2045.000000	0.261441
2046.000000	0.261700
2047.000000	0.262080
2048.000000	0.263077
2049.000000	0.263979
2050.000000	0.264665
2051.000000	0.265020
2052.000000	0.265133
2053.000000	0.264994
2054.000000	0.264543
2055.000000	0.264658
2056.000000	0.264550
2057.000000	0.264445
2058.000000	0.264658
2059.000000	0.265258
2060.000000	0.265617
2061.000000	0.266236
2062.000000	0.266769
2063.000000	0.267040
2064.000000	0.267238
2065.000000	0.267855
2066.000000	0.267993
2067.000000	0.267848
2068.000000	0.268392
2069.000000	0.268366
2070.000000	0.268577
2071.000000	0.268472
2072.000000	0.268235
2073.000000	0.268959
2074.000000	0.269640
2075.000000	0.270047
2076.000000	0.270835
2077.000000	0.271094
2078.000000	0.270535
2079.000000	0.270504
2080.000000	0.270800
2081.000000	0.270976
2082.000000	0.271021
2083.000000	0.271429
2084.000000	0.271745
2085.000000	0.271962
2086.000000	0.272467
2087.000000	0.272748
2088.000000	0.273160
2089.000000	0.273555
2090.000000	0.273777
2091.000000	0.274133
2092.000000	0.274109
2093.000000	0.273682
2094.000000	0.273451
2095.000000	0.273048
2096.000000	0.272838
2097.000000	0.272753
2098.000000	0.272442
2099.000000	0.272070
2100.000000	0.272443
2101.000000	0.273017
2102.000000	0.273753
2103.000000	0.274559
2104.000000	0.275064
2105.000000	0.275562
2106.000000	0.275766
2107.000000	0.275970
2108.000000	0.276023
2109.000000	0.276385
2110.000000	0.276878
2111.000000	0.276953
2112.000000	0.276860
2113.000000	0.276842
2114.000000	0.276256
2115.000000	0.275841
2116.000000	0.276206
2117.000000	0.276579
2118.000000	0.277276
2119.000000	0.277537
2120.000000	0.277801
2121.000000	0.277856
2122.000000	0.278179
2123.000000	0.278514
2124.000000	0.279028
2125.000000	0.280242
2126.000000	0.280501
2127.000000	0.280223
2128.000000	0.279965
2129.000000	0.278924
2130.000000	0.278269
2131.000000	0.278025
2132.000000	0.278470
2133.000000	0.279080
2134.000000	0.279260
2135.000000	0.278675
2136.000000	0.278015
2137.000000	0.277821
2138.000000	0.277605
2139.000000	0.277664
2140.000000	0.278568
2141.000000	0.278598
2142.000000	0.277935
2143.000000	0.277628
2144.000000	0.277160
2145.000000	0.277152
2146.000000	0.277750
2147.000000	0.278720
2148.000000	0.278368
2149.000000	0.278805
2150.000000	0.279125
2151.000000	0.278685
2152.000000	0.278775
2153.000000	0.278743
2154.000000	0.278918
2155.000000	0.278926
2156.000000	0.279334
2157.000000	0.280464
2158.000000	0.280879
2159.000000	0.281384
2160.000000	0.281404
2161.000000	0.280685
2162.000000	0.280534
2163.000000	0.280026
2164.000000	0.279656
2165.000000	0.279824
2166.000000	0.279392
2167.000000	0.279051
2168.000000	0.279397
2169.000000	0.279649
2170.000000	0.280360
2171.000000	0.280437
2172.000000	0.280191
2173.000000	0.280326
2174.000000	0.280299
2175.000000	0.280253
2176.000000	0.280511
2177.000000	0.280499
2178.000000	0.279990
2179.000000	0.280136
2180.000000	0.280904
2181.000000	0.281468
2182.000000	0.282215
2183.000000	0.281612
2184.000000	0.280663
2185.000000	0.279551
2186.000000	0.278428
2187.000000	0.278551
2188.000000	0.279538
2189.000000	0.280524
2190.000000	0.281336
2191.000000	0.283317
2192.000000	0.283929
2193.000000	0.283653
2194.000000	0.283871
2195.000000	0.283439
2196.000000	0.283133
2197.000000	0.283433
2198.000000	0.283090
2199.000000	0.282131
2200.000000	0.281864
2201.000000	0.281089
2202.000000	0.281274
2203.000000	0.282910
2204.000000	0.283133
2205.000000	0.282907
2206.000000	0.283215
2207.000000	0.282124
2208.000000	0.280787
2209.000000	0.278530
2210.000000	0.275920
2211.000000	0.272972
2212.000000	0.270981
2213.000000	0.270190
2214.000000	0.271924
2215.000000	0.271172
2216.000000	0.269021
2217.000000	0.269331
2218.000000	0.270081
2219.000000	0.270224
2220.000000	0.272854
2221.000000	0.273847
2222.000000	0.271299
2223.000000	0.271920
2224.000000	0.274653
2225.000000	0.276425
2226.000000	0.278209
2227.000000	0.281264
2228.000000	0.283644
2229.000000	0.284378
2230.000000	0.284359
2231.000000	0.284285
2232.000000	0.284208
2233.000000	0.282140
2234.000000	0.281555
2235.000000	0.280969
2236.000000	0.279724
2237.000000	0.277753
2238.000000	0.277181
2239.000000	0.276335
2240.000000	0.276775
2241.000000	0.278559
2242.000000	0.279426
2243.000000	0.281579
2244.000000	0.281869
2245.000000	0.280546
2246.000000	0.280525
2247.000000	0.279817
2248.000000	0.278886
2249.000000	0.279093
2250.000000	0.277921
2251.000000	0.275357
2252.000000	0.276132
2253.000000	0.277612
2254.000000	0.279664
2255.000000	0.282187
2256.000000	0.282892
2257.000000	0.280821
2258.000000	0.279611
2259.000000	0.278614
2260.000000	0.275732
2261.000000	0.275047
2262.000000	0.275531
2263.000000	0.276214
2264.000000	0.278812
2265.000000	0.279713
2266.000000	0.281048
2267.000000	0.280519
2268.000000	0.277228
2269.000000	0.276014
2270.000000	0.274693
2271.000000	0.274041
2272.000000	0.274577
2273.000000	0.274997
2274.000000	0.275736
2275.000000	0.275686
2276.000000	0.276212
2277.000000	0.275075
2278.000000	0.272994
2279.000000	0.272262
2280.000000	0.272195
2281.000000	0.272112
2282.000000	0.271356
2283.000000	0.269731
2284.000000	0.267682
2285.000000	0.267115
2286.000000	0.265878
2287.000000	0.265959
2288.000000	0.266501
2289.000000	0.264332
2290.000000	0.263864
2291.000000	0.264626
2292.000000	0.264501
2293.000000	0.264842
2294.000000	0.264108
2295.000000	0.262372
2296.000000	0.261296
2297.000000	0.259334
2298.000000	0.258289
2299.000000	0.258813
2300.000000	0.257470
2301.000000	0.254611
2302.000000	0.254275
2303.000000	0.254599
2304.000000	0.254578
2305.000000	0.256489
2306.000000	0.256171
2307.000000	0.254440
2308.000000	0.252359
2309.000000	0.248508
2310.000000	0.246734
2311.000000	0.244766
2312.000000	0.242260
2313.000000	0.243857
2314.000000	0.245343
2315.000000	0.247040
2316.000000	0.251051
2317.000000	0.252619
2318.000000	0.253127
2319.000000	0.253468
2320.000000	0.251987
2321.000000	0.251568
2322.000000	0.252876
2323.000000	0.253812
2324.000000	0.254487
2325.000000	0.256110
2326.000000	0.257513
2327.000000	0.258247
2328.000000	0.256560
2329.000000	0.255211
2330.000000	0.254294
2331.000000	0.250594
2332.000000	0.252408
2333.000000	0.254749
2334.000000	0.252910
2335.000000	0.253545
2336.000000	0.255358
2337.000000	0.256515
2338.000000	0.259493
2339.000000	0.259098
2340.000000	0.256440
2341.000000	0.255596
2342.000000	0.252193
2343.000000	0.250794
2344.000000	0.252616
2345.000000	0.252839
2346.000000	0.252530
2347.000000	0.252286
2348.000000	0.252095
2349.000000	0.251515
2350.000000	0.252322
2351.000000	0.253096
2352.000000	0.252929
2353.000000	0.254463
2354.000000	0.252908
2355.000000	0.250331
2356.000000	0.252530
2357.000000	0.253574
2358.000000	0.254866
2359.000000	0.254862
2360.000000	0.252368
2361.000000	0.252285
2362.000000	0.250088
2363.000000	0.250764
2364.000000	0.250413
2365.000000	0.247322
2366.000000	0.247854
2367.000000	0.248784
2368.000000	0.248866
2369.000000	0.246704
2370.000000	0.243357
2371.000000	0.238569
2372.000000	0.238208
2373.000000	0.240861
2374.000000	0.241237
2375.000000	0.244334
2376.000000	0.246174
2377.000000	0.245230
2378.000000	0.245246
2379.000000	0.244491
2380.000000	0.238819
2381.000000	0.233010
2382.000000	0.231066
2383.000000	0.230489
2384.000000	0.232655
2385.000000	0.234576
2386.000000	0.234821
2387.000000	0.231674
2388.000000	0.228849
2389.000000	0.228865
2390.000000	0.225348
2391.000000	0.223885
2392.000000	0.221354
2393.000000	0.218596
2394.000000	0.219464
2395.000000	0.217097
2396.000000	0.214292
2397.000000	0.209594
2398.000000	0.212433
2399.000000	0.221156
2400.000000	0.223177
2401.000000	0.230877
2402.000000	0.237184
2403.000000	0.232319
2404.000000	0.232557
2405.000000	0.235029
2406.000000	0.228362
2407.000000	0.221756
2408.000000	0.219818
2409.000000	0.216926
2410.000000	0.220352
2411.000000	0.227228
2412.000000	0.225593
2413.000000	0.221955
2414.000000	0.219715
2415.000000	0.219913
2416.000000	0.225209
2417.000000	0.231985
2418.000000	0.228729
2419.000000	0.223018
2420.000000	0.217759
2421.000000	0.201361
2422.000000	0.192829
2423.000000	0.193039
2424.000000	0.196648
2425.000000	0.211727
2426.000000	0.223015
2427.000000	0.221772
2428.000000	0.215504
2429.000000	0.204370
2430.000000	0.193855
2431.000000	0.199759
2432.000000	0.206390
2433.000000	0.207697
2434.000000	0.220166
2435.000000	0.217161
2436.000000	0.205517
2437.000000	0.216831
2438.000000	0.222330
2439.000000	0.221057
2440.000000	0.224556
2441.000000	0.210921
2442.000000	0.201977
2443.000000	0.205194
2444.000000	0.210468
2445.000000	0.220811
2446.000000	0.217378
2447.000000	0.205784
2448.000000	0.200681
2449.000000	0.198650
2450.000000	0.203844
2451.000000	0.219196
2452.000000	0.226372
2453.000000	0.224437
2454.000000	0.233788
2455.000000	0.236753
2456.000000	0.234082
2457.000000	0.246004
2458.000000	0.243904
2459.000000	0.228263
2460.000000	0.230531
2461.000000	0.225571
2462.000000	0.212038
2463.000000	0.220945
2464.000000	0.217886
2465.000000	0.204757
2466.000000	0.196693
2467.000000	0.178310
2468.000000	0.170117
2469.000000	0.154676
2470.000000	0.148146
2471.000000	0.164019
2472.000000	0.171720
2473.000000	0.194857
2474.000000	0.206298
2475.000000	0.189298
2476.000000	0.172492
2477.000000	0.166607
2478.000000	0.183691
2479.000000	0.188596
2480.000000	0.192059
2481.000000	0.206491
2482.000000	0.178705
2483.000000	0.213955
2484.000000	0.263273
2485.000000	0.263322
2486.000000	0.318179
2487.000000	0.325314
2488.000000	0.305992
2489.000000	0.298060
2490.000000	0.257819
2491.000000	0.193570
2492.000000	0.157385
2493.000000	0.151453
2494.000000	0.127832
2495.000000	0.099974
2496.000000	0.088173
2497.000000	0.056485
2498.000000	0.053436
2499.000000	0.098256
2500.000000	0.122542
