# Wavelength	SM1200H-30_HEX-40_FV7-30_00001.asd.rts.txt
350.000000	0.256117
351.000000	0.258866
352.000000	0.260074
353.000000	0.252882
354.000000	0.244005
355.000000	0.259216
356.000000	0.265959
357.000000	0.263094
358.000000	0.266271
359.000000	0.268413
360.000000	0.268579
361.000000	0.267292
362.000000	0.269433
363.000000	0.275660
364.000000	0.282861
365.000000	0.282538
366.000000	0.281030
367.000000	0.279813
368.000000	0.277173
369.000000	0.273450
370.000000	0.271468
371.000000	0.273694
372.000000	0.273492
373.000000	0.272400
374.000000	0.273354
375.000000	0.279220
376.000000	0.282280
377.000000	0.281337
378.000000	0.281564
379.000000	0.282347
380.000000	0.283663
381.000000	0.285992
382.000000	0.283849
383.000000	0.282676
384.000000	0.285398
385.000000	0.283563
386.000000	0.282811
387.000000	0.285147
388.000000	0.288870
389.000000	0.289649
390.000000	0.288770
391.000000	0.289164
392.000000	0.290655
393.000000	0.291602
394.000000	0.291348
395.000000	0.293386
396.000000	0.293296
397.000000	0.290849
398.000000	0.291634
399.000000	0.292187
400.000000	0.292312
401.000000	0.292792
402.000000	0.293147
403.000000	0.293639
404.000000	0.294568
405.000000	0.294969
406.000000	0.295523
407.000000	0.296505
408.000000	0.297358
409.000000	0.297790
410.000000	0.297880
411.000000	0.297906
412.000000	0.298119
413.000000	0.298455
414.000000	0.298813
415.000000	0.299269
416.000000	0.299572
417.000000	0.299722
418.000000	0.300386
419.000000	0.300574
420.000000	0.300368
421.000000	0.300731
422.000000	0.301485
423.000000	0.302147
424.000000	0.302334
425.000000	0.302935
426.000000	0.303351
427.000000	0.303201
428.000000	0.303393
429.000000	0.303681
430.000000	0.303943
431.000000	0.304177
432.000000	0.304615
433.000000	0.305096
434.000000	0.305409
435.000000	0.305571
436.000000	0.305929
437.000000	0.306640
438.000000	0.306868
439.000000	0.306889
440.000000	0.307032
441.000000	0.307263
442.000000	0.307233
443.000000	0.307127
444.000000	0.307739
445.000000	0.307948
446.000000	0.308018
447.000000	0.308302
448.000000	0.308624
449.000000	0.308968
450.000000	0.309323
451.000000	0.309572
452.000000	0.309919
453.000000	0.310263
454.000000	0.310408
455.000000	0.310874
456.000000	0.311335
457.000000	0.310992
458.000000	0.311399
459.000000	0.311935
460.000000	0.311945
461.000000	0.311854
462.000000	0.312247
463.000000	0.312972
464.000000	0.313229
465.000000	0.313364
466.000000	0.313613
467.000000	0.314358
468.000000	0.314688
469.000000	0.314616
470.000000	0.314635
471.000000	0.314876
472.000000	0.314970
473.000000	0.314853
474.000000	0.315276
475.000000	0.315576
476.000000	0.315780
477.000000	0.316238
478.000000	0.316304
479.000000	0.316419
480.000000	0.316965
481.000000	0.317274
482.000000	0.317558
483.000000	0.317812
484.000000	0.318005
485.000000	0.318148
486.000000	0.318418
487.000000	0.318561
488.000000	0.318722
489.000000	0.318978
490.000000	0.319349
491.000000	0.319640
492.000000	0.319883
493.000000	0.320022
494.000000	0.320296
495.000000	0.320741
496.000000	0.321237
497.000000	0.321526
498.000000	0.321787
499.000000	0.322125
500.000000	0.322318
501.000000	0.322485
502.000000	0.322718
503.000000	0.322991
504.000000	0.323304
505.000000	0.323609
506.000000	0.323870
507.000000	0.324078
508.000000	0.324429
509.000000	0.324920
510.000000	0.325325
511.000000	0.325600
512.000000	0.325832
513.000000	0.326157
514.000000	0.326433
515.000000	0.326701
516.000000	0.326972
517.000000	0.327267
518.000000	0.327647
519.000000	0.328020
520.000000	0.328263
521.000000	0.328551
522.000000	0.328934
523.000000	0.329266
524.000000	0.329539
525.000000	0.329779
526.000000	0.330095
527.000000	0.330428
528.000000	0.330723
529.000000	0.330996
530.000000	0.331159
531.000000	0.331432
532.000000	0.331806
533.000000	0.332125
534.000000	0.332388
535.000000	0.332616
536.000000	0.332912
537.000000	0.333219
538.000000	0.333520
539.000000	0.333802
540.000000	0.334144
541.000000	0.334435
542.000000	0.334629
543.000000	0.334827
544.000000	0.335069
545.000000	0.335309
546.000000	0.335652
547.000000	0.335965
548.000000	0.336266
549.000000	0.336559
550.000000	0.336863
551.000000	0.337212
552.000000	0.337569
553.000000	0.337946
554.000000	0.338266
555.000000	0.338529
556.000000	0.338987
557.000000	0.339318
558.000000	0.339594
559.000000	0.339945
560.000000	0.340269
561.000000	0.340610
562.000000	0.340888
563.000000	0.341233
564.000000	0.341622
565.000000	0.341896
566.000000	0.342281
567.000000	0.342649
568.000000	0.342919
569.000000	0.343270
570.000000	0.343611
571.000000	0.343906
572.000000	0.344183
573.000000	0.344501
574.000000	0.344804
575.000000	0.345081
576.000000	0.345386
577.000000	0.345705
578.000000	0.346069
579.000000	0.346306
580.000000	0.346561
581.000000	0.346876
582.000000	0.347124
583.000000	0.347419
584.000000	0.347756
585.000000	0.348067
586.000000	0.348426
587.000000	0.348732
588.000000	0.348902
589.000000	0.349191
590.000000	0.349503
591.000000	0.349762
592.000000	0.350008
593.000000	0.350310
594.000000	0.350642
595.000000	0.350886
596.000000	0.351076
597.000000	0.351310
598.000000	0.351574
599.000000	0.351678
600.000000	0.351822
601.000000	0.352077
602.000000	0.352239
603.000000	0.352395
604.000000	0.352615
605.000000	0.352901
606.000000	0.353116
607.000000	0.353252
608.000000	0.353383
609.000000	0.353505
610.000000	0.353671
611.000000	0.353921
612.000000	0.354134
613.000000	0.354310
614.000000	0.354501
615.000000	0.354682
616.000000	0.354822
617.000000	0.354908
618.000000	0.355070
619.000000	0.355286
620.000000	0.355445
621.000000	0.355496
622.000000	0.355682
623.000000	0.355871
624.000000	0.355944
625.000000	0.356085
626.000000	0.356236
627.000000	0.356388
628.000000	0.356623
629.000000	0.356909
630.000000	0.357064
631.000000	0.357174
632.000000	0.357284
633.000000	0.357417
634.000000	0.357559
635.000000	0.357689
636.000000	0.357857
637.000000	0.358047
638.000000	0.358171
639.000000	0.358309
640.000000	0.358517
641.000000	0.358634
642.000000	0.358766
643.000000	0.358924
644.000000	0.359100
645.000000	0.359309
646.000000	0.359496
647.000000	0.359605
648.000000	0.359753
649.000000	0.359933
650.000000	0.360111
651.000000	0.360286
652.000000	0.360407
653.000000	0.360550
654.000000	0.360739
655.000000	0.360917
656.000000	0.361096
657.000000	0.361224
658.000000	0.361333
659.000000	0.361475
660.000000	0.361637
661.000000	0.361764
662.000000	0.361862
663.000000	0.362004
664.000000	0.362178
665.000000	0.362348
666.000000	0.362483
667.000000	0.362557
668.000000	0.362793
669.000000	0.363056
670.000000	0.363258
671.000000	0.363429
672.000000	0.363604
673.000000	0.363779
674.000000	0.363941
675.000000	0.364066
676.000000	0.364202
677.000000	0.364416
678.000000	0.364531
679.000000	0.364661
680.000000	0.364872
681.000000	0.364974
682.000000	0.365127
683.000000	0.365299
684.000000	0.365554
685.000000	0.365695
686.000000	0.365834
687.000000	0.366097
688.000000	0.366332
689.000000	0.366514
690.000000	0.366676
691.000000	0.366782
692.000000	0.366841
693.000000	0.366949
694.000000	0.367103
695.000000	0.367229
696.000000	0.367341
697.000000	0.367488
698.000000	0.367679
699.000000	0.367868
700.000000	0.368026
701.000000	0.368162
702.000000	0.368310
703.000000	0.368460
704.000000	0.368607
705.000000	0.368762
706.000000	0.368919
707.000000	0.369164
708.000000	0.369327
709.000000	0.369474
710.000000	0.369684
711.000000	0.369803
712.000000	0.369926
713.000000	0.370103
714.000000	0.370250
715.000000	0.370378
716.000000	0.370536
717.000000	0.370749
718.000000	0.370918
719.000000	0.371018
720.000000	0.371090
721.000000	0.371275
722.000000	0.371398
723.000000	0.371478
724.000000	0.371578
725.000000	0.371634
726.000000	0.371718
727.000000	0.371762
728.000000	0.371892
729.000000	0.372104
730.000000	0.372300
731.000000	0.372467
732.000000	0.372611
733.000000	0.372762
734.000000	0.372833
735.000000	0.372865
736.000000	0.372989
737.000000	0.373065
738.000000	0.373184
739.000000	0.373335
740.000000	0.373330
741.000000	0.373453
742.000000	0.373570
743.000000	0.373619
744.000000	0.373724
745.000000	0.373772
746.000000	0.373843
747.000000	0.373945
748.000000	0.374065
749.000000	0.374199
750.000000	0.374300
751.000000	0.374360
752.000000	0.374401
753.000000	0.374454
754.000000	0.374526
755.000000	0.374612
756.000000	0.374693
757.000000	0.374700
758.000000	0.374740
759.000000	0.374805
760.000000	0.374833
761.000000	0.375027
762.000000	0.375160
763.000000	0.375196
764.000000	0.375303
765.000000	0.375357
766.000000	0.375358
767.000000	0.375345
768.000000	0.375434
769.000000	0.375564
770.000000	0.375678
771.000000	0.375701
772.000000	0.375878
773.000000	0.376021
774.000000	0.375961
775.000000	0.375935
776.000000	0.375962
777.000000	0.376000
778.000000	0.376017
779.000000	0.376048
780.000000	0.376092
781.000000	0.376093
782.000000	0.376087
783.000000	0.376195
784.000000	0.376306
785.000000	0.376381
786.000000	0.376435
787.000000	0.376483
788.000000	0.376551
789.000000	0.376606
790.000000	0.376635
791.000000	0.376692
792.000000	0.376788
793.000000	0.376873
794.000000	0.376914
795.000000	0.376932
796.000000	0.376936
797.000000	0.376923
798.000000	0.376887
799.000000	0.376845
800.000000	0.376835
801.000000	0.376885
802.000000	0.376896
803.000000	0.376879
804.000000	0.376882
805.000000	0.376843
806.000000	0.376809
807.000000	0.376840
808.000000	0.376818
809.000000	0.376811
810.000000	0.376779
811.000000	0.376696
812.000000	0.376706
813.000000	0.376765
814.000000	0.376807
815.000000	0.376777
816.000000	0.376720
817.000000	0.376671
818.000000	0.376567
819.000000	0.376561
820.000000	0.376621
821.000000	0.376641
822.000000	0.376605
823.000000	0.376551
824.000000	0.376452
825.000000	0.376407
826.000000	0.376376
827.000000	0.376350
828.000000	0.376389
829.000000	0.376505
830.000000	0.376549
831.000000	0.376548
832.000000	0.376426
833.000000	0.376284
834.000000	0.376173
835.000000	0.376157
836.000000	0.376203
837.000000	0.376237
838.000000	0.376259
839.000000	0.376278
840.000000	0.376322
841.000000	0.376309
842.000000	0.376142
843.000000	0.376025
844.000000	0.376044
845.000000	0.376123
846.000000	0.376109
847.000000	0.376144
848.000000	0.376152
849.000000	0.376080
850.000000	0.376019
851.000000	0.375979
852.000000	0.375994
853.000000	0.376010
854.000000	0.375894
855.000000	0.375814
856.000000	0.375773
857.000000	0.375712
858.000000	0.375749
859.000000	0.375788
860.000000	0.375670
861.000000	0.375513
862.000000	0.375372
863.000000	0.375193
864.000000	0.375140
865.000000	0.375055
866.000000	0.374899
867.000000	0.374827
868.000000	0.374711
869.000000	0.374528
870.000000	0.374434
871.000000	0.374367
872.000000	0.374316
873.000000	0.374197
874.000000	0.374059
875.000000	0.373789
876.000000	0.373525
877.000000	0.373392
878.000000	0.373158
879.000000	0.373011
880.000000	0.372895
881.000000	0.372828
882.000000	0.372726
883.000000	0.372575
884.000000	0.372339
885.000000	0.372257
886.000000	0.372161
887.000000	0.371970
888.000000	0.371718
889.000000	0.371601
890.000000	0.371505
891.000000	0.371461
892.000000	0.371329
893.000000	0.371110
894.000000	0.370960
895.000000	0.370776
896.000000	0.370508
897.000000	0.370261
898.000000	0.370165
899.000000	0.370138
900.000000	0.370050
901.000000	0.369837
902.000000	0.369689
903.000000	0.369554
904.000000	0.369412
905.000000	0.369154
906.000000	0.369037
907.000000	0.368835
908.000000	0.368563
909.000000	0.368299
910.000000	0.368078
911.000000	0.367867
912.000000	0.367676
913.000000	0.367655
914.000000	0.367561
915.000000	0.367390
916.000000	0.367129
917.000000	0.366823
918.000000	0.366615
919.000000	0.366510
920.000000	0.366225
921.000000	0.366002
922.000000	0.365855
923.000000	0.365649
924.000000	0.365425
925.000000	0.365234
926.000000	0.365127
927.000000	0.365027
928.000000	0.364676
929.000000	0.364141
930.000000	0.363649
931.000000	0.363492
932.000000	0.363338
933.000000	0.363087
934.000000	0.362811
935.000000	0.362594
936.000000	0.362453
937.000000	0.362233
938.000000	0.361856
939.000000	0.361633
940.000000	0.361476
941.000000	0.361259
942.000000	0.361025
943.000000	0.360781
944.000000	0.360407
945.000000	0.360078
946.000000	0.359711
947.000000	0.359397
948.000000	0.359164
949.000000	0.358960
950.000000	0.358630
951.000000	0.358239
952.000000	0.358190
953.000000	0.358103
954.000000	0.357932
955.000000	0.357651
956.000000	0.357468
957.000000	0.357184
958.000000	0.356761
959.000000	0.356420
960.000000	0.356416
961.000000	0.356336
962.000000	0.356034
963.000000	0.355805
964.000000	0.355609
965.000000	0.355366
966.000000	0.354952
967.000000	0.354774
968.000000	0.354543
969.000000	0.354250
970.000000	0.354138
971.000000	0.353962
972.000000	0.353756
973.000000	0.353481
974.000000	0.353219
975.000000	0.352931
976.000000	0.352839
977.000000	0.352926
978.000000	0.352354
979.000000	0.352267
980.000000	0.352276
981.000000	0.352010
982.000000	0.351978
983.000000	0.351815
984.000000	0.351557
985.000000	0.351510
986.000000	0.351347
987.000000	0.351050
988.000000	0.350569
989.000000	0.350116
990.000000	0.350033
991.000000	0.350055
992.000000	0.349837
993.000000	0.349508
994.000000	0.349361
995.000000	0.349476
996.000000	0.349307
997.000000	0.349063
998.000000	0.348973
999.000000	0.349058
1000.000000	0.348744
1001.000000	0.349760
1002.000000	0.348745
1003.000000	0.348270
1004.000000	0.348378
1005.000000	0.348965
1006.000000	0.348982
1007.000000	0.349331
1008.000000	0.350009
1009.000000	0.349205
1010.000000	0.348571
1011.000000	0.348432
1012.000000	0.347925
1013.000000	0.347771
1014.000000	0.348006
1015.000000	0.348670
1016.000000	0.349291
1017.000000	0.349044
1018.000000	0.348828
1019.000000	0.348573
1020.000000	0.347960
1021.000000	0.347060
1022.000000	0.345987
1023.000000	0.345925
1024.000000	0.345820
1025.000000	0.346314
1026.000000	0.347204
1027.000000	0.347627
1028.000000	0.347604
1029.000000	0.347658
1030.000000	0.347522
1031.000000	0.347311
1032.000000	0.347472
1033.000000	0.347449
1034.000000	0.347424
1035.000000	0.347555
1036.000000	0.347798
1037.000000	0.348058
1038.000000	0.348037
1039.000000	0.348146
1040.000000	0.348307
1041.000000	0.347887
1042.000000	0.347859
1043.000000	0.348560
1044.000000	0.348964
1045.000000	0.349597
1046.000000	0.350053
1047.000000	0.350057
1048.000000	0.349381
1049.000000	0.349246
1050.000000	0.348923
1051.000000	0.348942
1052.000000	0.349352
1053.000000	0.349468
1054.000000	0.349825
1055.000000	0.350053
1056.000000	0.350057
1057.000000	0.350299
1058.000000	0.350724
1059.000000	0.350810
1060.000000	0.351252
1061.000000	0.351846
1062.000000	0.351831
1063.000000	0.352251
1064.000000	0.352421
1065.000000	0.352262
1066.000000	0.352224
1067.000000	0.352114
1068.000000	0.352131
1069.000000	0.352047
1070.000000	0.352302
1071.000000	0.353135
1072.000000	0.353441
1073.000000	0.353788
1074.000000	0.353950
1075.000000	0.353709
1076.000000	0.353671
1077.000000	0.353584
1078.000000	0.353482
1079.000000	0.353456
1080.000000	0.353272
1081.000000	0.353483
1082.000000	0.354227
1083.000000	0.354536
1084.000000	0.354865
1085.000000	0.355269
1086.000000	0.355451
1087.000000	0.355771
1088.000000	0.356316
1089.000000	0.356582
1090.000000	0.356484
1091.000000	0.356614
1092.000000	0.356961
1093.000000	0.357393
1094.000000	0.357363
1095.000000	0.357077
1096.000000	0.357150
1097.000000	0.356909
1098.000000	0.357082
1099.000000	0.357725
1100.000000	0.358249
1101.000000	0.358891
1102.000000	0.359127
1103.000000	0.359225
1104.000000	0.359414
1105.000000	0.359228
1106.000000	0.359227
1107.000000	0.359325
1108.000000	0.359513
1109.000000	0.359889
1110.000000	0.360109
1111.000000	0.360322
1112.000000	0.360663
1113.000000	0.360901
1114.000000	0.361018
1115.000000	0.361111
1116.000000	0.361258
1117.000000	0.361330
1118.000000	0.361104
1119.000000	0.361155
1120.000000	0.361480
1121.000000	0.361565
1122.000000	0.361690
1123.000000	0.362044
1124.000000	0.362194
1125.000000	0.362289
1126.000000	0.362291
1127.000000	0.362369
1128.000000	0.362425
1129.000000	0.362368
1130.000000	0.362477
1131.000000	0.362815
1132.000000	0.362912
1133.000000	0.362997
1134.000000	0.363058
1135.000000	0.362974
1136.000000	0.362936
1137.000000	0.362896
1138.000000	0.362795
1139.000000	0.362685
1140.000000	0.362785
1141.000000	0.362937
1142.000000	0.363036
1143.000000	0.363185
1144.000000	0.363383
1145.000000	0.363282
1146.000000	0.363214
1147.000000	0.363216
1148.000000	0.363157
1149.000000	0.363151
1150.000000	0.363178
1151.000000	0.363294
1152.000000	0.363415
1153.000000	0.363542
1154.000000	0.363689
1155.000000	0.363808
1156.000000	0.364016
1157.000000	0.364017
1158.000000	0.363723
1159.000000	0.363730
1160.000000	0.363791
1161.000000	0.363758
1162.000000	0.363982
1163.000000	0.364247
1164.000000	0.363963
1165.000000	0.363775
1166.000000	0.363718
1167.000000	0.363609
1168.000000	0.363512
1169.000000	0.363625
1170.000000	0.363583
1171.000000	0.363461
1172.000000	0.363420
1173.000000	0.363331
1174.000000	0.363267
1175.000000	0.363220
1176.000000	0.363119
1177.000000	0.363023
1178.000000	0.363039
1179.000000	0.363093
1180.000000	0.363077
1181.000000	0.363251
1182.000000	0.363362
1183.000000	0.363324
1184.000000	0.363428
1185.000000	0.363408
1186.000000	0.363270
1187.000000	0.363258
1188.000000	0.363316
1189.000000	0.363247
1190.000000	0.363277
1191.000000	0.363219
1192.000000	0.363017
1193.000000	0.363114
1194.000000	0.363241
1195.000000	0.363320
1196.000000	0.363512
1197.000000	0.363562
1198.000000	0.363487
1199.000000	0.363481
1200.000000	0.363462
1201.000000	0.363363
1202.000000	0.363443
1203.000000	0.363519
1204.000000	0.363491
1205.000000	0.363596
1206.000000	0.363513
1207.000000	0.363352
1208.000000	0.363296
1209.000000	0.363273
1210.000000	0.363261
1211.000000	0.363333
1212.000000	0.363361
1213.000000	0.363417
1214.000000	0.363526
1215.000000	0.363698
1216.000000	0.363740
1217.000000	0.363685
1218.000000	0.363635
1219.000000	0.363613
1220.000000	0.363473
1221.000000	0.363190
1222.000000	0.363121
1223.000000	0.363124
1224.000000	0.363168
1225.000000	0.363322
1226.000000	0.363374
1227.000000	0.363312
1228.000000	0.363247
1229.000000	0.363163
1230.000000	0.363122
1231.000000	0.363005
1232.000000	0.362951
1233.000000	0.362954
1234.000000	0.362899
1235.000000	0.362855
1236.000000	0.362652
1237.000000	0.362692
1238.000000	0.362933
1239.000000	0.363009
1240.000000	0.363150
1241.000000	0.363127
1242.000000	0.363117
1243.000000	0.363145
1244.000000	0.363279
1245.000000	0.363601
1246.000000	0.363589
1247.000000	0.363458
1248.000000	0.363490
1249.000000	0.363444
1250.000000	0.363320
1251.000000	0.363300
1252.000000	0.363258
1253.000000	0.363108
1254.000000	0.363055
1255.000000	0.363179
1256.000000	0.363199
1257.000000	0.363148
1258.000000	0.363191
1259.000000	0.363211
1260.000000	0.363250
1261.000000	0.363244
1262.000000	0.363267
1263.000000	0.363373
1264.000000	0.363361
1265.000000	0.363328
1266.000000	0.363297
1267.000000	0.363114
1268.000000	0.362827
1269.000000	0.362542
1270.000000	0.362562
1271.000000	0.362719
1272.000000	0.362813
1273.000000	0.362774
1274.000000	0.362624
1275.000000	0.362581
1276.000000	0.362463
1277.000000	0.362534
1278.000000	0.362775
1279.000000	0.362794
1280.000000	0.362637
1281.000000	0.362550
1282.000000	0.362444
1283.000000	0.362474
1284.000000	0.362518
1285.000000	0.362534
1286.000000	0.362559
1287.000000	0.362569
1288.000000	0.362600
1289.000000	0.362660
1290.000000	0.362596
1291.000000	0.362627
1292.000000	0.362723
1293.000000	0.362547
1294.000000	0.362373
1295.000000	0.362371
1296.000000	0.362329
1297.000000	0.362365
1298.000000	0.362558
1299.000000	0.362665
1300.000000	0.362706
1301.000000	0.362662
1302.000000	0.362546
1303.000000	0.362547
1304.000000	0.362388
1305.000000	0.362135
1306.000000	0.362001
1307.000000	0.361911
1308.000000	0.361811
1309.000000	0.361812
1310.000000	0.361707
1311.000000	0.361560
1312.000000	0.361378
1313.000000	0.361193
1314.000000	0.361050
1315.000000	0.361010
1316.000000	0.360994
1317.000000	0.360932
1318.000000	0.360913
1319.000000	0.360770
1320.000000	0.360623
1321.000000	0.360548
1322.000000	0.360406
1323.000000	0.360211
1324.000000	0.360164
1325.000000	0.360139
1326.000000	0.359994
1327.000000	0.359871
1328.000000	0.359819
1329.000000	0.359618
1330.000000	0.359250
1331.000000	0.359026
1332.000000	0.358918
1333.000000	0.358705
1334.000000	0.358530
1335.000000	0.358444
1336.000000	0.358352
1337.000000	0.358234
1338.000000	0.358123
1339.000000	0.357953
1340.000000	0.357726
1341.000000	0.357435
1342.000000	0.357171
1343.000000	0.357074
1344.000000	0.356964
1345.000000	0.356822
1346.000000	0.356930
1347.000000	0.356809
1348.000000	0.356667
1349.000000	0.356651
1350.000000	0.356414
1351.000000	0.356011
1352.000000	0.355801
1353.000000	0.355595
1354.000000	0.355371
1355.000000	0.355344
1356.000000	0.355276
1357.000000	0.355004
1358.000000	0.354886
1359.000000	0.354754
1360.000000	0.354518
1361.000000	0.354208
1362.000000	0.354022
1363.000000	0.353853
1364.000000	0.353625
1365.000000	0.353416
1366.000000	0.353238
1367.000000	0.353061
1368.000000	0.352604
1369.000000	0.352446
1370.000000	0.352286
1371.000000	0.351869
1372.000000	0.351588
1373.000000	0.351302
1374.000000	0.350874
1375.000000	0.350375
1376.000000	0.349883
1377.000000	0.349363
1378.000000	0.348569
1379.000000	0.347465
1380.000000	0.346285
1381.000000	0.344898
1382.000000	0.343410
1383.000000	0.342024
1384.000000	0.340457
1385.000000	0.338864
1386.000000	0.337479
1387.000000	0.336163
1388.000000	0.334990
1389.000000	0.334070
1390.000000	0.333294
1391.000000	0.332639
1392.000000	0.332258
1393.000000	0.331951
1394.000000	0.331845
1395.000000	0.331761
1396.000000	0.331875
1397.000000	0.331762
1398.000000	0.331673
1399.000000	0.331330
1400.000000	0.330756
1401.000000	0.330154
1402.000000	0.329510
1403.000000	0.328637
1404.000000	0.327818
1405.000000	0.327117
1406.000000	0.326362
1407.000000	0.325588
1408.000000	0.324771
1409.000000	0.323930
1410.000000	0.323131
1411.000000	0.322339
1412.000000	0.321499
1413.000000	0.320772
1414.000000	0.320056
1415.000000	0.319308
1416.000000	0.318645
1417.000000	0.318003
1418.000000	0.317279
1419.000000	0.316562
1420.000000	0.315831
1421.000000	0.315290
1422.000000	0.314782
1423.000000	0.314369
1424.000000	0.313910
1425.000000	0.313253
1426.000000	0.312566
1427.000000	0.311945
1428.000000	0.311377
1429.000000	0.310977
1430.000000	0.310541
1431.000000	0.310051
1432.000000	0.309673
1433.000000	0.309464
1434.000000	0.309101
1435.000000	0.308809
1436.000000	0.308532
1437.000000	0.308161
1438.000000	0.307805
1439.000000	0.307596
1440.000000	0.307255
1441.000000	0.306805
1442.000000	0.306427
1443.000000	0.305962
1444.000000	0.305574
1445.000000	0.305317
1446.000000	0.305128
1447.000000	0.304780
1448.000000	0.304495
1449.000000	0.304120
1450.000000	0.303609
1451.000000	0.303430
1452.000000	0.303250
1453.000000	0.302882
1454.000000	0.302653
1455.000000	0.302394
1456.000000	0.302094
1457.000000	0.302027
1458.000000	0.301917
1459.000000	0.301680
1460.000000	0.301489
1461.000000	0.301303
1462.000000	0.301237
1463.000000	0.301232
1464.000000	0.301227
1465.000000	0.301282
1466.000000	0.301223
1467.000000	0.301102
1468.000000	0.301146
1469.000000	0.301326
1470.000000	0.301446
1471.000000	0.301665
1472.000000	0.301877
1473.000000	0.301997
1474.000000	0.302086
1475.000000	0.302281
1476.000000	0.302425
1477.000000	0.302582
1478.000000	0.302864
1479.000000	0.303076
1480.000000	0.303332
1481.000000	0.303608
1482.000000	0.303950
1483.000000	0.304304
1484.000000	0.304744
1485.000000	0.305061
1486.000000	0.305253
1487.000000	0.305605
1488.000000	0.305985
1489.000000	0.306411
1490.000000	0.306898
1491.000000	0.307344
1492.000000	0.307658
1493.000000	0.308071
1494.000000	0.308507
1495.000000	0.308909
1496.000000	0.309375
1497.000000	0.309777
1498.000000	0.310157
1499.000000	0.310457
1500.000000	0.310826
1501.000000	0.311058
1502.000000	0.311214
1503.000000	0.311507
1504.000000	0.311787
1505.000000	0.312002
1506.000000	0.312320
1507.000000	0.312599
1508.000000	0.312733
1509.000000	0.312972
1510.000000	0.313223
1511.000000	0.313374
1512.000000	0.313549
1513.000000	0.313658
1514.000000	0.313736
1515.000000	0.313869
1516.000000	0.314167
1517.000000	0.314419
1518.000000	0.314521
1519.000000	0.314578
1520.000000	0.314599
1521.000000	0.314603
1522.000000	0.314854
1523.000000	0.315187
1524.000000	0.315341
1525.000000	0.315470
1526.000000	0.315484
1527.000000	0.315590
1528.000000	0.315832
1529.000000	0.316063
1530.000000	0.316289
1531.000000	0.316425
1532.000000	0.316497
1533.000000	0.316496
1534.000000	0.316483
1535.000000	0.316399
1536.000000	0.316320
1537.000000	0.316519
1538.000000	0.316614
1539.000000	0.316674
1540.000000	0.316824
1541.000000	0.316751
1542.000000	0.316740
1543.000000	0.316916
1544.000000	0.316982
1545.000000	0.317168
1546.000000	0.317415
1547.000000	0.317481
1548.000000	0.317532
1549.000000	0.317515
1550.000000	0.317412
1551.000000	0.317446
1552.000000	0.317625
1553.000000	0.317800
1554.000000	0.317938
1555.000000	0.318077
1556.000000	0.318112
1557.000000	0.318034
1558.000000	0.318079
1559.000000	0.318111
1560.000000	0.318169
1561.000000	0.318378
1562.000000	0.318420
1563.000000	0.318420
1564.000000	0.318456
1565.000000	0.318390
1566.000000	0.318323
1567.000000	0.318435
1568.000000	0.318425
1569.000000	0.318409
1570.000000	0.318432
1571.000000	0.318387
1572.000000	0.318390
1573.000000	0.318478
1574.000000	0.318456
1575.000000	0.318440
1576.000000	0.318418
1577.000000	0.318279
1578.000000	0.318223
1579.000000	0.318292
1580.000000	0.318289
1581.000000	0.318359
1582.000000	0.318333
1583.000000	0.318202
1584.000000	0.318095
1585.000000	0.318023
1586.000000	0.318074
1587.000000	0.318245
1588.000000	0.318299
1589.000000	0.318345
1590.000000	0.318355
1591.000000	0.318286
1592.000000	0.318281
1593.000000	0.318406
1594.000000	0.318442
1595.000000	0.318445
1596.000000	0.318507
1597.000000	0.318603
1598.000000	0.318619
1599.000000	0.318668
1600.000000	0.318672
1601.000000	0.318692
1602.000000	0.318710
1603.000000	0.318774
1604.000000	0.318813
1605.000000	0.318817
1606.000000	0.318842
1607.000000	0.318946
1608.000000	0.319000
1609.000000	0.319089
1610.000000	0.319139
1611.000000	0.319159
1612.000000	0.319209
1613.000000	0.319393
1614.000000	0.319463
1615.000000	0.319601
1616.000000	0.319680
1617.000000	0.319554
1618.000000	0.319585
1619.000000	0.319627
1620.000000	0.319693
1621.000000	0.319875
1622.000000	0.320082
1623.000000	0.320304
1624.000000	0.320465
1625.000000	0.320460
1626.000000	0.320516
1627.000000	0.320616
1628.000000	0.320700
1629.000000	0.320815
1630.000000	0.320900
1631.000000	0.320815
1632.000000	0.320773
1633.000000	0.320768
1634.000000	0.320826
1635.000000	0.320961
1636.000000	0.321047
1637.000000	0.321215
1638.000000	0.321257
1639.000000	0.321194
1640.000000	0.321279
1641.000000	0.321443
1642.000000	0.321639
1643.000000	0.322068
1644.000000	0.322217
1645.000000	0.322213
1646.000000	0.322278
1647.000000	0.322257
1648.000000	0.322294
1649.000000	0.322498
1650.000000	0.322685
1651.000000	0.322901
1652.000000	0.323147
1653.000000	0.323406
1654.000000	0.323616
1655.000000	0.323740
1656.000000	0.323775
1657.000000	0.323838
1658.000000	0.323929
1659.000000	0.324081
1660.000000	0.324242
1661.000000	0.324350
1662.000000	0.324446
1663.000000	0.324441
1664.000000	0.324592
1665.000000	0.324851
1666.000000	0.325086
1667.000000	0.325302
1668.000000	0.325495
1669.000000	0.325637
1670.000000	0.325668
1671.000000	0.325742
1672.000000	0.325920
1673.000000	0.326012
1674.000000	0.326227
1675.000000	0.326528
1676.000000	0.326509
1677.000000	0.326388
1678.000000	0.326379
1679.000000	0.326368
1680.000000	0.326453
1681.000000	0.326586
1682.000000	0.326600
1683.000000	0.326629
1684.000000	0.326675
1685.000000	0.326806
1686.000000	0.326906
1687.000000	0.326955
1688.000000	0.327059
1689.000000	0.327192
1690.000000	0.327381
1691.000000	0.327640
1692.000000	0.327676
1693.000000	0.327641
1694.000000	0.327666
1695.000000	0.327798
1696.000000	0.327896
1697.000000	0.327873
1698.000000	0.327612
1699.000000	0.327584
1700.000000	0.327667
1701.000000	0.327848
1702.000000	0.328170
1703.000000	0.328223
1704.000000	0.328202
1705.000000	0.328193
1706.000000	0.327971
1707.000000	0.327972
1708.000000	0.328170
1709.000000	0.328185
1710.000000	0.328280
1711.000000	0.328412
1712.000000	0.328495
1713.000000	0.328591
1714.000000	0.328881
1715.000000	0.328991
1716.000000	0.328959
1717.000000	0.328975
1718.000000	0.328839
1719.000000	0.328869
1720.000000	0.329109
1721.000000	0.329215
1722.000000	0.329294
1723.000000	0.329480
1724.000000	0.329732
1725.000000	0.329864
1726.000000	0.329985
1727.000000	0.330034
1728.000000	0.329763
1729.000000	0.329727
1730.000000	0.329996
1731.000000	0.330092
1732.000000	0.330188
1733.000000	0.330364
1734.000000	0.330400
1735.000000	0.330433
1736.000000	0.330477
1737.000000	0.330528
1738.000000	0.330506
1739.000000	0.330574
1740.000000	0.330730
1741.000000	0.330804
1742.000000	0.330866
1743.000000	0.330952
1744.000000	0.331032
1745.000000	0.331030
1746.000000	0.330946
1747.000000	0.331162
1748.000000	0.331113
1749.000000	0.330930
1750.000000	0.330834
1751.000000	0.330701
1752.000000	0.330707
1753.000000	0.330751
1754.000000	0.330841
1755.000000	0.330946
1756.000000	0.330969
1757.000000	0.330974
1758.000000	0.331085
1759.000000	0.331201
1760.000000	0.331244
1761.000000	0.331317
1762.000000	0.331362
1763.000000	0.331257
1764.000000	0.331278
1765.000000	0.331431
1766.000000	0.331477
1767.000000	0.331386
1768.000000	0.331344
1769.000000	0.331314
1770.000000	0.331449
1771.000000	0.331723
1772.000000	0.331825
1773.000000	0.331858
1774.000000	0.331945
1775.000000	0.331996
1776.000000	0.332120
1777.000000	0.332409
1778.000000	0.332367
1779.000000	0.332055
1780.000000	0.332077
1781.000000	0.332046
1782.000000	0.332099
1783.000000	0.332463
1784.000000	0.332681
1785.000000	0.332574
1786.000000	0.332403
1787.000000	0.332570
1788.000000	0.332665
1789.000000	0.332767
1790.000000	0.333129
1791.000000	0.333221
1792.000000	0.333144
1793.000000	0.333156
1794.000000	0.333108
1795.000000	0.333144
1796.000000	0.333280
1797.000000	0.333356
1798.000000	0.333438
1799.000000	0.333445
1800.000000	0.333383
1801.000000	0.334206
1802.000000	0.333847
1803.000000	0.332213
1804.000000	0.332358
1805.000000	0.334452
1806.000000	0.334827
1807.000000	0.334924
1808.000000	0.334905
1809.000000	0.334140
1810.000000	0.333004
1811.000000	0.333012
1812.000000	0.333968
1813.000000	0.334041
1814.000000	0.334439
1815.000000	0.334381
1816.000000	0.333545
1817.000000	0.333093
1818.000000	0.332868
1819.000000	0.332359
1820.000000	0.332751
1821.000000	0.332975
1822.000000	0.333334
1823.000000	0.334419
1824.000000	0.334444
1825.000000	0.333402
1826.000000	0.333334
1827.000000	0.333177
1828.000000	0.333223
1829.000000	0.332965
1830.000000	0.333491
1831.000000	0.333182
1832.000000	0.331757
1833.000000	0.331361
1834.000000	0.331215
1835.000000	0.331119
1836.000000	0.331402
1837.000000	0.331502
1838.000000	0.331652
1839.000000	0.331668
1840.000000	0.331155
1841.000000	0.330477
1842.000000	0.330246
1843.000000	0.329793
1844.000000	0.329900
1845.000000	0.330821
1846.000000	0.331155
1847.000000	0.331391
1848.000000	0.331332
1849.000000	0.330705
1850.000000	0.330358
1851.000000	0.330178
1852.000000	0.330090
1853.000000	0.329664
1854.000000	0.328962
1855.000000	0.328337
1856.000000	0.327280
1857.000000	0.326653
1858.000000	0.325973
1859.000000	0.325586
1860.000000	0.324522
1861.000000	0.323130
1862.000000	0.322196
1863.000000	0.321440
1864.000000	0.320545
1865.000000	0.319991
1866.000000	0.319068
1867.000000	0.317871
1868.000000	0.316578
1869.000000	0.314922
1870.000000	0.314035
1871.000000	0.312812
1872.000000	0.310896
1873.000000	0.309019
1874.000000	0.306540
1875.000000	0.304545
1876.000000	0.302374
1877.000000	0.300445
1878.000000	0.298142
1879.000000	0.295864
1880.000000	0.293102
1881.000000	0.289991
1882.000000	0.287144
1883.000000	0.284212
1884.000000	0.281174
1885.000000	0.277774
1886.000000	0.274357
1887.000000	0.270835
1888.000000	0.267231
1889.000000	0.263188
1890.000000	0.259464
1891.000000	0.255897
1892.000000	0.251637
1893.000000	0.247560
1894.000000	0.243821
1895.000000	0.239994
1896.000000	0.236093
1897.000000	0.232576
1898.000000	0.229363
1899.000000	0.226589
1900.000000	0.223949
1901.000000	0.221320
1902.000000	0.219069
1903.000000	0.216591
1904.000000	0.213697
1905.000000	0.211069
1906.000000	0.208766
1907.000000	0.206590
1908.000000	0.204539
1909.000000	0.203317
1910.000000	0.202723
1911.000000	0.201393
1912.000000	0.199502
1913.000000	0.197985
1914.000000	0.196089
1915.000000	0.194403
1916.000000	0.193710
1917.000000	0.193060
1918.000000	0.192696
1919.000000	0.192609
1920.000000	0.192340
1921.000000	0.191743
1922.000000	0.191049
1923.000000	0.190054
1924.000000	0.189849
1925.000000	0.189947
1926.000000	0.189766
1927.000000	0.190273
1928.000000	0.190412
1929.000000	0.190335
1930.000000	0.190386
1931.000000	0.190582
1932.000000	0.189630
1933.000000	0.189638
1934.000000	0.190390
1935.000000	0.190564
1936.000000	0.191334
1937.000000	0.191913
1938.000000	0.191619
1939.000000	0.191486
1940.000000	0.191304
1941.000000	0.191430
1942.000000	0.191680
1943.000000	0.191711
1944.000000	0.191911
1945.000000	0.192136
1946.000000	0.191812
1947.000000	0.191482
1948.000000	0.191251
1949.000000	0.191019
1950.000000	0.190949
1951.000000	0.190616
1952.000000	0.190277
1953.000000	0.189604
1954.000000	0.189306
1955.000000	0.188767
1956.000000	0.188524
1957.000000	0.188837
1958.000000	0.188509
1959.000000	0.188298
1960.000000	0.187904
1961.000000	0.187360
1962.000000	0.186893
1963.000000	0.186518
1964.000000	0.185953
1965.000000	0.185650
1966.000000	0.185564
1967.000000	0.185738
1968.000000	0.186449
1969.000000	0.187362
1970.000000	0.188329
1971.000000	0.189010
1972.000000	0.189301
1973.000000	0.189253
1974.000000	0.188284
1975.000000	0.188257
1976.000000	0.188443
1977.000000	0.188661
1978.000000	0.189508
1979.000000	0.190471
1980.000000	0.190634
1981.000000	0.191064
1982.000000	0.191457
1983.000000	0.192244
1984.000000	0.192880
1985.000000	0.193726
1986.000000	0.194435
1987.000000	0.195291
1988.000000	0.195450
1989.000000	0.196273
1990.000000	0.196736
1991.000000	0.196453
1992.000000	0.196901
1993.000000	0.197226
1994.000000	0.197613
1995.000000	0.198561
1996.000000	0.199328
1997.000000	0.199948
1998.000000	0.200228
1999.000000	0.200911
2000.000000	0.201654
2001.000000	0.202543
2002.000000	0.203922
2003.000000	0.204980
2004.000000	0.205862
2005.000000	0.206646
2006.000000	0.206708
2007.000000	0.207074
2008.000000	0.207469
2009.000000	0.207559
2010.000000	0.208166
2011.000000	0.208996
2012.000000	0.209863
2013.000000	0.210877
2014.000000	0.212198
2015.000000	0.213326
2016.000000	0.213968
2017.000000	0.214768
2018.000000	0.215370
2019.000000	0.216171
2020.000000	0.217351
2021.000000	0.218417
2022.000000	0.219654
2023.000000	0.220716
2024.000000	0.221900
2025.000000	0.222709
2026.000000	0.223127
2027.000000	0.223528
2028.000000	0.224078
2029.000000	0.224762
2030.000000	0.225593
2031.000000	0.226562
2032.000000	0.227520
2033.000000	0.228052
2034.000000	0.229118
2035.000000	0.230837
2036.000000	0.232020
2037.000000	0.233667
2038.000000	0.234693
2039.000000	0.235307
2040.000000	0.235734
2041.000000	0.236074
2042.000000	0.236229
2043.000000	0.236919
2044.000000	0.237601
2045.000000	0.238106
2046.000000	0.238735
2047.000000	0.239379
2048.000000	0.239855
2049.000000	0.240588
2050.000000	0.241190
2051.000000	0.241991
2052.000000	0.243046
2053.000000	0.243674
2054.000000	0.244619
2055.000000	0.245198
2056.000000	0.245056
2057.000000	0.245001
2058.000000	0.244691
2059.000000	0.244388
2060.000000	0.244589
2061.000000	0.245076
2062.000000	0.245642
2063.000000	0.246713
2064.000000	0.247439
2065.000000	0.248427
2066.000000	0.249094
2067.000000	0.249816
2068.000000	0.250495
2069.000000	0.251003
2070.000000	0.251783
2071.000000	0.251844
2072.000000	0.252275
2073.000000	0.252639
2074.000000	0.252451
2075.000000	0.253046
2076.000000	0.254264
2077.000000	0.254877
2078.000000	0.255574
2079.000000	0.256396
2080.000000	0.257053
2081.000000	0.257754
2082.000000	0.258893
2083.000000	0.259785
2084.000000	0.259503
2085.000000	0.259192
2086.000000	0.258664
2087.000000	0.257908
2088.000000	0.258349
2089.000000	0.259337
2090.000000	0.260415
2091.000000	0.262519
2092.000000	0.263771
2093.000000	0.264978
2094.000000	0.265803
2095.000000	0.266360
2096.000000	0.266673
2097.000000	0.266352
2098.000000	0.266124
2099.000000	0.266536
2100.000000	0.266981
2101.000000	0.267505
2102.000000	0.268329
2103.000000	0.268749
2104.000000	0.269307
2105.000000	0.269754
2106.000000	0.270471
2107.000000	0.270839
2108.000000	0.270602
2109.000000	0.270726
2110.000000	0.270739
2111.000000	0.270974
2112.000000	0.271014
2113.000000	0.271764
2114.000000	0.272535
2115.000000	0.273657
2116.000000	0.274609
2117.000000	0.274523
2118.000000	0.274675
2119.000000	0.274982
2120.000000	0.275138
2121.000000	0.275376
2122.000000	0.275782
2123.000000	0.275935
2124.000000	0.276259
2125.000000	0.277002
2126.000000	0.277458
2127.000000	0.277963
2128.000000	0.278259
2129.000000	0.278573
2130.000000	0.278133
2131.000000	0.277317
2132.000000	0.277518
2133.000000	0.278116
2134.000000	0.279422
2135.000000	0.280099
2136.000000	0.280074
2137.000000	0.280287
2138.000000	0.279699
2139.000000	0.279739
2140.000000	0.280616
2141.000000	0.280644
2142.000000	0.279864
2143.000000	0.279646
2144.000000	0.279678
2145.000000	0.279818
2146.000000	0.280709
2147.000000	0.281198
2148.000000	0.280991
2149.000000	0.280599
2150.000000	0.279819
2151.000000	0.279732
2152.000000	0.280433
2153.000000	0.281213
2154.000000	0.281760
2155.000000	0.282740
2156.000000	0.283092
2157.000000	0.283124
2158.000000	0.282951
2159.000000	0.282592
2160.000000	0.282305
2161.000000	0.281405
2162.000000	0.280855
2163.000000	0.280069
2164.000000	0.279927
2165.000000	0.279939
2166.000000	0.280855
2167.000000	0.281840
2168.000000	0.282696
2169.000000	0.283404
2170.000000	0.284150
2171.000000	0.284570
2172.000000	0.285346
2173.000000	0.284671
2174.000000	0.282238
2175.000000	0.281550
2176.000000	0.280848
2177.000000	0.280732
2178.000000	0.282381
2179.000000	0.283072
2180.000000	0.283291
2181.000000	0.283263
2182.000000	0.282271
2183.000000	0.281592
2184.000000	0.281524
2185.000000	0.281035
2186.000000	0.281547
2187.000000	0.282206
2188.000000	0.282294
2189.000000	0.282887
2190.000000	0.282348
2191.000000	0.282844
2192.000000	0.282379
2193.000000	0.280420
2194.000000	0.279383
2195.000000	0.278724
2196.000000	0.277910
2197.000000	0.276708
2198.000000	0.277060
2199.000000	0.278516
2200.000000	0.279640
2201.000000	0.283100
2202.000000	0.284286
2203.000000	0.283637
2204.000000	0.282812
2205.000000	0.281159
2206.000000	0.279947
2207.000000	0.280200
2208.000000	0.281507
2209.000000	0.282909
2210.000000	0.282268
2211.000000	0.281081
2212.000000	0.281177
2213.000000	0.280933
2214.000000	0.281290
2215.000000	0.280774
2216.000000	0.279805
2217.000000	0.278327
2218.000000	0.274853
2219.000000	0.273877
2220.000000	0.273682
2221.000000	0.274453
2222.000000	0.278600
2223.000000	0.280087
2224.000000	0.280399
2225.000000	0.281520
2226.000000	0.280047
2227.000000	0.276908
2228.000000	0.277457
2229.000000	0.276365
2230.000000	0.276367
2231.000000	0.278377
2232.000000	0.277280
2233.000000	0.278181
2234.000000	0.280855
2235.000000	0.279895
2236.000000	0.279377
2237.000000	0.278205
2238.000000	0.278111
2239.000000	0.277755
2240.000000	0.278294
2241.000000	0.280710
2242.000000	0.281205
2243.000000	0.280921
2244.000000	0.279851
2245.000000	0.277087
2246.000000	0.276168
2247.000000	0.274891
2248.000000	0.274412
2249.000000	0.275636
2250.000000	0.276657
2251.000000	0.276855
2252.000000	0.276778
2253.000000	0.277009
2254.000000	0.278805
2255.000000	0.279174
2256.000000	0.280139
2257.000000	0.281594
2258.000000	0.281232
2259.000000	0.283666
2260.000000	0.285232
2261.000000	0.284354
2262.000000	0.281936
2263.000000	0.280910
2264.000000	0.277368
2265.000000	0.277025
2266.000000	0.279680
2267.000000	0.280263
2268.000000	0.281096
2269.000000	0.280756
2270.000000	0.278732
2271.000000	0.278089
2272.000000	0.278797
2273.000000	0.277830
2274.000000	0.276731
2275.000000	0.275272
2276.000000	0.271822
2277.000000	0.268330
2278.000000	0.268792
2279.000000	0.269815
2280.000000	0.271165
2281.000000	0.271397
2282.000000	0.270252
2283.000000	0.268022
2284.000000	0.266141
2285.000000	0.266698
2286.000000	0.266069
2287.000000	0.263507
2288.000000	0.262515
2289.000000	0.260239
2290.000000	0.258873
2291.000000	0.260336
2292.000000	0.260393
2293.000000	0.260743
2294.000000	0.260103
2295.000000	0.258513
2296.000000	0.257165
2297.000000	0.254421
2298.000000	0.253305
2299.000000	0.253334
2300.000000	0.253041
2301.000000	0.254441
2302.000000	0.253976
2303.000000	0.251401
2304.000000	0.250240
2305.000000	0.248905
2306.000000	0.248030
2307.000000	0.248226
2308.000000	0.248377
2309.000000	0.247695
2310.000000	0.243136
2311.000000	0.238341
2312.000000	0.235820
2313.000000	0.232450
2314.000000	0.231681
2315.000000	0.232131
2316.000000	0.231357
2317.000000	0.232573
2318.000000	0.233468
2319.000000	0.232930
2320.000000	0.235292
2321.000000	0.238669
2322.000000	0.240930
2323.000000	0.245124
2324.000000	0.246581
2325.000000	0.244561
2326.000000	0.243950
2327.000000	0.241035
2328.000000	0.237195
2329.000000	0.236186
2330.000000	0.235161
2331.000000	0.234380
2332.000000	0.236394
2333.000000	0.237695
2334.000000	0.236227
2335.000000	0.236448
2336.000000	0.237953
2337.000000	0.237281
2338.000000	0.236075
2339.000000	0.234409
2340.000000	0.230996
2341.000000	0.228994
2342.000000	0.226472
2343.000000	0.225765
2344.000000	0.225976
2345.000000	0.226362
2346.000000	0.229275
2347.000000	0.229412
2348.000000	0.228231
2349.000000	0.228371
2350.000000	0.227500
2351.000000	0.225466
2352.000000	0.226695
2353.000000	0.227978
2354.000000	0.224419
2355.000000	0.225417
2356.000000	0.225517
2357.000000	0.223048
2358.000000	0.224613
2359.000000	0.223544
2360.000000	0.221631
2361.000000	0.221179
2362.000000	0.219363
2363.000000	0.216363
2364.000000	0.212410
2365.000000	0.208299
2366.000000	0.202874
2367.000000	0.200832
2368.000000	0.201980
2369.000000	0.200188
2370.000000	0.200312
2371.000000	0.200422
2372.000000	0.198644
2373.000000	0.199064
2374.000000	0.196652
2375.000000	0.194006
2376.000000	0.193567
2377.000000	0.191959
2378.000000	0.192049
2379.000000	0.191668
2380.000000	0.187519
2381.000000	0.185011
2382.000000	0.186273
2383.000000	0.187842
2384.000000	0.190604
2385.000000	0.192399
2386.000000	0.193740
2387.000000	0.194641
2388.000000	0.195008
2389.000000	0.198362
2390.000000	0.198321
2391.000000	0.194262
2392.000000	0.189274
2393.000000	0.184994
2394.000000	0.183085
2395.000000	0.187023
2396.000000	0.192196
2397.000000	0.192995
2398.000000	0.194881
2399.000000	0.193746
2400.000000	0.195661
2401.000000	0.202953
2402.000000	0.206358
2403.000000	0.207349
2404.000000	0.205404
2405.000000	0.200437
2406.000000	0.196586
2407.000000	0.198085
2408.000000	0.201021
2409.000000	0.200443
2410.000000	0.200714
2411.000000	0.195269
2412.000000	0.185722
2413.000000	0.179062
2414.000000	0.170979
2415.000000	0.167972
2416.000000	0.166834
2417.000000	0.167966
2418.000000	0.172656
2419.000000	0.169163
2420.000000	0.164196
2421.000000	0.161812
2422.000000	0.162491
2423.000000	0.156293
2424.000000	0.149974
2425.000000	0.158465
2426.000000	0.158625
2427.000000	0.162838
2428.000000	0.175545
2429.000000	0.175285
2430.000000	0.171274
2431.000000	0.162591
2432.000000	0.154185
2433.000000	0.155248
2434.000000	0.154166
2435.000000	0.160268
2436.000000	0.172037
2437.000000	0.166349
2438.000000	0.162793
2439.000000	0.154264
2440.000000	0.139181
2441.000000	0.142333
2442.000000	0.136416
2443.000000	0.136102
2444.000000	0.149990
2445.000000	0.154023
2446.000000	0.160791
2447.000000	0.164524
2448.000000	0.173091
2449.000000	0.181486
2450.000000	0.180397
2451.000000	0.178767
2452.000000	0.157363
2453.000000	0.137388
2454.000000	0.128783
2455.000000	0.118537
2456.000000	0.129564
2457.000000	0.143016
2458.000000	0.145097
2459.000000	0.152364
2460.000000	0.142969
2461.000000	0.124748
2462.000000	0.120825
2463.000000	0.127893
2464.000000	0.142919
2465.000000	0.155612
2466.000000	0.163569
2467.000000	0.170046
2468.000000	0.179704
2469.000000	0.179151
2470.000000	0.166640
2471.000000	0.135178
2472.000000	0.103964
2473.000000	0.095073
2474.000000	0.081808
2475.000000	0.086861
2476.000000	0.099442
2477.000000	0.095415
2478.000000	0.110693
2479.000000	0.128068
2480.000000	0.118908
2481.000000	0.107419
2482.000000	0.113540
2483.000000	0.139671
2484.000000	0.145441
2485.000000	0.137186
2486.000000	0.119724
2487.000000	0.073631
2488.000000	0.057845
2489.000000	0.045500
2490.000000	0.031918
2491.000000	0.052512
2492.000000	0.074523
2493.000000	0.176154
2494.000000	0.216000
2495.000000	0.178414
2496.000000	0.149352
2497.000000	0.078062
2498.000000	0.060173
2499.000000	0.093225
2500.000000	0.092379
