# Wavelength	SM1200H-90_FV7-10_00000.asd.rts.txt
350.000000	0.451355
351.000000	0.457590
352.000000	0.459749
353.000000	0.456199
354.000000	0.453549
355.000000	0.458805
356.000000	0.460899
357.000000	0.461261
358.000000	0.461945
359.000000	0.460329
360.000000	0.458406
361.000000	0.458152
362.000000	0.459859
363.000000	0.462078
364.000000	0.463304
365.000000	0.466773
366.000000	0.467343
367.000000	0.464543
368.000000	0.462997
369.000000	0.463082
370.000000	0.464710
371.000000	0.467132
372.000000	0.467180
373.000000	0.468306
374.000000	0.472446
375.000000	0.471805
376.000000	0.471764
377.000000	0.473396
378.000000	0.474431
379.000000	0.474837
380.000000	0.475588
381.000000	0.478964
382.000000	0.478595
383.000000	0.476980
384.000000	0.477167
385.000000	0.478994
386.000000	0.481133
387.000000	0.483050
388.000000	0.484336
389.000000	0.483582
390.000000	0.482879
391.000000	0.484609
392.000000	0.485755
393.000000	0.485903
394.000000	0.485437
395.000000	0.485837
396.000000	0.486980
397.000000	0.488257
398.000000	0.488637
399.000000	0.488698
400.000000	0.489005
401.000000	0.489816
402.000000	0.489877
403.000000	0.490170
404.000000	0.491585
405.000000	0.491473
406.000000	0.491376
407.000000	0.492116
408.000000	0.493014
409.000000	0.493311
410.000000	0.493319
411.000000	0.493923
412.000000	0.494447
413.000000	0.494765
414.000000	0.494970
415.000000	0.495338
416.000000	0.495963
417.000000	0.496761
418.000000	0.497348
419.000000	0.497468
420.000000	0.497510
421.000000	0.498471
422.000000	0.498766
423.000000	0.498699
424.000000	0.499238
425.000000	0.499842
426.000000	0.500312
427.000000	0.500588
428.000000	0.501008
429.000000	0.501649
430.000000	0.502384
431.000000	0.502727
432.000000	0.503222
433.000000	0.503779
434.000000	0.504246
435.000000	0.504610
436.000000	0.504887
437.000000	0.505107
438.000000	0.505585
439.000000	0.505955
440.000000	0.506265
441.000000	0.506765
442.000000	0.507136
443.000000	0.507270
444.000000	0.507536
445.000000	0.507996
446.000000	0.508594
447.000000	0.508903
448.000000	0.509301
449.000000	0.509688
450.000000	0.510032
451.000000	0.510543
452.000000	0.510955
453.000000	0.511144
454.000000	0.511604
455.000000	0.511928
456.000000	0.512319
457.000000	0.512820
458.000000	0.513089
459.000000	0.513377
460.000000	0.513949
461.000000	0.514129
462.000000	0.514398
463.000000	0.514660
464.000000	0.514762
465.000000	0.515058
466.000000	0.515401
467.000000	0.515596
468.000000	0.515993
469.000000	0.516259
470.000000	0.516328
471.000000	0.516556
472.000000	0.516726
473.000000	0.516806
474.000000	0.517188
475.000000	0.517352
476.000000	0.517483
477.000000	0.517834
478.000000	0.517938
479.000000	0.518201
480.000000	0.518631
481.000000	0.518797
482.000000	0.519091
483.000000	0.519445
484.000000	0.519830
485.000000	0.519996
486.000000	0.520209
487.000000	0.520490
488.000000	0.520790
489.000000	0.521102
490.000000	0.521396
491.000000	0.521728
492.000000	0.522145
493.000000	0.522418
494.000000	0.522694
495.000000	0.523037
496.000000	0.523395
497.000000	0.523797
498.000000	0.524148
499.000000	0.524532
500.000000	0.524862
501.000000	0.525161
502.000000	0.525533
503.000000	0.525937
504.000000	0.526354
505.000000	0.526717
506.000000	0.526992
507.000000	0.527235
508.000000	0.527625
509.000000	0.528106
510.000000	0.528416
511.000000	0.528723
512.000000	0.529114
513.000000	0.529517
514.000000	0.529822
515.000000	0.530138
516.000000	0.530499
517.000000	0.530883
518.000000	0.531322
519.000000	0.531673
520.000000	0.532017
521.000000	0.532332
522.000000	0.532632
523.000000	0.532955
524.000000	0.533318
525.000000	0.533657
526.000000	0.533954
527.000000	0.534235
528.000000	0.534514
529.000000	0.534884
530.000000	0.535152
531.000000	0.535472
532.000000	0.535774
533.000000	0.536049
534.000000	0.536395
535.000000	0.536781
536.000000	0.537128
537.000000	0.537478
538.000000	0.537803
539.000000	0.538040
540.000000	0.538374
541.000000	0.538713
542.000000	0.539023
543.000000	0.539330
544.000000	0.539706
545.000000	0.540033
546.000000	0.540300
547.000000	0.540606
548.000000	0.541001
549.000000	0.541321
550.000000	0.541664
551.000000	0.542022
552.000000	0.542274
553.000000	0.542546
554.000000	0.542877
555.000000	0.543272
556.000000	0.543643
557.000000	0.543916
558.000000	0.544284
559.000000	0.544560
560.000000	0.544809
561.000000	0.545175
562.000000	0.545540
563.000000	0.545795
564.000000	0.546096
565.000000	0.546404
566.000000	0.546748
567.000000	0.547104
568.000000	0.547420
569.000000	0.547754
570.000000	0.548081
571.000000	0.548374
572.000000	0.548641
573.000000	0.548901
574.000000	0.549128
575.000000	0.549396
576.000000	0.549685
577.000000	0.549980
578.000000	0.550365
579.000000	0.550667
580.000000	0.550996
581.000000	0.551363
582.000000	0.551617
583.000000	0.551837
584.000000	0.552069
585.000000	0.552355
586.000000	0.552607
587.000000	0.552822
588.000000	0.553031
589.000000	0.553332
590.000000	0.553593
591.000000	0.553753
592.000000	0.553939
593.000000	0.554169
594.000000	0.554428
595.000000	0.554683
596.000000	0.554898
597.000000	0.555161
598.000000	0.555411
599.000000	0.555598
600.000000	0.555829
601.000000	0.556039
602.000000	0.556181
603.000000	0.556338
604.000000	0.556552
605.000000	0.556715
606.000000	0.556897
607.000000	0.557104
608.000000	0.557305
609.000000	0.557457
610.000000	0.557594
611.000000	0.557747
612.000000	0.557808
613.000000	0.557935
614.000000	0.558239
615.000000	0.558367
616.000000	0.558436
617.000000	0.558460
618.000000	0.558548
619.000000	0.558686
620.000000	0.558791
621.000000	0.558871
622.000000	0.558953
623.000000	0.559031
624.000000	0.559090
625.000000	0.559130
626.000000	0.559139
627.000000	0.559134
628.000000	0.559165
629.000000	0.559304
630.000000	0.559340
631.000000	0.559440
632.000000	0.559505
633.000000	0.559599
634.000000	0.559752
635.000000	0.559840
636.000000	0.559956
637.000000	0.560123
638.000000	0.560341
639.000000	0.560544
640.000000	0.560790
641.000000	0.560930
642.000000	0.561112
643.000000	0.561325
644.000000	0.561514
645.000000	0.561616
646.000000	0.561713
647.000000	0.561814
648.000000	0.561885
649.000000	0.561990
650.000000	0.562104
651.000000	0.562193
652.000000	0.562268
653.000000	0.562393
654.000000	0.562494
655.000000	0.562610
656.000000	0.562740
657.000000	0.562796
658.000000	0.562949
659.000000	0.563103
660.000000	0.563183
661.000000	0.563272
662.000000	0.563289
663.000000	0.563337
664.000000	0.563434
665.000000	0.563575
666.000000	0.563726
667.000000	0.563808
668.000000	0.563939
669.000000	0.564062
670.000000	0.564153
671.000000	0.564240
672.000000	0.564340
673.000000	0.564443
674.000000	0.564561
675.000000	0.564614
676.000000	0.564664
677.000000	0.564825
678.000000	0.564936
679.000000	0.565024
680.000000	0.565133
681.000000	0.565215
682.000000	0.565348
683.000000	0.565435
684.000000	0.565635
685.000000	0.565798
686.000000	0.565970
687.000000	0.566147
688.000000	0.566280
689.000000	0.566393
690.000000	0.566561
691.000000	0.566698
692.000000	0.566770
693.000000	0.566887
694.000000	0.567003
695.000000	0.567096
696.000000	0.567180
697.000000	0.567284
698.000000	0.567336
699.000000	0.567399
700.000000	0.567535
701.000000	0.567667
702.000000	0.567812
703.000000	0.567910
704.000000	0.567879
705.000000	0.567904
706.000000	0.567922
707.000000	0.567946
708.000000	0.568067
709.000000	0.568210
710.000000	0.568339
711.000000	0.568513
712.000000	0.568707
713.000000	0.568897
714.000000	0.568944
715.000000	0.568951
716.000000	0.568992
717.000000	0.569078
718.000000	0.569144
719.000000	0.569191
720.000000	0.569259
721.000000	0.569373
722.000000	0.569476
723.000000	0.569628
724.000000	0.569704
725.000000	0.569703
726.000000	0.569764
727.000000	0.569777
728.000000	0.569826
729.000000	0.569907
730.000000	0.569922
731.000000	0.570004
732.000000	0.570055
733.000000	0.570091
734.000000	0.570049
735.000000	0.570010
736.000000	0.570131
737.000000	0.570137
738.000000	0.570145
739.000000	0.570291
740.000000	0.570342
741.000000	0.570397
742.000000	0.570478
743.000000	0.570538
744.000000	0.570608
745.000000	0.570628
746.000000	0.570685
747.000000	0.570721
748.000000	0.570763
749.000000	0.570861
750.000000	0.570958
751.000000	0.570959
752.000000	0.570971
753.000000	0.571049
754.000000	0.571155
755.000000	0.571298
756.000000	0.571453
757.000000	0.571512
758.000000	0.571562
759.000000	0.571637
760.000000	0.571635
761.000000	0.571684
762.000000	0.571742
763.000000	0.571787
764.000000	0.571948
765.000000	0.572070
766.000000	0.572132
767.000000	0.572130
768.000000	0.572067
769.000000	0.571984
770.000000	0.571925
771.000000	0.571920
772.000000	0.572035
773.000000	0.572132
774.000000	0.572235
775.000000	0.572317
776.000000	0.572345
777.000000	0.572289
778.000000	0.572271
779.000000	0.572272
780.000000	0.572279
781.000000	0.572242
782.000000	0.572165
783.000000	0.572246
784.000000	0.572357
785.000000	0.572468
786.000000	0.572545
787.000000	0.572576
788.000000	0.572604
789.000000	0.572618
790.000000	0.572584
791.000000	0.572546
792.000000	0.572484
793.000000	0.572454
794.000000	0.572498
795.000000	0.572531
796.000000	0.572524
797.000000	0.572464
798.000000	0.572375
799.000000	0.572375
800.000000	0.572443
801.000000	0.572508
802.000000	0.572484
803.000000	0.572439
804.000000	0.572456
805.000000	0.572401
806.000000	0.572236
807.000000	0.572146
808.000000	0.572139
809.000000	0.572203
810.000000	0.572280
811.000000	0.572308
812.000000	0.572344
813.000000	0.572323
814.000000	0.572264
815.000000	0.572306
816.000000	0.572276
817.000000	0.572236
818.000000	0.572131
819.000000	0.572053
820.000000	0.572051
821.000000	0.572060
822.000000	0.572141
823.000000	0.572245
824.000000	0.572278
825.000000	0.572357
826.000000	0.572400
827.000000	0.572338
828.000000	0.572238
829.000000	0.572167
830.000000	0.572005
831.000000	0.571859
832.000000	0.571654
833.000000	0.571661
834.000000	0.571795
835.000000	0.571957
836.000000	0.571934
837.000000	0.571828
838.000000	0.571721
839.000000	0.571598
840.000000	0.571432
841.000000	0.571308
842.000000	0.571224
843.000000	0.571157
844.000000	0.571153
845.000000	0.571161
846.000000	0.571167
847.000000	0.571204
848.000000	0.571174
849.000000	0.571052
850.000000	0.570921
851.000000	0.570780
852.000000	0.570718
853.000000	0.570742
854.000000	0.570619
855.000000	0.570554
856.000000	0.570501
857.000000	0.570326
858.000000	0.570307
859.000000	0.570357
860.000000	0.570214
861.000000	0.570060
862.000000	0.569945
863.000000	0.569749
864.000000	0.569653
865.000000	0.569657
866.000000	0.569729
867.000000	0.569662
868.000000	0.569626
869.000000	0.569500
870.000000	0.569297
871.000000	0.569136
872.000000	0.569045
873.000000	0.568930
874.000000	0.568905
875.000000	0.568731
876.000000	0.568502
877.000000	0.568315
878.000000	0.568131
879.000000	0.568074
880.000000	0.567921
881.000000	0.567687
882.000000	0.567386
883.000000	0.567171
884.000000	0.567101
885.000000	0.567103
886.000000	0.567045
887.000000	0.566912
888.000000	0.566725
889.000000	0.566632
890.000000	0.566380
891.000000	0.566039
892.000000	0.565835
893.000000	0.565674
894.000000	0.565655
895.000000	0.565500
896.000000	0.565341
897.000000	0.565204
898.000000	0.565067
899.000000	0.564819
900.000000	0.564556
901.000000	0.564323
902.000000	0.564333
903.000000	0.564223
904.000000	0.564081
905.000000	0.563892
906.000000	0.563702
907.000000	0.563504
908.000000	0.563377
909.000000	0.563164
910.000000	0.562958
911.000000	0.562785
912.000000	0.562679
913.000000	0.562653
914.000000	0.562435
915.000000	0.562144
916.000000	0.561897
917.000000	0.561716
918.000000	0.561598
919.000000	0.561492
920.000000	0.561414
921.000000	0.561202
922.000000	0.560913
923.000000	0.560658
924.000000	0.560425
925.000000	0.560206
926.000000	0.559985
927.000000	0.559507
928.000000	0.559245
929.000000	0.559085
930.000000	0.558789
931.000000	0.558647
932.000000	0.558502
933.000000	0.558320
934.000000	0.558025
935.000000	0.557638
936.000000	0.557335
937.000000	0.557043
938.000000	0.556646
939.000000	0.556415
940.000000	0.556139
941.000000	0.555635
942.000000	0.554923
943.000000	0.554292
944.000000	0.553672
945.000000	0.553073
946.000000	0.552441
947.000000	0.551999
948.000000	0.551842
949.000000	0.551770
950.000000	0.551875
951.000000	0.552009
952.000000	0.552024
953.000000	0.551958
954.000000	0.551881
955.000000	0.551705
956.000000	0.551429
957.000000	0.551377
958.000000	0.551331
959.000000	0.551128
960.000000	0.550932
961.000000	0.550783
962.000000	0.550593
963.000000	0.550268
964.000000	0.550190
965.000000	0.550170
966.000000	0.549822
967.000000	0.549566
968.000000	0.549312
969.000000	0.549047
970.000000	0.548988
971.000000	0.548899
972.000000	0.548827
973.000000	0.548657
974.000000	0.548407
975.000000	0.548182
976.000000	0.548048
977.000000	0.548002
978.000000	0.547940
979.000000	0.548042
980.000000	0.547860
981.000000	0.547633
982.000000	0.547441
983.000000	0.547206
984.000000	0.547052
985.000000	0.547021
986.000000	0.546862
987.000000	0.546731
988.000000	0.546505
989.000000	0.546021
990.000000	0.545718
991.000000	0.545590
992.000000	0.545583
993.000000	0.545793
994.000000	0.545678
995.000000	0.545490
996.000000	0.545350
997.000000	0.545445
998.000000	0.545500
999.000000	0.545502
1000.000000	0.545430
1001.000000	0.545983
1002.000000	0.545487
1003.000000	0.544962
1004.000000	0.544874
1005.000000	0.544635
1006.000000	0.544221
1007.000000	0.544270
1008.000000	0.544420
1009.000000	0.543528
1010.000000	0.543034
1011.000000	0.543309
1012.000000	0.543586
1013.000000	0.543680
1014.000000	0.543678
1015.000000	0.543495
1016.000000	0.543335
1017.000000	0.543066
1018.000000	0.543069
1019.000000	0.543097
1020.000000	0.543459
1021.000000	0.542980
1022.000000	0.542386
1023.000000	0.542546
1024.000000	0.542385
1025.000000	0.542812
1026.000000	0.543398
1027.000000	0.543632
1028.000000	0.543487
1029.000000	0.543165
1030.000000	0.543095
1031.000000	0.543044
1032.000000	0.542995
1033.000000	0.542977
1034.000000	0.542917
1035.000000	0.542744
1036.000000	0.542748
1037.000000	0.542906
1038.000000	0.542746
1039.000000	0.542640
1040.000000	0.542800
1041.000000	0.542501
1042.000000	0.542381
1043.000000	0.542640
1044.000000	0.542668
1045.000000	0.542803
1046.000000	0.543031
1047.000000	0.543322
1048.000000	0.543639
1049.000000	0.543731
1050.000000	0.543874
1051.000000	0.543866
1052.000000	0.543366
1053.000000	0.543247
1054.000000	0.543625
1055.000000	0.543943
1056.000000	0.544490
1057.000000	0.544969
1058.000000	0.545209
1059.000000	0.544955
1060.000000	0.544911
1061.000000	0.545115
1062.000000	0.544985
1063.000000	0.545036
1064.000000	0.545272
1065.000000	0.545430
1066.000000	0.545661
1067.000000	0.546269
1068.000000	0.546482
1069.000000	0.546187
1070.000000	0.546238
1071.000000	0.546500
1072.000000	0.546689
1073.000000	0.546922
1074.000000	0.547564
1075.000000	0.547894
1076.000000	0.547833
1077.000000	0.547867
1078.000000	0.547791
1079.000000	0.547897
1080.000000	0.548215
1081.000000	0.548314
1082.000000	0.548650
1083.000000	0.548690
1084.000000	0.548373
1085.000000	0.548454
1086.000000	0.548572
1087.000000	0.548756
1088.000000	0.549003
1089.000000	0.549218
1090.000000	0.549365
1091.000000	0.549501
1092.000000	0.549706
1093.000000	0.550185
1094.000000	0.550368
1095.000000	0.550277
1096.000000	0.550518
1097.000000	0.550917
1098.000000	0.551037
1099.000000	0.551017
1100.000000	0.551221
1101.000000	0.551143
1102.000000	0.551285
1103.000000	0.551803
1104.000000	0.552114
1105.000000	0.552368
1106.000000	0.552507
1107.000000	0.552364
1108.000000	0.552378
1109.000000	0.552501
1110.000000	0.552561
1111.000000	0.552678
1112.000000	0.552925
1113.000000	0.553155
1114.000000	0.553406
1115.000000	0.553559
1116.000000	0.553861
1117.000000	0.553868
1118.000000	0.553433
1119.000000	0.553337
1120.000000	0.553310
1121.000000	0.553280
1122.000000	0.553602
1123.000000	0.554066
1124.000000	0.554164
1125.000000	0.554316
1126.000000	0.554460
1127.000000	0.554465
1128.000000	0.554379
1129.000000	0.554196
1130.000000	0.554166
1131.000000	0.554174
1132.000000	0.554086
1133.000000	0.554118
1134.000000	0.554130
1135.000000	0.554005
1136.000000	0.553864
1137.000000	0.553720
1138.000000	0.553536
1139.000000	0.553430
1140.000000	0.553406
1141.000000	0.553313
1142.000000	0.553287
1143.000000	0.553232
1144.000000	0.553283
1145.000000	0.553067
1146.000000	0.552851
1147.000000	0.552678
1148.000000	0.552247
1149.000000	0.552095
1150.000000	0.552158
1151.000000	0.552128
1152.000000	0.551957
1153.000000	0.552003
1154.000000	0.552106
1155.000000	0.552129
1156.000000	0.552288
1157.000000	0.552356
1158.000000	0.552172
1159.000000	0.552118
1160.000000	0.552055
1161.000000	0.552065
1162.000000	0.552255
1163.000000	0.552627
1164.000000	0.552761
1165.000000	0.552874
1166.000000	0.553032
1167.000000	0.553025
1168.000000	0.553080
1169.000000	0.553308
1170.000000	0.553402
1171.000000	0.553478
1172.000000	0.553589
1173.000000	0.553619
1174.000000	0.553649
1175.000000	0.553598
1176.000000	0.553579
1177.000000	0.553694
1178.000000	0.553783
1179.000000	0.553951
1180.000000	0.553923
1181.000000	0.553910
1182.000000	0.553907
1183.000000	0.553932
1184.000000	0.553977
1185.000000	0.553970
1186.000000	0.553928
1187.000000	0.553961
1188.000000	0.553988
1189.000000	0.553970
1190.000000	0.554128
1191.000000	0.554176
1192.000000	0.554237
1193.000000	0.554505
1194.000000	0.554655
1195.000000	0.554824
1196.000000	0.555055
1197.000000	0.555146
1198.000000	0.555162
1199.000000	0.555199
1200.000000	0.555156
1201.000000	0.555096
1202.000000	0.555062
1203.000000	0.555056
1204.000000	0.555003
1205.000000	0.554993
1206.000000	0.554901
1207.000000	0.554957
1208.000000	0.554877
1209.000000	0.554780
1210.000000	0.554760
1211.000000	0.554755
1212.000000	0.554727
1213.000000	0.554840
1214.000000	0.554911
1215.000000	0.554888
1216.000000	0.554910
1217.000000	0.554933
1218.000000	0.554872
1219.000000	0.554808
1220.000000	0.554801
1221.000000	0.554762
1222.000000	0.554706
1223.000000	0.554731
1224.000000	0.554784
1225.000000	0.554667
1226.000000	0.554654
1227.000000	0.554646
1228.000000	0.554615
1229.000000	0.554587
1230.000000	0.554637
1231.000000	0.554505
1232.000000	0.554471
1233.000000	0.554546
1234.000000	0.554548
1235.000000	0.554541
1236.000000	0.554419
1237.000000	0.554450
1238.000000	0.554471
1239.000000	0.554431
1240.000000	0.554414
1241.000000	0.554401
1242.000000	0.554329
1243.000000	0.554271
1244.000000	0.554319
1245.000000	0.554411
1246.000000	0.554292
1247.000000	0.554349
1248.000000	0.554515
1249.000000	0.554540
1250.000000	0.554589
1251.000000	0.554629
1252.000000	0.554619
1253.000000	0.554604
1254.000000	0.554514
1255.000000	0.554357
1256.000000	0.554260
1257.000000	0.554128
1258.000000	0.554090
1259.000000	0.554052
1260.000000	0.554056
1261.000000	0.553953
1262.000000	0.553896
1263.000000	0.553927
1264.000000	0.553907
1265.000000	0.553934
1266.000000	0.553840
1267.000000	0.553664
1268.000000	0.553565
1269.000000	0.553417
1270.000000	0.553374
1271.000000	0.553283
1272.000000	0.553283
1273.000000	0.553344
1274.000000	0.553268
1275.000000	0.553220
1276.000000	0.553244
1277.000000	0.553351
1278.000000	0.553316
1279.000000	0.553316
1280.000000	0.553303
1281.000000	0.553210
1282.000000	0.553116
1283.000000	0.553176
1284.000000	0.553158
1285.000000	0.553214
1286.000000	0.553343
1287.000000	0.553363
1288.000000	0.553389
1289.000000	0.553334
1290.000000	0.553124
1291.000000	0.552970
1292.000000	0.552931
1293.000000	0.552898
1294.000000	0.552804
1295.000000	0.552707
1296.000000	0.552495
1297.000000	0.552277
1298.000000	0.552307
1299.000000	0.552313
1300.000000	0.552341
1301.000000	0.552395
1302.000000	0.552256
1303.000000	0.552131
1304.000000	0.551943
1305.000000	0.551814
1306.000000	0.551635
1307.000000	0.551518
1308.000000	0.551368
1309.000000	0.551195
1310.000000	0.551011
1311.000000	0.550826
1312.000000	0.550562
1313.000000	0.550425
1314.000000	0.550226
1315.000000	0.549934
1316.000000	0.549776
1317.000000	0.549594
1318.000000	0.549423
1319.000000	0.549254
1320.000000	0.549059
1321.000000	0.548766
1322.000000	0.548439
1323.000000	0.548258
1324.000000	0.548135
1325.000000	0.547985
1326.000000	0.547818
1327.000000	0.547541
1328.000000	0.547346
1329.000000	0.547012
1330.000000	0.546614
1331.000000	0.546249
1332.000000	0.545955
1333.000000	0.545591
1334.000000	0.545273
1335.000000	0.545077
1336.000000	0.544872
1337.000000	0.544616
1338.000000	0.544351
1339.000000	0.544043
1340.000000	0.543630
1341.000000	0.543377
1342.000000	0.543151
1343.000000	0.542891
1344.000000	0.542717
1345.000000	0.542428
1346.000000	0.542183
1347.000000	0.541888
1348.000000	0.541591
1349.000000	0.541271
1350.000000	0.541100
1351.000000	0.540826
1352.000000	0.540391
1353.000000	0.539969
1354.000000	0.539634
1355.000000	0.539243
1356.000000	0.539029
1357.000000	0.538812
1358.000000	0.538424
1359.000000	0.538027
1360.000000	0.537648
1361.000000	0.537335
1362.000000	0.536883
1363.000000	0.536379
1364.000000	0.535894
1365.000000	0.535285
1366.000000	0.534700
1367.000000	0.534170
1368.000000	0.533472
1369.000000	0.532798
1370.000000	0.531804
1371.000000	0.530543
1372.000000	0.529123
1373.000000	0.527435
1374.000000	0.525582
1375.000000	0.523464
1376.000000	0.521005
1377.000000	0.517986
1378.000000	0.514180
1379.000000	0.509717
1380.000000	0.504556
1381.000000	0.498522
1382.000000	0.492033
1383.000000	0.485118
1384.000000	0.477764
1385.000000	0.470646
1386.000000	0.464036
1387.000000	0.458074
1388.000000	0.453081
1389.000000	0.449257
1390.000000	0.446652
1391.000000	0.445208
1392.000000	0.444833
1393.000000	0.445065
1394.000000	0.446628
1395.000000	0.447910
1396.000000	0.449916
1397.000000	0.451211
1398.000000	0.452483
1399.000000	0.453162
1400.000000	0.453450
1401.000000	0.453285
1402.000000	0.452782
1403.000000	0.451828
1404.000000	0.450630
1405.000000	0.449368
1406.000000	0.448104
1407.000000	0.446953
1408.000000	0.445830
1409.000000	0.444915
1410.000000	0.444246
1411.000000	0.443666
1412.000000	0.443296
1413.000000	0.443166
1414.000000	0.443173
1415.000000	0.443322
1416.000000	0.443558
1417.000000	0.443970
1418.000000	0.444411
1419.000000	0.445026
1420.000000	0.445764
1421.000000	0.446633
1422.000000	0.447598
1423.000000	0.448653
1424.000000	0.449608
1425.000000	0.450668
1426.000000	0.451678
1427.000000	0.452703
1428.000000	0.453771
1429.000000	0.454738
1430.000000	0.455763
1431.000000	0.456851
1432.000000	0.457855
1433.000000	0.458936
1434.000000	0.459926
1435.000000	0.460979
1436.000000	0.461930
1437.000000	0.462828
1438.000000	0.463622
1439.000000	0.464392
1440.000000	0.465058
1441.000000	0.465677
1442.000000	0.466287
1443.000000	0.466753
1444.000000	0.467154
1445.000000	0.467527
1446.000000	0.467844
1447.000000	0.468166
1448.000000	0.468461
1449.000000	0.468735
1450.000000	0.468974
1451.000000	0.469151
1452.000000	0.469233
1453.000000	0.469365
1454.000000	0.469452
1455.000000	0.469454
1456.000000	0.469630
1457.000000	0.469829
1458.000000	0.469970
1459.000000	0.470231
1460.000000	0.470495
1461.000000	0.470709
1462.000000	0.471026
1463.000000	0.471336
1464.000000	0.471706
1465.000000	0.472269
1466.000000	0.472853
1467.000000	0.473538
1468.000000	0.474311
1469.000000	0.475128
1470.000000	0.475894
1471.000000	0.476765
1472.000000	0.477636
1473.000000	0.478539
1474.000000	0.479384
1475.000000	0.480227
1476.000000	0.481098
1477.000000	0.481948
1478.000000	0.482810
1479.000000	0.483625
1480.000000	0.484356
1481.000000	0.485115
1482.000000	0.485992
1483.000000	0.486822
1484.000000	0.487643
1485.000000	0.488407
1486.000000	0.489068
1487.000000	0.489760
1488.000000	0.490469
1489.000000	0.491211
1490.000000	0.491822
1491.000000	0.492477
1492.000000	0.493059
1493.000000	0.493687
1494.000000	0.494274
1495.000000	0.494802
1496.000000	0.495300
1497.000000	0.495812
1498.000000	0.496316
1499.000000	0.496822
1500.000000	0.497379
1501.000000	0.497966
1502.000000	0.498491
1503.000000	0.499089
1504.000000	0.499745
1505.000000	0.500338
1506.000000	0.500972
1507.000000	0.501558
1508.000000	0.502127
1509.000000	0.502654
1510.000000	0.503106
1511.000000	0.503602
1512.000000	0.504013
1513.000000	0.504378
1514.000000	0.504818
1515.000000	0.505176
1516.000000	0.505588
1517.000000	0.506001
1518.000000	0.506385
1519.000000	0.506714
1520.000000	0.507041
1521.000000	0.507289
1522.000000	0.507661
1523.000000	0.508145
1524.000000	0.508450
1525.000000	0.508802
1526.000000	0.509073
1527.000000	0.509255
1528.000000	0.509608
1529.000000	0.509947
1530.000000	0.510178
1531.000000	0.510582
1532.000000	0.510989
1533.000000	0.511271
1534.000000	0.511616
1535.000000	0.511981
1536.000000	0.512268
1537.000000	0.512790
1538.000000	0.513320
1539.000000	0.513652
1540.000000	0.514023
1541.000000	0.514388
1542.000000	0.514703
1543.000000	0.515060
1544.000000	0.515414
1545.000000	0.515756
1546.000000	0.516096
1547.000000	0.516516
1548.000000	0.516952
1549.000000	0.517328
1550.000000	0.517607
1551.000000	0.517779
1552.000000	0.517973
1553.000000	0.518151
1554.000000	0.518309
1555.000000	0.518551
1556.000000	0.518770
1557.000000	0.518908
1558.000000	0.519158
1559.000000	0.519457
1560.000000	0.519621
1561.000000	0.519801
1562.000000	0.519938
1563.000000	0.520037
1564.000000	0.520185
1565.000000	0.520385
1566.000000	0.520424
1567.000000	0.520563
1568.000000	0.520636
1569.000000	0.520725
1570.000000	0.520809
1571.000000	0.520848
1572.000000	0.520906
1573.000000	0.520979
1574.000000	0.521061
1575.000000	0.521179
1576.000000	0.521318
1577.000000	0.521442
1578.000000	0.521546
1579.000000	0.521802
1580.000000	0.521905
1581.000000	0.522027
1582.000000	0.522154
1583.000000	0.522177
1584.000000	0.522219
1585.000000	0.522460
1586.000000	0.522584
1587.000000	0.522617
1588.000000	0.522720
1589.000000	0.522837
1590.000000	0.522967
1591.000000	0.523184
1592.000000	0.523373
1593.000000	0.523637
1594.000000	0.523758
1595.000000	0.523887
1596.000000	0.524023
1597.000000	0.524116
1598.000000	0.524197
1599.000000	0.524374
1600.000000	0.524430
1601.000000	0.524521
1602.000000	0.524593
1603.000000	0.524685
1604.000000	0.524726
1605.000000	0.524775
1606.000000	0.524804
1607.000000	0.524886
1608.000000	0.524932
1609.000000	0.525052
1610.000000	0.525078
1611.000000	0.525071
1612.000000	0.525099
1613.000000	0.525270
1614.000000	0.525341
1615.000000	0.525498
1616.000000	0.525665
1617.000000	0.525741
1618.000000	0.525798
1619.000000	0.525825
1620.000000	0.525856
1621.000000	0.525872
1622.000000	0.525985
1623.000000	0.526102
1624.000000	0.526195
1625.000000	0.526092
1626.000000	0.526007
1627.000000	0.525926
1628.000000	0.525972
1629.000000	0.526030
1630.000000	0.526161
1631.000000	0.526321
1632.000000	0.526363
1633.000000	0.526422
1634.000000	0.526445
1635.000000	0.526464
1636.000000	0.526455
1637.000000	0.526474
1638.000000	0.526366
1639.000000	0.526254
1640.000000	0.526128
1641.000000	0.526015
1642.000000	0.525967
1643.000000	0.526005
1644.000000	0.526027
1645.000000	0.526102
1646.000000	0.526035
1647.000000	0.525953
1648.000000	0.525882
1649.000000	0.525901
1650.000000	0.525940
1651.000000	0.526111
1652.000000	0.526209
1653.000000	0.526179
1654.000000	0.526205
1655.000000	0.526164
1656.000000	0.525963
1657.000000	0.525815
1658.000000	0.525642
1659.000000	0.525527
1660.000000	0.525460
1661.000000	0.525247
1662.000000	0.525202
1663.000000	0.525198
1664.000000	0.525177
1665.000000	0.525243
1666.000000	0.525395
1667.000000	0.525387
1668.000000	0.525466
1669.000000	0.525648
1670.000000	0.525649
1671.000000	0.525750
1672.000000	0.525892
1673.000000	0.525962
1674.000000	0.526010
1675.000000	0.526093
1676.000000	0.526122
1677.000000	0.526104
1678.000000	0.526029
1679.000000	0.525957
1680.000000	0.525763
1681.000000	0.525656
1682.000000	0.525778
1683.000000	0.525880
1684.000000	0.525852
1685.000000	0.525885
1686.000000	0.525807
1687.000000	0.525687
1688.000000	0.525630
1689.000000	0.525611
1690.000000	0.525579
1691.000000	0.525646
1692.000000	0.525564
1693.000000	0.525520
1694.000000	0.525411
1695.000000	0.525278
1696.000000	0.525236
1697.000000	0.525133
1698.000000	0.525136
1699.000000	0.525121
1700.000000	0.525063
1701.000000	0.525171
1702.000000	0.525027
1703.000000	0.524904
1704.000000	0.525047
1705.000000	0.525060
1706.000000	0.525071
1707.000000	0.525076
1708.000000	0.524974
1709.000000	0.524822
1710.000000	0.524793
1711.000000	0.524768
1712.000000	0.524826
1713.000000	0.524735
1714.000000	0.524622
1715.000000	0.524546
1716.000000	0.524402
1717.000000	0.524285
1718.000000	0.524214
1719.000000	0.524054
1720.000000	0.523937
1721.000000	0.523733
1722.000000	0.523444
1723.000000	0.523215
1724.000000	0.522993
1725.000000	0.522794
1726.000000	0.522442
1727.000000	0.522268
1728.000000	0.522088
1729.000000	0.521799
1730.000000	0.521781
1731.000000	0.521693
1732.000000	0.521487
1733.000000	0.521525
1734.000000	0.521551
1735.000000	0.521497
1736.000000	0.521397
1737.000000	0.521316
1738.000000	0.521199
1739.000000	0.521181
1740.000000	0.521225
1741.000000	0.521172
1742.000000	0.521153
1743.000000	0.521122
1744.000000	0.521030
1745.000000	0.520826
1746.000000	0.520554
1747.000000	0.520283
1748.000000	0.519953
1749.000000	0.519701
1750.000000	0.519359
1751.000000	0.519100
1752.000000	0.519000
1753.000000	0.518707
1754.000000	0.518499
1755.000000	0.518341
1756.000000	0.518115
1757.000000	0.517843
1758.000000	0.517674
1759.000000	0.517513
1760.000000	0.517339
1761.000000	0.517201
1762.000000	0.516982
1763.000000	0.516686
1764.000000	0.516461
1765.000000	0.516161
1766.000000	0.515981
1767.000000	0.515771
1768.000000	0.515530
1769.000000	0.515506
1770.000000	0.515436
1771.000000	0.515271
1772.000000	0.515087
1773.000000	0.514762
1774.000000	0.514589
1775.000000	0.514563
1776.000000	0.514473
1777.000000	0.514413
1778.000000	0.514250
1779.000000	0.513955
1780.000000	0.513774
1781.000000	0.513572
1782.000000	0.513331
1783.000000	0.513168
1784.000000	0.512961
1785.000000	0.512690
1786.000000	0.512616
1787.000000	0.512708
1788.000000	0.512717
1789.000000	0.512694
1790.000000	0.512662
1791.000000	0.512511
1792.000000	0.512476
1793.000000	0.512402
1794.000000	0.512306
1795.000000	0.512183
1796.000000	0.511955
1797.000000	0.511822
1798.000000	0.511645
1799.000000	0.511515
1800.000000	0.511600
1801.000000	0.512034
1802.000000	0.511830
1803.000000	0.510896
1804.000000	0.510605
1805.000000	0.509596
1806.000000	0.509604
1807.000000	0.510867
1808.000000	0.511261
1809.000000	0.511332
1810.000000	0.512064
1811.000000	0.512100
1812.000000	0.511584
1813.000000	0.511329
1814.000000	0.510880
1815.000000	0.510839
1816.000000	0.511070
1817.000000	0.510823
1818.000000	0.510656
1819.000000	0.510915
1820.000000	0.510310
1821.000000	0.509761
1822.000000	0.509318
1823.000000	0.508546
1824.000000	0.508282
1825.000000	0.508117
1826.000000	0.508187
1827.000000	0.508502
1828.000000	0.508973
1829.000000	0.508821
1830.000000	0.508817
1831.000000	0.508764
1832.000000	0.508572
1833.000000	0.508227
1834.000000	0.507982
1835.000000	0.507538
1836.000000	0.506576
1837.000000	0.505856
1838.000000	0.505115
1839.000000	0.503942
1840.000000	0.503388
1841.000000	0.502830
1842.000000	0.502324
1843.000000	0.502139
1844.000000	0.501798
1845.000000	0.500994
1846.000000	0.500771
1847.000000	0.500703
1848.000000	0.500273
1849.000000	0.500512
1850.000000	0.500151
1851.000000	0.499712
1852.000000	0.498905
1853.000000	0.498462
1854.000000	0.497783
1855.000000	0.497024
1856.000000	0.496442
1857.000000	0.495290
1858.000000	0.493541
1859.000000	0.491983
1860.000000	0.490198
1861.000000	0.488472
1862.000000	0.486915
1863.000000	0.485886
1864.000000	0.484172
1865.000000	0.482478
1866.000000	0.480384
1867.000000	0.477817
1868.000000	0.475092
1869.000000	0.472066
1870.000000	0.468946
1871.000000	0.465393
1872.000000	0.461693
1873.000000	0.457797
1874.000000	0.453790
1875.000000	0.449269
1876.000000	0.444142
1877.000000	0.438384
1878.000000	0.432584
1879.000000	0.426487
1880.000000	0.420663
1881.000000	0.414935
1882.000000	0.408902
1883.000000	0.402277
1884.000000	0.395233
1885.000000	0.387056
1886.000000	0.379207
1887.000000	0.370965
1888.000000	0.362737
1889.000000	0.354642
1890.000000	0.346846
1891.000000	0.338785
1892.000000	0.330373
1893.000000	0.322216
1894.000000	0.314640
1895.000000	0.307384
1896.000000	0.300637
1897.000000	0.294538
1898.000000	0.288568
1899.000000	0.282981
1900.000000	0.278269
1901.000000	0.273911
1902.000000	0.270462
1903.000000	0.268109
1904.000000	0.266230
1905.000000	0.265052
1906.000000	0.264346
1907.000000	0.264338
1908.000000	0.264756
1909.000000	0.265616
1910.000000	0.266760
1911.000000	0.268552
1912.000000	0.270627
1913.000000	0.272658
1914.000000	0.274842
1915.000000	0.276912
1916.000000	0.278662
1917.000000	0.280640
1918.000000	0.282802
1919.000000	0.285399
1920.000000	0.287510
1921.000000	0.289818
1922.000000	0.291863
1923.000000	0.293599
1924.000000	0.295671
1925.000000	0.297553
1926.000000	0.299649
1927.000000	0.301798
1928.000000	0.303676
1929.000000	0.305490
1930.000000	0.307326
1931.000000	0.308656
1932.000000	0.310061
1933.000000	0.311836
1934.000000	0.313226
1935.000000	0.315047
1936.000000	0.316981
1937.000000	0.318079
1938.000000	0.319319
1939.000000	0.320443
1940.000000	0.321369
1941.000000	0.322121
1942.000000	0.323089
1943.000000	0.323648
1944.000000	0.324497
1945.000000	0.324923
1946.000000	0.325127
1947.000000	0.325892
1948.000000	0.326448
1949.000000	0.327395
1950.000000	0.328616
1951.000000	0.329546
1952.000000	0.330508
1953.000000	0.331320
1954.000000	0.332154
1955.000000	0.333084
1956.000000	0.333925
1957.000000	0.334655
1958.000000	0.335175
1959.000000	0.335771
1960.000000	0.336209
1961.000000	0.336893
1962.000000	0.337732
1963.000000	0.338824
1964.000000	0.339846
1965.000000	0.341176
1966.000000	0.342191
1967.000000	0.343226
1968.000000	0.344045
1969.000000	0.344463
1970.000000	0.345418
1971.000000	0.345884
1972.000000	0.346426
1973.000000	0.347075
1974.000000	0.347733
1975.000000	0.348723
1976.000000	0.350048
1977.000000	0.351533
1978.000000	0.353022
1979.000000	0.354702
1980.000000	0.356247
1981.000000	0.357526
1982.000000	0.358640
1983.000000	0.359834
1984.000000	0.360958
1985.000000	0.362039
1986.000000	0.363065
1987.000000	0.364163
1988.000000	0.365243
1989.000000	0.366378
1990.000000	0.367650
1991.000000	0.369040
1992.000000	0.370330
1993.000000	0.371369
1994.000000	0.372395
1995.000000	0.373203
1996.000000	0.374007
1997.000000	0.375121
1998.000000	0.376534
1999.000000	0.377865
2000.000000	0.379431
2001.000000	0.380929
2002.000000	0.382109
2003.000000	0.383456
2004.000000	0.384803
2005.000000	0.385809
2006.000000	0.386985
2007.000000	0.388307
2008.000000	0.389437
2009.000000	0.390244
2010.000000	0.391618
2011.000000	0.393006
2012.000000	0.394288
2013.000000	0.395696
2014.000000	0.397098
2015.000000	0.398390
2016.000000	0.399417
2017.000000	0.400277
2018.000000	0.401191
2019.000000	0.401853
2020.000000	0.402200
2021.000000	0.403016
2022.000000	0.404006
2023.000000	0.405003
2024.000000	0.406508
2025.000000	0.407690
2026.000000	0.408583
2027.000000	0.409326
2028.000000	0.410010
2029.000000	0.410886
2030.000000	0.412112
2031.000000	0.413001
2032.000000	0.413948
2033.000000	0.414978
2034.000000	0.415712
2035.000000	0.416309
2036.000000	0.416868
2037.000000	0.417498
2038.000000	0.418017
2039.000000	0.418350
2040.000000	0.419159
2041.000000	0.419976
2042.000000	0.421149
2043.000000	0.422558
2044.000000	0.423600
2045.000000	0.424359
2046.000000	0.424721
2047.000000	0.425246
2048.000000	0.425378
2049.000000	0.426212
2050.000000	0.426923
2051.000000	0.427541
2052.000000	0.428337
2053.000000	0.428830
2054.000000	0.429366
2055.000000	0.430156
2056.000000	0.430540
2057.000000	0.431137
2058.000000	0.431760
2059.000000	0.432151
2060.000000	0.432354
2061.000000	0.432401
2062.000000	0.432585
2063.000000	0.432398
2064.000000	0.432600
2065.000000	0.433857
2066.000000	0.434292
2067.000000	0.434833
2068.000000	0.435558
2069.000000	0.435426
2070.000000	0.435434
2071.000000	0.435499
2072.000000	0.435554
2073.000000	0.436235
2074.000000	0.436817
2075.000000	0.437327
2076.000000	0.438049
2077.000000	0.438296
2078.000000	0.438123
2079.000000	0.438199
2080.000000	0.438110
2081.000000	0.438274
2082.000000	0.438686
2083.000000	0.439170
2084.000000	0.439396
2085.000000	0.439636
2086.000000	0.439905
2087.000000	0.440046
2088.000000	0.440520
2089.000000	0.441062
2090.000000	0.441373
2091.000000	0.441629
2092.000000	0.442057
2093.000000	0.442381
2094.000000	0.442841
2095.000000	0.443923
2096.000000	0.444377
2097.000000	0.444477
2098.000000	0.444271
2099.000000	0.443926
2100.000000	0.443594
2101.000000	0.443689
2102.000000	0.443942
2103.000000	0.444242
2104.000000	0.444526
2105.000000	0.444864
2106.000000	0.445267
2107.000000	0.445629
2108.000000	0.446036
2109.000000	0.446356
2110.000000	0.446185
2111.000000	0.446352
2112.000000	0.446489
2113.000000	0.446343
2114.000000	0.447280
2115.000000	0.447907
2116.000000	0.448148
2117.000000	0.449198
2118.000000	0.449751
2119.000000	0.449847
2120.000000	0.450361
2121.000000	0.451217
2122.000000	0.451618
2123.000000	0.452110
2124.000000	0.452124
2125.000000	0.451426
2126.000000	0.451268
2127.000000	0.450962
2128.000000	0.451123
2129.000000	0.451778
2130.000000	0.452293
2131.000000	0.452253
2132.000000	0.452466
2133.000000	0.452502
2134.000000	0.453108
2135.000000	0.454108
2136.000000	0.454562
2137.000000	0.455012
2138.000000	0.455455
2139.000000	0.455657
2140.000000	0.455406
2141.000000	0.455640
2142.000000	0.456139
2143.000000	0.455853
2144.000000	0.455761
2145.000000	0.455640
2146.000000	0.455017
2147.000000	0.454969
2148.000000	0.455214
2149.000000	0.455655
2150.000000	0.456086
2151.000000	0.456313
2152.000000	0.456173
2153.000000	0.455929
2154.000000	0.456008
2155.000000	0.456160
2156.000000	0.456385
2157.000000	0.457208
2158.000000	0.457380
2159.000000	0.457232
2160.000000	0.457302
2161.000000	0.456798
2162.000000	0.457050
2163.000000	0.457946
2164.000000	0.458253
2165.000000	0.458316
2166.000000	0.459115
2167.000000	0.459495
2168.000000	0.459107
2169.000000	0.459056
2170.000000	0.458479
2171.000000	0.458001
2172.000000	0.456882
2173.000000	0.456910
2174.000000	0.457730
2175.000000	0.457994
2176.000000	0.458841
2177.000000	0.458989
2178.000000	0.458524
2179.000000	0.458308
2180.000000	0.457661
2181.000000	0.457716
2182.000000	0.457497
2183.000000	0.456657
2184.000000	0.456294
2185.000000	0.456177
2186.000000	0.455292
2187.000000	0.455170
2188.000000	0.455024
2189.000000	0.453841
2190.000000	0.452977
2191.000000	0.453223
2192.000000	0.453202
2193.000000	0.453687
2194.000000	0.453695
2195.000000	0.453489
2196.000000	0.453554
2197.000000	0.453498
2198.000000	0.453383
2199.000000	0.453945
2200.000000	0.454069
2201.000000	0.453437
2202.000000	0.453434
2203.000000	0.453871
2204.000000	0.453207
2205.000000	0.452564
2206.000000	0.451371
2207.000000	0.449336
2208.000000	0.448935
2209.000000	0.448423
2210.000000	0.448264
2211.000000	0.448774
2212.000000	0.447986
2213.000000	0.447659
2214.000000	0.447677
2215.000000	0.447053
2216.000000	0.446161
2217.000000	0.445500
2218.000000	0.444186
2219.000000	0.443615
2220.000000	0.443742
2221.000000	0.443257
2222.000000	0.442418
2223.000000	0.442146
2224.000000	0.441645
2225.000000	0.441942
2226.000000	0.442274
2227.000000	0.442919
2228.000000	0.443361
2229.000000	0.441238
2230.000000	0.438298
2231.000000	0.436313
2232.000000	0.432968
2233.000000	0.431664
2234.000000	0.432083
2235.000000	0.431255
2236.000000	0.431364
2237.000000	0.432741
2238.000000	0.432608
2239.000000	0.431718
2240.000000	0.431855
2241.000000	0.432070
2242.000000	0.431868
2243.000000	0.431967
2244.000000	0.432111
2245.000000	0.431806
2246.000000	0.431554
2247.000000	0.431625
2248.000000	0.431376
2249.000000	0.430940
2250.000000	0.429810
2251.000000	0.429130
2252.000000	0.429335
2253.000000	0.428996
2254.000000	0.428641
2255.000000	0.428572
2256.000000	0.428714
2257.000000	0.428558
2258.000000	0.428268
2259.000000	0.428116
2260.000000	0.427552
2261.000000	0.427089
2262.000000	0.427020
2263.000000	0.426465
2264.000000	0.425964
2265.000000	0.425185
2266.000000	0.423794
2267.000000	0.422802
2268.000000	0.421812
2269.000000	0.420289
2270.000000	0.419000
2271.000000	0.417375
2272.000000	0.415594
2273.000000	0.413093
2274.000000	0.409454
2275.000000	0.406602
2276.000000	0.403168
2277.000000	0.400642
2278.000000	0.399138
2279.000000	0.397340
2280.000000	0.394395
2281.000000	0.390141
2282.000000	0.385829
2283.000000	0.382309
2284.000000	0.379929
2285.000000	0.376967
2286.000000	0.373418
2287.000000	0.369723
2288.000000	0.365681
2289.000000	0.362983
2290.000000	0.359386
2291.000000	0.356613
2292.000000	0.355929
2293.000000	0.354223
2294.000000	0.352467
2295.000000	0.351113
2296.000000	0.349993
2297.000000	0.348054
2298.000000	0.347214
2299.000000	0.348957
2300.000000	0.347920
2301.000000	0.345565
2302.000000	0.342812
2303.000000	0.338147
2304.000000	0.334308
2305.000000	0.330972
2306.000000	0.326921
2307.000000	0.322293
2308.000000	0.318076
2309.000000	0.313611
2310.000000	0.309252
2311.000000	0.306582
2312.000000	0.304095
2313.000000	0.302374
2314.000000	0.301676
2315.000000	0.301150
2316.000000	0.303252
2317.000000	0.306420
2318.000000	0.309471
2319.000000	0.314751
2320.000000	0.319360
2321.000000	0.324439
2322.000000	0.331197
2323.000000	0.335390
2324.000000	0.339344
2325.000000	0.342411
2326.000000	0.344173
2327.000000	0.347233
2328.000000	0.350161
2329.000000	0.353936
2330.000000	0.357016
2331.000000	0.360259
2332.000000	0.364182
2333.000000	0.366528
2334.000000	0.369025
2335.000000	0.371452
2336.000000	0.373082
2337.000000	0.374096
2338.000000	0.374783
2339.000000	0.374210
2340.000000	0.371878
2341.000000	0.370937
2342.000000	0.369292
2343.000000	0.369520
2344.000000	0.372292
2345.000000	0.372799
2346.000000	0.373266
2347.000000	0.372618
2348.000000	0.371170
2349.000000	0.367494
2350.000000	0.363862
2351.000000	0.364221
2352.000000	0.362855
2353.000000	0.363377
2354.000000	0.364954
2355.000000	0.364886
2356.000000	0.365543
2357.000000	0.365371
2358.000000	0.366334
2359.000000	0.365412
2360.000000	0.363084
2361.000000	0.362891
2362.000000	0.361539
2363.000000	0.360496
2364.000000	0.359875
2365.000000	0.358156
2366.000000	0.355201
2367.000000	0.352161
2368.000000	0.351155
2369.000000	0.351825
2370.000000	0.350925
2371.000000	0.349900
2372.000000	0.349840
2373.000000	0.346468
2374.000000	0.342709
2375.000000	0.341929
2376.000000	0.341747
2377.000000	0.343347
2378.000000	0.346359
2379.000000	0.345871
2380.000000	0.341886
2381.000000	0.336737
2382.000000	0.329441
2383.000000	0.325435
2384.000000	0.325477
2385.000000	0.324272
2386.000000	0.325304
2387.000000	0.323276
2388.000000	0.317984
2389.000000	0.317908
2390.000000	0.316486
2391.000000	0.315438
2392.000000	0.319826
2393.000000	0.321273
2394.000000	0.322134
2395.000000	0.325601
2396.000000	0.326610
2397.000000	0.327623
2398.000000	0.329224
2399.000000	0.330637
2400.000000	0.329890
2401.000000	0.326006
2402.000000	0.324691
2403.000000	0.327436
2404.000000	0.328311
2405.000000	0.329387
2406.000000	0.332812
2407.000000	0.328018
2408.000000	0.326123
2409.000000	0.329459
2410.000000	0.324997
2411.000000	0.321861
2412.000000	0.318821
2413.000000	0.313737
2414.000000	0.314403
2415.000000	0.312724
2416.000000	0.310612
2417.000000	0.315545
2418.000000	0.317193
2419.000000	0.320173
2420.000000	0.322596
2421.000000	0.317032
2422.000000	0.313515
2423.000000	0.308941
2424.000000	0.304357
2425.000000	0.301868
2426.000000	0.294657
2427.000000	0.294757
2428.000000	0.300019
2429.000000	0.300456
2430.000000	0.303574
2431.000000	0.303870
2432.000000	0.298201
2433.000000	0.300860
2434.000000	0.310297
2435.000000	0.309554
2436.000000	0.310594
2437.000000	0.314799
2438.000000	0.312739
2439.000000	0.317747
2440.000000	0.324569
2441.000000	0.326242
2442.000000	0.328296
2443.000000	0.324481
2444.000000	0.311526
2445.000000	0.299719
2446.000000	0.291651
2447.000000	0.290944
2448.000000	0.295585
2449.000000	0.293399
2450.000000	0.294256
2451.000000	0.298194
2452.000000	0.299523
2453.000000	0.300011
2454.000000	0.292053
2455.000000	0.281057
2456.000000	0.272340
2457.000000	0.273351
2458.000000	0.282858
2459.000000	0.287848
2460.000000	0.286760
2461.000000	0.285017
2462.000000	0.284737
2463.000000	0.278451
2464.000000	0.265362
2465.000000	0.250754
2466.000000	0.239239
2467.000000	0.231680
2468.000000	0.241590
2469.000000	0.255341
2470.000000	0.256256
2471.000000	0.263467
2472.000000	0.265921
2473.000000	0.269426
2474.000000	0.277096
2475.000000	0.283680
2476.000000	0.284563
2477.000000	0.274444
2478.000000	0.275461
2479.000000	0.267393
2480.000000	0.253432
2481.000000	0.261262
2482.000000	0.260730
2483.000000	0.257464
2484.000000	0.268552
2485.000000	0.256875
2486.000000	0.241089
2487.000000	0.248378
2488.000000	0.249721
2489.000000	0.246248
2490.000000	0.260640
2491.000000	0.259698
2492.000000	0.253755
2493.000000	0.274895
2494.000000	0.277272
2495.000000	0.251362
2496.000000	0.231159
2497.000000	0.184301
2498.000000	0.170244
2499.000000	0.192790
2500.000000	0.190045
