# Wavelength	SM1200H-20_HEX-30_FV7-50_00002.asd.rts.txt
350.000000	0.205640
351.000000	0.216656
352.000000	0.235918
353.000000	0.244922
354.000000	0.240425
355.000000	0.233863
356.000000	0.225259
357.000000	0.222970
358.000000	0.238409
359.000000	0.244656
360.000000	0.243269
361.000000	0.241562
362.000000	0.237905
363.000000	0.233283
364.000000	0.229886
365.000000	0.237232
366.000000	0.236115
367.000000	0.227151
368.000000	0.228752
369.000000	0.231617
370.000000	0.234312
371.000000	0.236692
372.000000	0.232221
373.000000	0.231211
374.000000	0.238420
375.000000	0.238926
376.000000	0.234680
377.000000	0.230426
378.000000	0.234672
379.000000	0.234661
380.000000	0.232107
381.000000	0.233408
382.000000	0.235301
383.000000	0.235037
384.000000	0.232758
385.000000	0.235173
386.000000	0.237702
387.000000	0.238952
388.000000	0.240552
389.000000	0.239308
390.000000	0.236417
391.000000	0.234437
392.000000	0.235877
393.000000	0.237737
394.000000	0.237924
395.000000	0.239868
396.000000	0.241683
397.000000	0.242310
398.000000	0.241702
399.000000	0.241079
400.000000	0.240746
401.000000	0.240521
402.000000	0.241514
403.000000	0.242814
404.000000	0.243486
405.000000	0.243052
406.000000	0.242850
407.000000	0.243564
408.000000	0.245003
409.000000	0.244747
410.000000	0.243428
411.000000	0.243465
412.000000	0.244946
413.000000	0.246432
414.000000	0.246539
415.000000	0.246236
416.000000	0.246289
417.000000	0.246863
418.000000	0.246886
419.000000	0.247212
420.000000	0.247870
421.000000	0.248181
422.000000	0.249054
423.000000	0.249895
424.000000	0.249911
425.000000	0.250328
426.000000	0.250641
427.000000	0.250499
428.000000	0.250799
429.000000	0.251028
430.000000	0.251095
431.000000	0.251461
432.000000	0.251872
433.000000	0.252049
434.000000	0.251829
435.000000	0.251739
436.000000	0.252116
437.000000	0.253013
438.000000	0.253743
439.000000	0.253830
440.000000	0.253423
441.000000	0.253449
442.000000	0.253584
443.000000	0.253753
444.000000	0.254171
445.000000	0.254196
446.000000	0.254199
447.000000	0.254540
448.000000	0.254731
449.000000	0.255000
450.000000	0.255524
451.000000	0.256165
452.000000	0.256464
453.000000	0.256364
454.000000	0.256485
455.000000	0.256886
456.000000	0.257353
457.000000	0.257386
458.000000	0.257654
459.000000	0.257960
460.000000	0.258095
461.000000	0.258140
462.000000	0.258320
463.000000	0.258544
464.000000	0.258678
465.000000	0.258851
466.000000	0.259110
467.000000	0.259596
468.000000	0.259723
469.000000	0.259694
470.000000	0.260022
471.000000	0.260328
472.000000	0.260638
473.000000	0.260987
474.000000	0.261237
475.000000	0.261314
476.000000	0.261383
477.000000	0.261520
478.000000	0.261681
479.000000	0.261920
480.000000	0.261994
481.000000	0.262295
482.000000	0.262684
483.000000	0.262828
484.000000	0.263336
485.000000	0.263534
486.000000	0.263443
487.000000	0.263810
488.000000	0.264135
489.000000	0.264357
490.000000	0.264647
491.000000	0.264766
492.000000	0.264961
493.000000	0.265370
494.000000	0.265486
495.000000	0.265642
496.000000	0.266018
497.000000	0.266350
498.000000	0.266627
499.000000	0.266922
500.000000	0.267219
501.000000	0.267369
502.000000	0.267526
503.000000	0.267871
504.000000	0.268117
505.000000	0.268339
506.000000	0.268641
507.000000	0.268868
508.000000	0.269130
509.000000	0.269437
510.000000	0.269728
511.000000	0.270012
512.000000	0.270353
513.000000	0.270813
514.000000	0.271113
515.000000	0.271344
516.000000	0.271632
517.000000	0.271835
518.000000	0.272175
519.000000	0.272654
520.000000	0.272792
521.000000	0.272956
522.000000	0.273285
523.000000	0.273576
524.000000	0.273837
525.000000	0.274088
526.000000	0.274413
527.000000	0.274678
528.000000	0.274863
529.000000	0.275046
530.000000	0.275276
531.000000	0.275582
532.000000	0.275882
533.000000	0.276199
534.000000	0.276495
535.000000	0.276751
536.000000	0.277013
537.000000	0.277335
538.000000	0.277660
539.000000	0.277882
540.000000	0.278162
541.000000	0.278423
542.000000	0.278624
543.000000	0.278818
544.000000	0.279089
545.000000	0.279395
546.000000	0.279714
547.000000	0.280022
548.000000	0.280321
549.000000	0.280543
550.000000	0.280822
551.000000	0.281149
552.000000	0.281431
553.000000	0.281760
554.000000	0.282043
555.000000	0.282251
556.000000	0.282607
557.000000	0.282919
558.000000	0.283263
559.000000	0.283697
560.000000	0.284043
561.000000	0.284331
562.000000	0.284543
563.000000	0.284823
564.000000	0.285165
565.000000	0.285430
566.000000	0.285735
567.000000	0.286010
568.000000	0.286211
569.000000	0.286460
570.000000	0.286749
571.000000	0.287058
572.000000	0.287379
573.000000	0.287674
574.000000	0.287964
575.000000	0.288341
576.000000	0.288716
577.000000	0.289006
578.000000	0.289245
579.000000	0.289539
580.000000	0.289894
581.000000	0.290265
582.000000	0.290522
583.000000	0.290731
584.000000	0.290937
585.000000	0.291194
586.000000	0.291466
587.000000	0.291719
588.000000	0.291949
589.000000	0.292298
590.000000	0.292633
591.000000	0.292869
592.000000	0.293083
593.000000	0.293325
594.000000	0.293602
595.000000	0.293883
596.000000	0.294105
597.000000	0.294305
598.000000	0.294466
599.000000	0.294600
600.000000	0.294778
601.000000	0.294963
602.000000	0.295094
603.000000	0.295293
604.000000	0.295584
605.000000	0.295769
606.000000	0.295882
607.000000	0.296025
608.000000	0.296358
609.000000	0.296576
610.000000	0.296718
611.000000	0.296896
612.000000	0.297077
613.000000	0.297214
614.000000	0.297332
615.000000	0.297503
616.000000	0.297683
617.000000	0.297826
618.000000	0.297985
619.000000	0.298055
620.000000	0.298111
621.000000	0.298334
622.000000	0.298440
623.000000	0.298522
624.000000	0.298676
625.000000	0.298772
626.000000	0.298897
627.000000	0.299066
628.000000	0.299169
629.000000	0.299339
630.000000	0.299459
631.000000	0.299572
632.000000	0.299693
633.000000	0.299837
634.000000	0.299995
635.000000	0.300168
636.000000	0.300358
637.000000	0.300545
638.000000	0.300736
639.000000	0.300907
640.000000	0.301087
641.000000	0.301194
642.000000	0.301315
643.000000	0.301432
644.000000	0.301514
645.000000	0.301717
646.000000	0.301917
647.000000	0.302008
648.000000	0.302155
649.000000	0.302307
650.000000	0.302437
651.000000	0.302623
652.000000	0.302720
653.000000	0.302789
654.000000	0.302899
655.000000	0.303112
656.000000	0.303332
657.000000	0.303438
658.000000	0.303685
659.000000	0.303875
660.000000	0.303945
661.000000	0.304154
662.000000	0.304271
663.000000	0.304355
664.000000	0.304524
665.000000	0.304696
666.000000	0.304857
667.000000	0.304976
668.000000	0.305085
669.000000	0.305206
670.000000	0.305357
671.000000	0.305545
672.000000	0.305746
673.000000	0.305943
674.000000	0.306146
675.000000	0.306335
676.000000	0.306493
677.000000	0.306632
678.000000	0.306777
679.000000	0.306905
680.000000	0.307007
681.000000	0.307067
682.000000	0.307215
683.000000	0.307406
684.000000	0.307657
685.000000	0.307806
686.000000	0.307931
687.000000	0.308122
688.000000	0.308283
689.000000	0.308443
690.000000	0.308645
691.000000	0.308765
692.000000	0.308881
693.000000	0.309066
694.000000	0.309204
695.000000	0.309353
696.000000	0.309512
697.000000	0.309664
698.000000	0.309825
699.000000	0.309962
700.000000	0.310073
701.000000	0.310251
702.000000	0.310458
703.000000	0.310638
704.000000	0.310756
705.000000	0.310894
706.000000	0.311043
707.000000	0.311246
708.000000	0.311462
709.000000	0.311605
710.000000	0.311668
711.000000	0.311848
712.000000	0.312012
713.000000	0.312142
714.000000	0.312332
715.000000	0.312528
716.000000	0.312726
717.000000	0.312907
718.000000	0.313088
719.000000	0.313234
720.000000	0.313339
721.000000	0.313487
722.000000	0.313569
723.000000	0.313623
724.000000	0.313693
725.000000	0.313745
726.000000	0.313851
727.000000	0.313958
728.000000	0.314075
729.000000	0.314224
730.000000	0.314359
731.000000	0.314456
732.000000	0.314575
733.000000	0.314737
734.000000	0.314783
735.000000	0.314799
736.000000	0.314926
737.000000	0.315060
738.000000	0.315151
739.000000	0.315276
740.000000	0.315336
741.000000	0.315448
742.000000	0.315568
743.000000	0.315656
744.000000	0.315766
745.000000	0.315772
746.000000	0.315802
747.000000	0.315932
748.000000	0.316025
749.000000	0.316118
750.000000	0.316212
751.000000	0.316311
752.000000	0.316420
753.000000	0.316525
754.000000	0.316570
755.000000	0.316631
756.000000	0.316736
757.000000	0.316836
758.000000	0.316856
759.000000	0.316923
760.000000	0.317019
761.000000	0.317082
762.000000	0.317164
763.000000	0.317255
764.000000	0.317384
765.000000	0.317407
766.000000	0.317430
767.000000	0.317554
768.000000	0.317654
769.000000	0.317714
770.000000	0.317757
771.000000	0.317860
772.000000	0.317938
773.000000	0.317946
774.000000	0.317988
775.000000	0.317967
776.000000	0.317986
777.000000	0.318082
778.000000	0.318130
779.000000	0.318159
780.000000	0.318188
781.000000	0.318208
782.000000	0.318232
783.000000	0.318325
784.000000	0.318378
785.000000	0.318506
786.000000	0.318610
787.000000	0.318637
788.000000	0.318656
789.000000	0.318751
790.000000	0.318847
791.000000	0.318840
792.000000	0.318865
793.000000	0.318929
794.000000	0.318997
795.000000	0.318938
796.000000	0.318890
797.000000	0.318906
798.000000	0.318966
799.000000	0.318981
800.000000	0.318959
801.000000	0.318936
802.000000	0.318874
803.000000	0.318850
804.000000	0.318913
805.000000	0.318912
806.000000	0.318868
807.000000	0.318813
808.000000	0.318657
809.000000	0.318655
810.000000	0.318771
811.000000	0.318892
812.000000	0.318893
813.000000	0.318852
814.000000	0.318808
815.000000	0.318790
816.000000	0.318815
817.000000	0.318863
818.000000	0.318821
819.000000	0.318752
820.000000	0.318717
821.000000	0.318670
822.000000	0.318559
823.000000	0.318543
824.000000	0.318598
825.000000	0.318740
826.000000	0.318820
827.000000	0.318793
828.000000	0.318749
829.000000	0.318900
830.000000	0.318940
831.000000	0.318890
832.000000	0.318774
833.000000	0.318632
834.000000	0.318602
835.000000	0.318746
836.000000	0.318714
837.000000	0.318622
838.000000	0.318558
839.000000	0.318552
840.000000	0.318498
841.000000	0.318445
842.000000	0.318407
843.000000	0.318336
844.000000	0.318293
845.000000	0.318254
846.000000	0.318183
847.000000	0.318164
848.000000	0.318137
849.000000	0.318059
850.000000	0.317978
851.000000	0.317939
852.000000	0.317979
853.000000	0.318025
854.000000	0.317917
855.000000	0.317848
856.000000	0.317875
857.000000	0.317771
858.000000	0.317692
859.000000	0.317629
860.000000	0.317522
861.000000	0.317438
862.000000	0.317373
863.000000	0.317224
864.000000	0.317091
865.000000	0.317061
866.000000	0.317120
867.000000	0.316974
868.000000	0.316882
869.000000	0.316763
870.000000	0.316553
871.000000	0.316484
872.000000	0.316443
873.000000	0.316281
874.000000	0.316061
875.000000	0.315794
876.000000	0.315630
877.000000	0.315651
878.000000	0.315593
879.000000	0.315529
880.000000	0.315348
881.000000	0.314998
882.000000	0.314780
883.000000	0.314675
884.000000	0.314483
885.000000	0.314441
886.000000	0.314359
887.000000	0.314171
888.000000	0.314026
889.000000	0.313924
890.000000	0.313711
891.000000	0.313439
892.000000	0.313225
893.000000	0.313089
894.000000	0.313089
895.000000	0.312962
896.000000	0.312670
897.000000	0.312417
898.000000	0.312409
899.000000	0.312224
900.000000	0.312074
901.000000	0.312012
902.000000	0.311962
903.000000	0.311752
904.000000	0.311490
905.000000	0.311235
906.000000	0.311026
907.000000	0.310859
908.000000	0.310752
909.000000	0.310560
910.000000	0.310364
911.000000	0.310158
912.000000	0.309954
913.000000	0.309827
914.000000	0.309510
915.000000	0.309132
916.000000	0.308943
917.000000	0.308763
918.000000	0.308571
919.000000	0.308386
920.000000	0.308382
921.000000	0.308159
922.000000	0.307833
923.000000	0.307701
924.000000	0.307316
925.000000	0.307028
926.000000	0.306971
927.000000	0.306625
928.000000	0.306424
929.000000	0.306295
930.000000	0.306052
931.000000	0.305855
932.000000	0.305619
933.000000	0.305321
934.000000	0.304911
935.000000	0.304533
936.000000	0.304324
937.000000	0.304195
938.000000	0.303846
939.000000	0.303605
940.000000	0.303391
941.000000	0.303073
942.000000	0.302920
943.000000	0.302806
944.000000	0.302568
945.000000	0.302524
946.000000	0.302291
947.000000	0.301950
948.000000	0.301631
949.000000	0.301241
950.000000	0.300965
951.000000	0.300782
952.000000	0.300589
953.000000	0.300466
954.000000	0.300229
955.000000	0.299794
956.000000	0.299737
957.000000	0.299651
958.000000	0.299327
959.000000	0.298852
960.000000	0.298654
961.000000	0.298533
962.000000	0.298340
963.000000	0.298112
964.000000	0.297838
965.000000	0.297649
966.000000	0.297518
967.000000	0.297415
968.000000	0.297220
969.000000	0.296897
970.000000	0.296602
971.000000	0.296417
972.000000	0.296128
973.000000	0.295715
974.000000	0.295604
975.000000	0.295557
976.000000	0.295307
977.000000	0.294823
978.000000	0.294760
979.000000	0.294884
980.000000	0.294872
981.000000	0.294839
982.000000	0.294630
983.000000	0.294159
984.000000	0.293718
985.000000	0.293770
986.000000	0.293617
987.000000	0.293364
988.000000	0.293093
989.000000	0.292883
990.000000	0.292850
991.000000	0.292768
992.000000	0.292437
993.000000	0.292125
994.000000	0.292067
995.000000	0.292141
996.000000	0.291673
997.000000	0.291558
998.000000	0.291445
999.000000	0.291261
1000.000000	0.291305
1001.000000	0.291438
1002.000000	0.291270
1003.000000	0.291304
1004.000000	0.290944
1005.000000	0.290016
1006.000000	0.289510
1007.000000	0.289216
1008.000000	0.288402
1009.000000	0.287718
1010.000000	0.287569
1011.000000	0.287761
1012.000000	0.288503
1013.000000	0.289282
1014.000000	0.289767
1015.000000	0.289515
1016.000000	0.289142
1017.000000	0.289030
1018.000000	0.288804
1019.000000	0.288835
1020.000000	0.289684
1021.000000	0.289247
1022.000000	0.288145
1023.000000	0.287890
1024.000000	0.287198
1025.000000	0.286950
1026.000000	0.287634
1027.000000	0.287978
1028.000000	0.288098
1029.000000	0.288280
1030.000000	0.288310
1031.000000	0.288353
1032.000000	0.288566
1033.000000	0.288752
1034.000000	0.288640
1035.000000	0.288230
1036.000000	0.288025
1037.000000	0.287563
1038.000000	0.287338
1039.000000	0.287227
1040.000000	0.287540
1041.000000	0.287969
1042.000000	0.288383
1043.000000	0.288999
1044.000000	0.289356
1045.000000	0.289183
1046.000000	0.289133
1047.000000	0.289214
1048.000000	0.289120
1049.000000	0.289031
1050.000000	0.289108
1051.000000	0.289127
1052.000000	0.288817
1053.000000	0.288852
1054.000000	0.289351
1055.000000	0.289773
1056.000000	0.290325
1057.000000	0.290812
1058.000000	0.291273
1059.000000	0.291291
1060.000000	0.291136
1061.000000	0.291174
1062.000000	0.291133
1063.000000	0.291390
1064.000000	0.291491
1065.000000	0.291407
1066.000000	0.291620
1067.000000	0.292082
1068.000000	0.292228
1069.000000	0.292500
1070.000000	0.292563
1071.000000	0.291874
1072.000000	0.291944
1073.000000	0.292402
1074.000000	0.293196
1075.000000	0.293755
1076.000000	0.293869
1077.000000	0.293538
1078.000000	0.293241
1079.000000	0.293385
1080.000000	0.294013
1081.000000	0.294321
1082.000000	0.294907
1083.000000	0.295116
1084.000000	0.295071
1085.000000	0.295099
1086.000000	0.294862
1087.000000	0.294950
1088.000000	0.295106
1089.000000	0.295283
1090.000000	0.295821
1091.000000	0.295932
1092.000000	0.295833
1093.000000	0.295866
1094.000000	0.296109
1095.000000	0.296287
1096.000000	0.296634
1097.000000	0.297420
1098.000000	0.297779
1099.000000	0.297661
1100.000000	0.298177
1101.000000	0.299262
1102.000000	0.299463
1103.000000	0.299337
1104.000000	0.299503
1105.000000	0.299033
1106.000000	0.298986
1107.000000	0.299637
1108.000000	0.299944
1109.000000	0.300140
1110.000000	0.300254
1111.000000	0.300338
1112.000000	0.300287
1113.000000	0.300519
1114.000000	0.300879
1115.000000	0.301068
1116.000000	0.301376
1117.000000	0.301568
1118.000000	0.301552
1119.000000	0.301563
1120.000000	0.301674
1121.000000	0.301666
1122.000000	0.301383
1123.000000	0.301635
1124.000000	0.302076
1125.000000	0.302303
1126.000000	0.302478
1127.000000	0.302749
1128.000000	0.302992
1129.000000	0.303020
1130.000000	0.303358
1131.000000	0.304164
1132.000000	0.304308
1133.000000	0.304241
1134.000000	0.304268
1135.000000	0.303854
1136.000000	0.303848
1137.000000	0.304136
1138.000000	0.304262
1139.000000	0.304628
1140.000000	0.304796
1141.000000	0.304735
1142.000000	0.304757
1143.000000	0.304604
1144.000000	0.304642
1145.000000	0.304636
1146.000000	0.304609
1147.000000	0.304595
1148.000000	0.304483
1149.000000	0.304485
1150.000000	0.304537
1151.000000	0.304618
1152.000000	0.304763
1153.000000	0.304802
1154.000000	0.304707
1155.000000	0.304755
1156.000000	0.304812
1157.000000	0.304874
1158.000000	0.304994
1159.000000	0.305076
1160.000000	0.305106
1161.000000	0.305156
1162.000000	0.305303
1163.000000	0.305542
1164.000000	0.305482
1165.000000	0.305427
1166.000000	0.305467
1167.000000	0.305416
1168.000000	0.305385
1169.000000	0.305519
1170.000000	0.305516
1171.000000	0.305390
1172.000000	0.305452
1173.000000	0.305550
1174.000000	0.305610
1175.000000	0.305773
1176.000000	0.305752
1177.000000	0.305681
1178.000000	0.305628
1179.000000	0.305432
1180.000000	0.305303
1181.000000	0.305285
1182.000000	0.305295
1183.000000	0.305319
1184.000000	0.305415
1185.000000	0.305531
1186.000000	0.305685
1187.000000	0.305775
1188.000000	0.305964
1189.000000	0.305933
1190.000000	0.305761
1191.000000	0.305691
1192.000000	0.305585
1193.000000	0.305706
1194.000000	0.305953
1195.000000	0.306037
1196.000000	0.306092
1197.000000	0.306091
1198.000000	0.305916
1199.000000	0.305893
1200.000000	0.305970
1201.000000	0.305948
1202.000000	0.306075
1203.000000	0.306170
1204.000000	0.305985
1205.000000	0.305985
1206.000000	0.305990
1207.000000	0.306053
1208.000000	0.306049
1209.000000	0.306210
1210.000000	0.306253
1211.000000	0.306185
1212.000000	0.306083
1213.000000	0.306009
1214.000000	0.305933
1215.000000	0.305708
1216.000000	0.305646
1217.000000	0.305623
1218.000000	0.305620
1219.000000	0.305755
1220.000000	0.305843
1221.000000	0.305818
1222.000000	0.305864
1223.000000	0.305798
1224.000000	0.305742
1225.000000	0.305790
1226.000000	0.305795
1227.000000	0.305799
1228.000000	0.305814
1229.000000	0.305733
1230.000000	0.305531
1231.000000	0.305450
1232.000000	0.305498
1233.000000	0.305529
1234.000000	0.305593
1235.000000	0.305586
1236.000000	0.305443
1237.000000	0.305400
1238.000000	0.305275
1239.000000	0.305301
1240.000000	0.305454
1241.000000	0.305510
1242.000000	0.305678
1243.000000	0.305728
1244.000000	0.305567
1245.000000	0.305471
1246.000000	0.305373
1247.000000	0.305446
1248.000000	0.305513
1249.000000	0.305506
1250.000000	0.305529
1251.000000	0.305532
1252.000000	0.305535
1253.000000	0.305623
1254.000000	0.305606
1255.000000	0.305551
1256.000000	0.305462
1257.000000	0.305293
1258.000000	0.305283
1259.000000	0.305256
1260.000000	0.305238
1261.000000	0.305227
1262.000000	0.305234
1263.000000	0.305272
1264.000000	0.305244
1265.000000	0.305240
1266.000000	0.305315
1267.000000	0.305327
1268.000000	0.305220
1269.000000	0.305227
1270.000000	0.305228
1271.000000	0.305069
1272.000000	0.305123
1273.000000	0.305184
1274.000000	0.305118
1275.000000	0.305076
1276.000000	0.305068
1277.000000	0.305120
1278.000000	0.305138
1279.000000	0.305108
1280.000000	0.305048
1281.000000	0.304976
1282.000000	0.304816
1283.000000	0.304775
1284.000000	0.304787
1285.000000	0.304800
1286.000000	0.304815
1287.000000	0.304797
1288.000000	0.304828
1289.000000	0.304792
1290.000000	0.304713
1291.000000	0.304723
1292.000000	0.304704
1293.000000	0.304587
1294.000000	0.304339
1295.000000	0.304233
1296.000000	0.304280
1297.000000	0.304337
1298.000000	0.304462
1299.000000	0.304426
1300.000000	0.304411
1301.000000	0.304466
1302.000000	0.304389
1303.000000	0.304450
1304.000000	0.304375
1305.000000	0.304205
1306.000000	0.304088
1307.000000	0.303962
1308.000000	0.303977
1309.000000	0.304078
1310.000000	0.304151
1311.000000	0.304312
1312.000000	0.304514
1313.000000	0.304610
1314.000000	0.304481
1315.000000	0.304255
1316.000000	0.304142
1317.000000	0.304005
1318.000000	0.304015
1319.000000	0.304148
1320.000000	0.304180
1321.000000	0.304084
1322.000000	0.303961
1323.000000	0.303873
1324.000000	0.303869
1325.000000	0.303770
1326.000000	0.303669
1327.000000	0.303609
1328.000000	0.303569
1329.000000	0.303472
1330.000000	0.303449
1331.000000	0.303341
1332.000000	0.303265
1333.000000	0.303058
1334.000000	0.302732
1335.000000	0.302646
1336.000000	0.302523
1337.000000	0.302474
1338.000000	0.302518
1339.000000	0.302686
1340.000000	0.302761
1341.000000	0.302770
1342.000000	0.302816
1343.000000	0.302822
1344.000000	0.302615
1345.000000	0.302299
1346.000000	0.302204
1347.000000	0.302074
1348.000000	0.301975
1349.000000	0.301960
1350.000000	0.301983
1351.000000	0.301795
1352.000000	0.301577
1353.000000	0.301507
1354.000000	0.301211
1355.000000	0.300996
1356.000000	0.301135
1357.000000	0.301089
1358.000000	0.301064
1359.000000	0.301046
1360.000000	0.300931
1361.000000	0.300746
1362.000000	0.300580
1363.000000	0.300263
1364.000000	0.300148
1365.000000	0.300110
1366.000000	0.300033
1367.000000	0.300000
1368.000000	0.300037
1369.000000	0.300128
1370.000000	0.300102
1371.000000	0.300027
1372.000000	0.299945
1373.000000	0.299675
1374.000000	0.299317
1375.000000	0.299039
1376.000000	0.298797
1377.000000	0.298588
1378.000000	0.298250
1379.000000	0.297726
1380.000000	0.297268
1381.000000	0.296735
1382.000000	0.296295
1383.000000	0.295884
1384.000000	0.295200
1385.000000	0.294466
1386.000000	0.293674
1387.000000	0.293082
1388.000000	0.292770
1389.000000	0.292382
1390.000000	0.292097
1391.000000	0.291870
1392.000000	0.291584
1393.000000	0.291473
1394.000000	0.291686
1395.000000	0.291693
1396.000000	0.291734
1397.000000	0.291644
1398.000000	0.291384
1399.000000	0.291138
1400.000000	0.290782
1401.000000	0.290485
1402.000000	0.290228
1403.000000	0.289960
1404.000000	0.289813
1405.000000	0.289554
1406.000000	0.289162
1407.000000	0.288725
1408.000000	0.288297
1409.000000	0.287998
1410.000000	0.287704
1411.000000	0.287411
1412.000000	0.287032
1413.000000	0.286670
1414.000000	0.286385
1415.000000	0.286045
1416.000000	0.285563
1417.000000	0.285070
1418.000000	0.284694
1419.000000	0.284434
1420.000000	0.284213
1421.000000	0.284107
1422.000000	0.283851
1423.000000	0.283615
1424.000000	0.283374
1425.000000	0.283066
1426.000000	0.282753
1427.000000	0.282486
1428.000000	0.282315
1429.000000	0.282134
1430.000000	0.281964
1431.000000	0.281774
1432.000000	0.281539
1433.000000	0.281270
1434.000000	0.281020
1435.000000	0.280843
1436.000000	0.280678
1437.000000	0.280476
1438.000000	0.280207
1439.000000	0.279968
1440.000000	0.279792
1441.000000	0.279618
1442.000000	0.279489
1443.000000	0.279437
1444.000000	0.279230
1445.000000	0.278949
1446.000000	0.278795
1447.000000	0.278649
1448.000000	0.278483
1449.000000	0.278315
1450.000000	0.278128
1451.000000	0.277910
1452.000000	0.277638
1453.000000	0.277401
1454.000000	0.277187
1455.000000	0.277027
1456.000000	0.276983
1457.000000	0.276975
1458.000000	0.276968
1459.000000	0.276962
1460.000000	0.276918
1461.000000	0.276857
1462.000000	0.276848
1463.000000	0.276843
1464.000000	0.276822
1465.000000	0.276802
1466.000000	0.276700
1467.000000	0.276610
1468.000000	0.276578
1469.000000	0.276581
1470.000000	0.276621
1471.000000	0.276691
1472.000000	0.276715
1473.000000	0.276878
1474.000000	0.276901
1475.000000	0.276895
1476.000000	0.276976
1477.000000	0.276962
1478.000000	0.277096
1479.000000	0.277223
1480.000000	0.277337
1481.000000	0.277461
1482.000000	0.277601
1483.000000	0.277754
1484.000000	0.277939
1485.000000	0.278142
1486.000000	0.278375
1487.000000	0.278630
1488.000000	0.278900
1489.000000	0.279168
1490.000000	0.279365
1491.000000	0.279578
1492.000000	0.279730
1493.000000	0.279942
1494.000000	0.280142
1495.000000	0.280341
1496.000000	0.280618
1497.000000	0.280809
1498.000000	0.280988
1499.000000	0.281050
1500.000000	0.281136
1501.000000	0.281293
1502.000000	0.281396
1503.000000	0.281558
1504.000000	0.281782
1505.000000	0.281865
1506.000000	0.282029
1507.000000	0.282190
1508.000000	0.282304
1509.000000	0.282474
1510.000000	0.282610
1511.000000	0.282808
1512.000000	0.282883
1513.000000	0.282905
1514.000000	0.283055
1515.000000	0.283104
1516.000000	0.283327
1517.000000	0.283510
1518.000000	0.283451
1519.000000	0.283433
1520.000000	0.283367
1521.000000	0.283274
1522.000000	0.283335
1523.000000	0.283417
1524.000000	0.283468
1525.000000	0.283473
1526.000000	0.283477
1527.000000	0.283530
1528.000000	0.283448
1529.000000	0.283343
1530.000000	0.283280
1531.000000	0.283297
1532.000000	0.283282
1533.000000	0.283270
1534.000000	0.283395
1535.000000	0.283403
1536.000000	0.283423
1537.000000	0.283600
1538.000000	0.283590
1539.000000	0.283467
1540.000000	0.283483
1541.000000	0.283614
1542.000000	0.283718
1543.000000	0.283816
1544.000000	0.283938
1545.000000	0.283941
1546.000000	0.283952
1547.000000	0.284167
1548.000000	0.284337
1549.000000	0.284386
1550.000000	0.284371
1551.000000	0.284300
1552.000000	0.284274
1553.000000	0.284245
1554.000000	0.284309
1555.000000	0.284411
1556.000000	0.284413
1557.000000	0.284473
1558.000000	0.284499
1559.000000	0.284424
1560.000000	0.284392
1561.000000	0.284372
1562.000000	0.284344
1563.000000	0.284434
1564.000000	0.284445
1565.000000	0.284391
1566.000000	0.284348
1567.000000	0.284317
1568.000000	0.284284
1569.000000	0.284352
1570.000000	0.284420
1571.000000	0.284524
1572.000000	0.284529
1573.000000	0.284490
1574.000000	0.284456
1575.000000	0.284364
1576.000000	0.284356
1577.000000	0.284406
1578.000000	0.284387
1579.000000	0.284381
1580.000000	0.284378
1581.000000	0.284471
1582.000000	0.284462
1583.000000	0.284355
1584.000000	0.284301
1585.000000	0.284249
1586.000000	0.284315
1587.000000	0.284562
1588.000000	0.284627
1589.000000	0.284654
1590.000000	0.284685
1591.000000	0.284669
1592.000000	0.284654
1593.000000	0.284677
1594.000000	0.284672
1595.000000	0.284592
1596.000000	0.284646
1597.000000	0.284884
1598.000000	0.284935
1599.000000	0.285005
1600.000000	0.284992
1601.000000	0.284919
1602.000000	0.284832
1603.000000	0.284742
1604.000000	0.284654
1605.000000	0.284461
1606.000000	0.284469
1607.000000	0.284691
1608.000000	0.284752
1609.000000	0.284900
1610.000000	0.284976
1611.000000	0.284982
1612.000000	0.284981
1613.000000	0.285076
1614.000000	0.285060
1615.000000	0.284976
1616.000000	0.284974
1617.000000	0.284957
1618.000000	0.284934
1619.000000	0.284944
1620.000000	0.284872
1621.000000	0.284732
1622.000000	0.284741
1623.000000	0.284734
1624.000000	0.284739
1625.000000	0.284700
1626.000000	0.284698
1627.000000	0.284754
1628.000000	0.284746
1629.000000	0.284718
1630.000000	0.284729
1631.000000	0.284597
1632.000000	0.284595
1633.000000	0.284767
1634.000000	0.284869
1635.000000	0.284987
1636.000000	0.285048
1637.000000	0.285119
1638.000000	0.285126
1639.000000	0.285101
1640.000000	0.285110
1641.000000	0.285173
1642.000000	0.285217
1643.000000	0.285275
1644.000000	0.285378
1645.000000	0.285470
1646.000000	0.285556
1647.000000	0.285789
1648.000000	0.285831
1649.000000	0.285840
1650.000000	0.285931
1651.000000	0.285941
1652.000000	0.286065
1653.000000	0.286308
1654.000000	0.286474
1655.000000	0.286614
1656.000000	0.286628
1657.000000	0.286632
1658.000000	0.286586
1659.000000	0.286479
1660.000000	0.286522
1661.000000	0.286573
1662.000000	0.286605
1663.000000	0.286630
1664.000000	0.286741
1665.000000	0.286881
1666.000000	0.287010
1667.000000	0.287213
1668.000000	0.287167
1669.000000	0.286858
1670.000000	0.286805
1671.000000	0.286832
1672.000000	0.286884
1673.000000	0.287074
1674.000000	0.287141
1675.000000	0.287267
1676.000000	0.287499
1677.000000	0.287565
1678.000000	0.287578
1679.000000	0.287664
1680.000000	0.287536
1681.000000	0.287468
1682.000000	0.287436
1683.000000	0.287359
1684.000000	0.287537
1685.000000	0.287744
1686.000000	0.287832
1687.000000	0.287912
1688.000000	0.287828
1689.000000	0.287800
1690.000000	0.287882
1691.000000	0.288005
1692.000000	0.288091
1693.000000	0.288141
1694.000000	0.287994
1695.000000	0.287884
1696.000000	0.287924
1697.000000	0.287904
1698.000000	0.288101
1699.000000	0.288180
1700.000000	0.288064
1701.000000	0.288151
1702.000000	0.288185
1703.000000	0.288145
1704.000000	0.288209
1705.000000	0.288257
1706.000000	0.288305
1707.000000	0.288303
1708.000000	0.288204
1709.000000	0.288206
1710.000000	0.288355
1711.000000	0.288395
1712.000000	0.288434
1713.000000	0.288581
1714.000000	0.288771
1715.000000	0.288877
1716.000000	0.289139
1717.000000	0.289241
1718.000000	0.289068
1719.000000	0.289008
1720.000000	0.289063
1721.000000	0.289036
1722.000000	0.288944
1723.000000	0.288922
1724.000000	0.288911
1725.000000	0.288942
1726.000000	0.289012
1727.000000	0.288946
1728.000000	0.288785
1729.000000	0.288563
1730.000000	0.288265
1731.000000	0.288176
1732.000000	0.288134
1733.000000	0.288256
1734.000000	0.288506
1735.000000	0.288589
1736.000000	0.288639
1737.000000	0.288695
1738.000000	0.288664
1739.000000	0.288745
1740.000000	0.288922
1741.000000	0.288960
1742.000000	0.288959
1743.000000	0.289055
1744.000000	0.289141
1745.000000	0.289122
1746.000000	0.289102
1747.000000	0.289118
1748.000000	0.289026
1749.000000	0.288970
1750.000000	0.288893
1751.000000	0.288720
1752.000000	0.288777
1753.000000	0.289006
1754.000000	0.289047
1755.000000	0.288987
1756.000000	0.288953
1757.000000	0.288774
1758.000000	0.288696
1759.000000	0.288771
1760.000000	0.288720
1761.000000	0.288456
1762.000000	0.288412
1763.000000	0.288489
1764.000000	0.288519
1765.000000	0.288662
1766.000000	0.288749
1767.000000	0.288639
1768.000000	0.288638
1769.000000	0.288887
1770.000000	0.288938
1771.000000	0.288849
1772.000000	0.288811
1773.000000	0.288594
1774.000000	0.288566
1775.000000	0.288731
1776.000000	0.288799
1777.000000	0.288858
1778.000000	0.288908
1779.000000	0.288914
1780.000000	0.288980
1781.000000	0.289089
1782.000000	0.289047
1783.000000	0.288960
1784.000000	0.288931
1785.000000	0.288951
1786.000000	0.289076
1787.000000	0.289216
1788.000000	0.289218
1789.000000	0.289083
1790.000000	0.289125
1791.000000	0.289129
1792.000000	0.289339
1793.000000	0.289410
1794.000000	0.289330
1795.000000	0.289362
1796.000000	0.289420
1797.000000	0.289432
1798.000000	0.289398
1799.000000	0.289482
1800.000000	0.289677
1801.000000	0.289775
1802.000000	0.289772
1803.000000	0.289010
1804.000000	0.289286
1805.000000	0.290008
1806.000000	0.290242
1807.000000	0.291232
1808.000000	0.291404
1809.000000	0.290898
1810.000000	0.289843
1811.000000	0.289364
1812.000000	0.288495
1813.000000	0.288625
1814.000000	0.289437
1815.000000	0.289951
1816.000000	0.291615
1817.000000	0.291818
1818.000000	0.290861
1819.000000	0.290753
1820.000000	0.290157
1821.000000	0.289014
1822.000000	0.289017
1823.000000	0.289913
1824.000000	0.290218
1825.000000	0.290906
1826.000000	0.291258
1827.000000	0.291264
1828.000000	0.291098
1829.000000	0.290955
1830.000000	0.290666
1831.000000	0.290686
1832.000000	0.290776
1833.000000	0.290888
1834.000000	0.291556
1835.000000	0.291618
1836.000000	0.290993
1837.000000	0.290767
1838.000000	0.290602
1839.000000	0.290048
1840.000000	0.289446
1841.000000	0.289126
1842.000000	0.288563
1843.000000	0.287231
1844.000000	0.286820
1845.000000	0.287032
1846.000000	0.286903
1847.000000	0.286758
1848.000000	0.286660
1849.000000	0.286393
1850.000000	0.286199
1851.000000	0.286187
1852.000000	0.286529
1853.000000	0.286407
1854.000000	0.285774
1855.000000	0.285500
1856.000000	0.284877
1857.000000	0.284838
1858.000000	0.285429
1859.000000	0.285770
1860.000000	0.286117
1861.000000	0.286369
1862.000000	0.285937
1863.000000	0.284849
1864.000000	0.284046
1865.000000	0.282705
1866.000000	0.281838
1867.000000	0.281023
1868.000000	0.280719
1869.000000	0.280382
1870.000000	0.279657
1871.000000	0.279077
1872.000000	0.278426
1873.000000	0.277866
1874.000000	0.277733
1875.000000	0.276921
1876.000000	0.275637
1877.000000	0.273973
1878.000000	0.272582
1879.000000	0.270757
1880.000000	0.269252
1881.000000	0.267967
1882.000000	0.266282
1883.000000	0.264795
1884.000000	0.263338
1885.000000	0.262072
1886.000000	0.260389
1887.000000	0.258437
1888.000000	0.256219
1889.000000	0.254696
1890.000000	0.253296
1891.000000	0.251776
1892.000000	0.250234
1893.000000	0.248339
1894.000000	0.246079
1895.000000	0.243858
1896.000000	0.241806
1897.000000	0.239915
1898.000000	0.237561
1899.000000	0.235624
1900.000000	0.234243
1901.000000	0.232868
1902.000000	0.231544
1903.000000	0.229941
1904.000000	0.228018
1905.000000	0.226437
1906.000000	0.225004
1907.000000	0.223751
1908.000000	0.222646
1909.000000	0.221651
1910.000000	0.220533
1911.000000	0.219626
1912.000000	0.218935
1913.000000	0.218108
1914.000000	0.217452
1915.000000	0.216650
1916.000000	0.215964
1917.000000	0.215397
1918.000000	0.215378
1919.000000	0.214917
1920.000000	0.214296
1921.000000	0.213644
1922.000000	0.212966
1923.000000	0.212770
1924.000000	0.212603
1925.000000	0.212462
1926.000000	0.212332
1927.000000	0.212203
1928.000000	0.212171
1929.000000	0.212297
1930.000000	0.212506
1931.000000	0.212457
1932.000000	0.212578
1933.000000	0.212499
1934.000000	0.212629
1935.000000	0.213243
1936.000000	0.213518
1937.000000	0.214071
1938.000000	0.213961
1939.000000	0.213809
1940.000000	0.213295
1941.000000	0.213277
1942.000000	0.213019
1943.000000	0.213132
1944.000000	0.213574
1945.000000	0.213264
1946.000000	0.212814
1947.000000	0.213053
1948.000000	0.213317
1949.000000	0.213442
1950.000000	0.213748
1951.000000	0.213836
1952.000000	0.213817
1953.000000	0.212894
1954.000000	0.212344
1955.000000	0.212450
1956.000000	0.212070
1957.000000	0.212139
1958.000000	0.212593
1959.000000	0.212627
1960.000000	0.212513
1961.000000	0.212525
1962.000000	0.212472
1963.000000	0.212412
1964.000000	0.212224
1965.000000	0.212165
1966.000000	0.212257
1967.000000	0.212267
1968.000000	0.212061
1969.000000	0.211737
1970.000000	0.211547
1971.000000	0.211325
1972.000000	0.211726
1973.000000	0.211984
1974.000000	0.212754
1975.000000	0.212839
1976.000000	0.212717
1977.000000	0.212241
1978.000000	0.211998
1979.000000	0.212482
1980.000000	0.213116
1981.000000	0.214182
1982.000000	0.214615
1983.000000	0.214949
1984.000000	0.215136
1985.000000	0.214938
1986.000000	0.214928
1987.000000	0.215009
1988.000000	0.214861
1989.000000	0.215561
1990.000000	0.216471
1991.000000	0.216697
1992.000000	0.217355
1993.000000	0.217598
1994.000000	0.217757
1995.000000	0.218235
1996.000000	0.218704
1997.000000	0.218987
1998.000000	0.218850
1999.000000	0.218870
2000.000000	0.218932
2001.000000	0.219138
2002.000000	0.219003
2003.000000	0.219392
2004.000000	0.219807
2005.000000	0.219760
2006.000000	0.220247
2007.000000	0.221287
2008.000000	0.222057
2009.000000	0.222862
2010.000000	0.223779
2011.000000	0.224664
2012.000000	0.225381
2013.000000	0.225979
2014.000000	0.226943
2015.000000	0.227444
2016.000000	0.227795
2017.000000	0.228214
2018.000000	0.228166
2019.000000	0.228496
2020.000000	0.228691
2021.000000	0.228990
2022.000000	0.229365
2023.000000	0.229769
2024.000000	0.230323
2025.000000	0.230797
2026.000000	0.231015
2027.000000	0.231590
2028.000000	0.231859
2029.000000	0.232244
2030.000000	0.232666
2031.000000	0.232835
2032.000000	0.233916
2033.000000	0.234629
2034.000000	0.235259
2035.000000	0.236351
2036.000000	0.236751
2037.000000	0.236681
2038.000000	0.236814
2039.000000	0.236690
2040.000000	0.236695
2041.000000	0.237296
2042.000000	0.238058
2043.000000	0.239089
2044.000000	0.239835
2045.000000	0.240095
2046.000000	0.239934
2047.000000	0.240049
2048.000000	0.239784
2049.000000	0.240185
2050.000000	0.241049
2051.000000	0.241473
2052.000000	0.241720
2053.000000	0.242012
2054.000000	0.242364
2055.000000	0.242495
2056.000000	0.243262
2057.000000	0.243610
2058.000000	0.243638
2059.000000	0.243584
2060.000000	0.243660
2061.000000	0.243290
2062.000000	0.243849
2063.000000	0.245396
2064.000000	0.245887
2065.000000	0.246724
2066.000000	0.246891
2067.000000	0.246216
2068.000000	0.246093
2069.000000	0.246296
2070.000000	0.246955
2071.000000	0.248105
2072.000000	0.248996
2073.000000	0.249519
2074.000000	0.249593
2075.000000	0.249443
2076.000000	0.248302
2077.000000	0.248261
2078.000000	0.248518
2079.000000	0.248767
2080.000000	0.250177
2081.000000	0.250628
2082.000000	0.250540
2083.000000	0.250070
2084.000000	0.250277
2085.000000	0.250076
2086.000000	0.250499
2087.000000	0.251826
2088.000000	0.252057
2089.000000	0.252121
2090.000000	0.252348
2091.000000	0.252131
2092.000000	0.252362
2093.000000	0.253326
2094.000000	0.253676
2095.000000	0.253720
2096.000000	0.253958
2097.000000	0.253896
2098.000000	0.254017
2099.000000	0.254403
2100.000000	0.255420
2101.000000	0.256473
2102.000000	0.257024
2103.000000	0.257616
2104.000000	0.257560
2105.000000	0.257505
2106.000000	0.257132
2107.000000	0.257056
2108.000000	0.256594
2109.000000	0.256808
2110.000000	0.257444
2111.000000	0.257703
2112.000000	0.257685
2113.000000	0.258427
2114.000000	0.259000
2115.000000	0.259228
2116.000000	0.259442
2117.000000	0.259206
2118.000000	0.258662
2119.000000	0.258279
2120.000000	0.258324
2121.000000	0.259150
2122.000000	0.258963
2123.000000	0.258385
2124.000000	0.258165
2125.000000	0.257253
2126.000000	0.257182
2127.000000	0.258499
2128.000000	0.258745
2129.000000	0.258391
2130.000000	0.258449
2131.000000	0.257980
2132.000000	0.257115
2133.000000	0.257601
2134.000000	0.258440
2135.000000	0.259935
2136.000000	0.260983
2137.000000	0.261550
2138.000000	0.261813
2139.000000	0.262186
2140.000000	0.261846
2141.000000	0.262164
2142.000000	0.263227
2143.000000	0.263200
2144.000000	0.262943
2145.000000	0.262838
2146.000000	0.262307
2147.000000	0.262108
2148.000000	0.261847
2149.000000	0.262176
2150.000000	0.262966
2151.000000	0.263495
2152.000000	0.264246
2153.000000	0.264488
2154.000000	0.264363
2155.000000	0.263483
2156.000000	0.263107
2157.000000	0.262734
2158.000000	0.262365
2159.000000	0.261979
2160.000000	0.261838
2161.000000	0.261633
2162.000000	0.261608
2163.000000	0.262294
2164.000000	0.262111
2165.000000	0.261161
2166.000000	0.260495
2167.000000	0.260894
2168.000000	0.261969
2169.000000	0.262998
2170.000000	0.264758
2171.000000	0.265209
2172.000000	0.264175
2173.000000	0.263584
2174.000000	0.262722
2175.000000	0.262433
2176.000000	0.262241
2177.000000	0.262165
2178.000000	0.262400
2179.000000	0.262786
2180.000000	0.263538
2181.000000	0.263833
2182.000000	0.263645
2183.000000	0.263437
2184.000000	0.263578
2185.000000	0.263100
2186.000000	0.263440
2187.000000	0.263791
2188.000000	0.262278
2189.000000	0.261485
2190.000000	0.261064
2191.000000	0.260953
2192.000000	0.261101
2193.000000	0.262278
2194.000000	0.262482
2195.000000	0.262480
2196.000000	0.262560
2197.000000	0.262396
2198.000000	0.261862
2199.000000	0.260493
2200.000000	0.260565
2201.000000	0.260938
2202.000000	0.261624
2203.000000	0.264324
2204.000000	0.265629
2205.000000	0.264768
2206.000000	0.265158
2207.000000	0.262994
2208.000000	0.262132
2209.000000	0.262823
2210.000000	0.262978
2211.000000	0.262868
2212.000000	0.261115
2213.000000	0.260470
2214.000000	0.259082
2215.000000	0.257392
2216.000000	0.255931
2217.000000	0.255922
2218.000000	0.254142
2219.000000	0.255474
2220.000000	0.262949
2221.000000	0.264608
2222.000000	0.263894
2223.000000	0.264108
2224.000000	0.262595
2225.000000	0.259568
2226.000000	0.259769
2227.000000	0.261137
2228.000000	0.263698
2229.000000	0.264084
2230.000000	0.263366
2231.000000	0.264644
2232.000000	0.263124
2233.000000	0.261484
2234.000000	0.262623
2235.000000	0.262521
2236.000000	0.262247
2237.000000	0.262191
2238.000000	0.262476
2239.000000	0.261547
2240.000000	0.261995
2241.000000	0.263735
2242.000000	0.264826
2243.000000	0.266714
2244.000000	0.267995
2245.000000	0.269543
2246.000000	0.269333
2247.000000	0.267127
2248.000000	0.265989
2249.000000	0.263827
2250.000000	0.262836
2251.000000	0.262937
2252.000000	0.263914
2253.000000	0.263613
2254.000000	0.263283
2255.000000	0.265998
2256.000000	0.267520
2257.000000	0.267614
2258.000000	0.266816
2259.000000	0.263615
2260.000000	0.257607
2261.000000	0.255648
2262.000000	0.255942
2263.000000	0.256400
2264.000000	0.259555
2265.000000	0.260970
2266.000000	0.261747
2267.000000	0.261888
2268.000000	0.261239
2269.000000	0.260428
2270.000000	0.258425
2271.000000	0.257950
2272.000000	0.258589
2273.000000	0.259261
2274.000000	0.261261
2275.000000	0.261370
2276.000000	0.261457
2277.000000	0.258753
2278.000000	0.254847
2279.000000	0.253035
2280.000000	0.251382
2281.000000	0.251089
2282.000000	0.252158
2283.000000	0.254240
2284.000000	0.256259
2285.000000	0.256035
2286.000000	0.257385
2287.000000	0.256398
2288.000000	0.254331
2289.000000	0.254472
2290.000000	0.252808
2291.000000	0.251378
2292.000000	0.250117
2293.000000	0.247875
2294.000000	0.246766
2295.000000	0.245257
2296.000000	0.245320
2297.000000	0.247289
2298.000000	0.248263
2299.000000	0.249654
2300.000000	0.249495
2301.000000	0.249080
2302.000000	0.248183
2303.000000	0.245453
2304.000000	0.244120
2305.000000	0.242548
2306.000000	0.241623
2307.000000	0.240763
2308.000000	0.242264
2309.000000	0.244049
2310.000000	0.242916
2311.000000	0.241192
2312.000000	0.237449
2313.000000	0.234378
2314.000000	0.235857
2315.000000	0.237477
2316.000000	0.240146
2317.000000	0.242040
2318.000000	0.239539
2319.000000	0.238659
2320.000000	0.237846
2321.000000	0.234853
2322.000000	0.236355
2323.000000	0.237428
2324.000000	0.238750
2325.000000	0.241384
2326.000000	0.241592
2327.000000	0.242211
2328.000000	0.241301
2329.000000	0.241563
2330.000000	0.241162
2331.000000	0.239593
2332.000000	0.241134
2333.000000	0.241727
2334.000000	0.242415
2335.000000	0.242698
2336.000000	0.242470
2337.000000	0.240441
2338.000000	0.236139
2339.000000	0.235308
2340.000000	0.234452
2341.000000	0.234471
2342.000000	0.238452
2343.000000	0.238290
2344.000000	0.235482
2345.000000	0.235291
2346.000000	0.234431
2347.000000	0.234411
2348.000000	0.236034
2349.000000	0.237893
2350.000000	0.237126
2351.000000	0.235729
2352.000000	0.234081
2353.000000	0.231499
2354.000000	0.230403
2355.000000	0.231767
2356.000000	0.234250
2357.000000	0.236715
2358.000000	0.236888
2359.000000	0.235924
2360.000000	0.235426
2361.000000	0.234723
2362.000000	0.234467
2363.000000	0.234567
2364.000000	0.232367
2365.000000	0.227090
2366.000000	0.221176
2367.000000	0.217662
2368.000000	0.215443
2369.000000	0.215387
2370.000000	0.219696
2371.000000	0.224397
2372.000000	0.227286
2373.000000	0.224965
2374.000000	0.219835
2375.000000	0.214805
2376.000000	0.209408
2377.000000	0.214161
2378.000000	0.218853
2379.000000	0.220214
2380.000000	0.226442
2381.000000	0.224196
2382.000000	0.224893
2383.000000	0.228690
2384.000000	0.221050
2385.000000	0.216652
2386.000000	0.216540
2387.000000	0.211198
2388.000000	0.210569
2389.000000	0.217315
2390.000000	0.215995
2391.000000	0.215458
2392.000000	0.219847
2393.000000	0.219327
2394.000000	0.221319
2395.000000	0.221017
2396.000000	0.217426
2397.000000	0.212384
2398.000000	0.207886
2399.000000	0.202672
2400.000000	0.191819
2401.000000	0.188053
2402.000000	0.188942
2403.000000	0.190639
2404.000000	0.199583
2405.000000	0.207654
2406.000000	0.206597
2407.000000	0.203447
2408.000000	0.194914
2409.000000	0.185713
2410.000000	0.188732
2411.000000	0.188985
2412.000000	0.194441
2413.000000	0.208624
2414.000000	0.212762
2415.000000	0.217402
2416.000000	0.227479
2417.000000	0.228068
2418.000000	0.222171
2419.000000	0.217454
2420.000000	0.209990
2421.000000	0.204890
2422.000000	0.197877
2423.000000	0.192992
2424.000000	0.196072
2425.000000	0.193266
2426.000000	0.190645
2427.000000	0.196301
2428.000000	0.195829
2429.000000	0.196627
2430.000000	0.206783
2431.000000	0.209836
2432.000000	0.219340
2433.000000	0.227388
2434.000000	0.224310
2435.000000	0.222378
2436.000000	0.205941
2437.000000	0.199139
2438.000000	0.209045
2439.000000	0.209644
2440.000000	0.215623
2441.000000	0.216960
2442.000000	0.213377
2443.000000	0.215550
2444.000000	0.211655
2445.000000	0.205310
2446.000000	0.201367
2447.000000	0.198870
2448.000000	0.195837
2449.000000	0.194249
2450.000000	0.199105
2451.000000	0.205566
2452.000000	0.200892
2453.000000	0.208132
2454.000000	0.209842
2455.000000	0.198803
2456.000000	0.213412
2457.000000	0.226207
2458.000000	0.225963
2459.000000	0.233409
2460.000000	0.231947
2461.000000	0.217214
2462.000000	0.214253
2463.000000	0.196022
2464.000000	0.189209
2465.000000	0.205339
2466.000000	0.199539
2467.000000	0.202653
2468.000000	0.196495
2469.000000	0.166039
2470.000000	0.136758
2471.000000	0.131210
2472.000000	0.147788
2473.000000	0.169072
2474.000000	0.217388
2475.000000	0.274383
2476.000000	0.286865
2477.000000	0.275739
2478.000000	0.256088
2479.000000	0.205829
2480.000000	0.162792
2481.000000	0.136112
2482.000000	0.125690
2483.000000	0.146601
2484.000000	0.150913
2485.000000	0.150128
2486.000000	0.171370
2487.000000	0.146882
2488.000000	0.122786
2489.000000	0.128263
2490.000000	0.111656
2491.000000	0.151550
2492.000000	0.156457
2493.000000	0.145522
2494.000000	0.164784
2495.000000	0.185745
2496.000000	0.174486
2497.000000	0.168619
2498.000000	0.157433
2499.000000	0.099206
2500.000000	0.087460
