# Wavelength	SM1200H-20_HEX-50_FV7-30_00000.asd.rts.txt
350.000000	0.267401
351.000000	0.264850
352.000000	0.261239
353.000000	0.260960
354.000000	0.265878
355.000000	0.263293
356.000000	0.265850
357.000000	0.274720
358.000000	0.278939
359.000000	0.276421
360.000000	0.274164
361.000000	0.278516
362.000000	0.276052
363.000000	0.275833
364.000000	0.280738
365.000000	0.276870
366.000000	0.277396
367.000000	0.282783
368.000000	0.284032
369.000000	0.279790
370.000000	0.273517
371.000000	0.270223
372.000000	0.269803
373.000000	0.270889
374.000000	0.273272
375.000000	0.278423
376.000000	0.283087
377.000000	0.284878
378.000000	0.282069
379.000000	0.283555
380.000000	0.284479
381.000000	0.278602
382.000000	0.279157
383.000000	0.281098
384.000000	0.280156
385.000000	0.278381
386.000000	0.278635
387.000000	0.281489
388.000000	0.285174
389.000000	0.285044
390.000000	0.283650
391.000000	0.285368
392.000000	0.286349
393.000000	0.287136
394.000000	0.288536
395.000000	0.290685
396.000000	0.290533
397.000000	0.288210
398.000000	0.288221
399.000000	0.287823
400.000000	0.287405
401.000000	0.288276
402.000000	0.289244
403.000000	0.289777
404.000000	0.289933
405.000000	0.290664
406.000000	0.291490
407.000000	0.292199
408.000000	0.292949
409.000000	0.293433
410.000000	0.293727
411.000000	0.294070
412.000000	0.293776
413.000000	0.293727
414.000000	0.294743
415.000000	0.295111
416.000000	0.295132
417.000000	0.295276
418.000000	0.296154
419.000000	0.296559
420.000000	0.296509
421.000000	0.297035
422.000000	0.298049
423.000000	0.298686
424.000000	0.298162
425.000000	0.298046
426.000000	0.298324
427.000000	0.298726
428.000000	0.299013
429.000000	0.299265
430.000000	0.299606
431.000000	0.300239
432.000000	0.300726
433.000000	0.300971
434.000000	0.301169
435.000000	0.301389
436.000000	0.301656
437.000000	0.301927
438.000000	0.302130
439.000000	0.302069
440.000000	0.302001
441.000000	0.302788
442.000000	0.303178
443.000000	0.303024
444.000000	0.303134
445.000000	0.303348
446.000000	0.303650
447.000000	0.303825
448.000000	0.303942
449.000000	0.304171
450.000000	0.304608
451.000000	0.305086
452.000000	0.305589
453.000000	0.305940
454.000000	0.306005
455.000000	0.306383
456.000000	0.306772
457.000000	0.306378
458.000000	0.306705
459.000000	0.307300
460.000000	0.307601
461.000000	0.307730
462.000000	0.308082
463.000000	0.308548
464.000000	0.308750
465.000000	0.308917
466.000000	0.309137
467.000000	0.309595
468.000000	0.309929
469.000000	0.310032
470.000000	0.310112
471.000000	0.310339
472.000000	0.310401
473.000000	0.310287
474.000000	0.310809
475.000000	0.311029
476.000000	0.311054
477.000000	0.311735
478.000000	0.312073
479.000000	0.312215
480.000000	0.312317
481.000000	0.312400
482.000000	0.312662
483.000000	0.312971
484.000000	0.313299
485.000000	0.313538
486.000000	0.313809
487.000000	0.313887
488.000000	0.314014
489.000000	0.314315
490.000000	0.314822
491.000000	0.315159
492.000000	0.315462
493.000000	0.315799
494.000000	0.315963
495.000000	0.316215
496.000000	0.316641
497.000000	0.316950
498.000000	0.317246
499.000000	0.317602
500.000000	0.317819
501.000000	0.317939
502.000000	0.318093
503.000000	0.318355
504.000000	0.318771
505.000000	0.319163
506.000000	0.319389
507.000000	0.319649
508.000000	0.319924
509.000000	0.320184
510.000000	0.320614
511.000000	0.320951
512.000000	0.321211
513.000000	0.321562
514.000000	0.321907
515.000000	0.322217
516.000000	0.322418
517.000000	0.322674
518.000000	0.323071
519.000000	0.323499
520.000000	0.323762
521.000000	0.324036
522.000000	0.324380
523.000000	0.324667
524.000000	0.324936
525.000000	0.325200
526.000000	0.325525
527.000000	0.325782
528.000000	0.326013
529.000000	0.326330
530.000000	0.326515
531.000000	0.326822
532.000000	0.327246
533.000000	0.327505
534.000000	0.327767
535.000000	0.328059
536.000000	0.328322
537.000000	0.328527
538.000000	0.328759
539.000000	0.329122
540.000000	0.329507
541.000000	0.329821
542.000000	0.330062
543.000000	0.330316
544.000000	0.330640
545.000000	0.330948
546.000000	0.331183
547.000000	0.331464
548.000000	0.331815
549.000000	0.332079
550.000000	0.332385
551.000000	0.332738
552.000000	0.333048
553.000000	0.333350
554.000000	0.333690
555.000000	0.334077
556.000000	0.334389
557.000000	0.334628
558.000000	0.334957
559.000000	0.335313
560.000000	0.335624
561.000000	0.335953
562.000000	0.336255
563.000000	0.336642
564.000000	0.337062
565.000000	0.337336
566.000000	0.337690
567.000000	0.338039
568.000000	0.338323
569.000000	0.338679
570.000000	0.338956
571.000000	0.339187
572.000000	0.339610
573.000000	0.339979
574.000000	0.340247
575.000000	0.340507
576.000000	0.340793
577.000000	0.341121
578.000000	0.341534
579.000000	0.341791
580.000000	0.342083
581.000000	0.342458
582.000000	0.342724
583.000000	0.343019
584.000000	0.343359
585.000000	0.343704
586.000000	0.344074
587.000000	0.344402
588.000000	0.344631
589.000000	0.344881
590.000000	0.345152
591.000000	0.345429
592.000000	0.345695
593.000000	0.345950
594.000000	0.346190
595.000000	0.346414
596.000000	0.346642
597.000000	0.346925
598.000000	0.347193
599.000000	0.347347
600.000000	0.347519
601.000000	0.347735
602.000000	0.347964
603.000000	0.348156
604.000000	0.348323
605.000000	0.348555
606.000000	0.348744
607.000000	0.348913
608.000000	0.349164
609.000000	0.349374
610.000000	0.349541
611.000000	0.349699
612.000000	0.349885
613.000000	0.350052
614.000000	0.350218
615.000000	0.350414
616.000000	0.350606
617.000000	0.350738
618.000000	0.350845
619.000000	0.350980
620.000000	0.351104
621.000000	0.351217
622.000000	0.351370
623.000000	0.351468
624.000000	0.351469
625.000000	0.351634
626.000000	0.351806
627.000000	0.351921
628.000000	0.352076
629.000000	0.352333
630.000000	0.352504
631.000000	0.352601
632.000000	0.352758
633.000000	0.352976
634.000000	0.353196
635.000000	0.353338
636.000000	0.353497
637.000000	0.353697
638.000000	0.353876
639.000000	0.354020
640.000000	0.354179
641.000000	0.354269
642.000000	0.354471
643.000000	0.354695
644.000000	0.354795
645.000000	0.354917
646.000000	0.355058
647.000000	0.355177
648.000000	0.355328
649.000000	0.355502
650.000000	0.355683
651.000000	0.355936
652.000000	0.356047
653.000000	0.356135
654.000000	0.356357
655.000000	0.356540
656.000000	0.356688
657.000000	0.356784
658.000000	0.356945
659.000000	0.357134
660.000000	0.357296
661.000000	0.357400
662.000000	0.357507
663.000000	0.357670
664.000000	0.357812
665.000000	0.357966
666.000000	0.358151
667.000000	0.358339
668.000000	0.358522
669.000000	0.358692
670.000000	0.358853
671.000000	0.359010
672.000000	0.359146
673.000000	0.359274
674.000000	0.359455
675.000000	0.359618
676.000000	0.359773
677.000000	0.359968
678.000000	0.360127
679.000000	0.360292
680.000000	0.360476
681.000000	0.360511
682.000000	0.360630
683.000000	0.360810
684.000000	0.361057
685.000000	0.361240
686.000000	0.361415
687.000000	0.361628
688.000000	0.361810
689.000000	0.361949
690.000000	0.362082
691.000000	0.362187
692.000000	0.362275
693.000000	0.362435
694.000000	0.362638
695.000000	0.362864
696.000000	0.363061
697.000000	0.363181
698.000000	0.363332
699.000000	0.363548
700.000000	0.363823
701.000000	0.364010
702.000000	0.364199
703.000000	0.364377
704.000000	0.364437
705.000000	0.364580
706.000000	0.364769
707.000000	0.364972
708.000000	0.365172
709.000000	0.365352
710.000000	0.365528
711.000000	0.365704
712.000000	0.365816
713.000000	0.365892
714.000000	0.366011
715.000000	0.366165
716.000000	0.366333
717.000000	0.366458
718.000000	0.366614
719.000000	0.366769
720.000000	0.366910
721.000000	0.367082
722.000000	0.367186
723.000000	0.367270
724.000000	0.367356
725.000000	0.367440
726.000000	0.367580
727.000000	0.367662
728.000000	0.367784
729.000000	0.367953
730.000000	0.368092
731.000000	0.368228
732.000000	0.368364
733.000000	0.368532
734.000000	0.368662
735.000000	0.368709
736.000000	0.368825
737.000000	0.368926
738.000000	0.369039
739.000000	0.369174
740.000000	0.369170
741.000000	0.369293
742.000000	0.369465
743.000000	0.369605
744.000000	0.369730
745.000000	0.369796
746.000000	0.369877
747.000000	0.369958
748.000000	0.370034
749.000000	0.370160
750.000000	0.370305
751.000000	0.370349
752.000000	0.370439
753.000000	0.370587
754.000000	0.370659
755.000000	0.370744
756.000000	0.370841
757.000000	0.370883
758.000000	0.370966
759.000000	0.371062
760.000000	0.371096
761.000000	0.371263
762.000000	0.371344
763.000000	0.371334
764.000000	0.371448
765.000000	0.371508
766.000000	0.371526
767.000000	0.371544
768.000000	0.371588
769.000000	0.371612
770.000000	0.371616
771.000000	0.371634
772.000000	0.371792
773.000000	0.371937
774.000000	0.371973
775.000000	0.371994
776.000000	0.372009
777.000000	0.371996
778.000000	0.371981
779.000000	0.371984
780.000000	0.372028
781.000000	0.372111
782.000000	0.372107
783.000000	0.372187
784.000000	0.372333
785.000000	0.372425
786.000000	0.372520
787.000000	0.372628
788.000000	0.372651
789.000000	0.372663
790.000000	0.372661
791.000000	0.372663
792.000000	0.372669
793.000000	0.372709
794.000000	0.372799
795.000000	0.372866
796.000000	0.372887
797.000000	0.372868
798.000000	0.372860
799.000000	0.372852
800.000000	0.372875
801.000000	0.372946
802.000000	0.372936
803.000000	0.372958
804.000000	0.373067
805.000000	0.372998
806.000000	0.372929
807.000000	0.372957
808.000000	0.372963
809.000000	0.373022
810.000000	0.373046
811.000000	0.372977
812.000000	0.372978
813.000000	0.373021
814.000000	0.373062
815.000000	0.373068
816.000000	0.373097
817.000000	0.373135
818.000000	0.373066
819.000000	0.373045
820.000000	0.373054
821.000000	0.373009
822.000000	0.372920
823.000000	0.372943
824.000000	0.372933
825.000000	0.372822
826.000000	0.372805
827.000000	0.372828
828.000000	0.372890
829.000000	0.372974
830.000000	0.372975
831.000000	0.372947
832.000000	0.372840
833.000000	0.372747
834.000000	0.372709
835.000000	0.372755
836.000000	0.372771
837.000000	0.372748
838.000000	0.372698
839.000000	0.372605
840.000000	0.372589
841.000000	0.372640
842.000000	0.372661
843.000000	0.372596
844.000000	0.372560
845.000000	0.372543
846.000000	0.372482
847.000000	0.372407
848.000000	0.372327
849.000000	0.372283
850.000000	0.372206
851.000000	0.372187
852.000000	0.372261
853.000000	0.372249
854.000000	0.372147
855.000000	0.372151
856.000000	0.372238
857.000000	0.372223
858.000000	0.372201
859.000000	0.372122
860.000000	0.371957
861.000000	0.371783
862.000000	0.371658
863.000000	0.371536
864.000000	0.371479
865.000000	0.371445
866.000000	0.371407
867.000000	0.371272
868.000000	0.371170
869.000000	0.371064
870.000000	0.370984
871.000000	0.370901
872.000000	0.370828
873.000000	0.370689
874.000000	0.370475
875.000000	0.370296
876.000000	0.370106
877.000000	0.369753
878.000000	0.369532
879.000000	0.369392
880.000000	0.369165
881.000000	0.369164
882.000000	0.369118
883.000000	0.369027
884.000000	0.368910
885.000000	0.368728
886.000000	0.368537
887.000000	0.368381
888.000000	0.368146
889.000000	0.368020
890.000000	0.367926
891.000000	0.367942
892.000000	0.367896
893.000000	0.367685
894.000000	0.367461
895.000000	0.367292
896.000000	0.367026
897.000000	0.366799
898.000000	0.366778
899.000000	0.366670
900.000000	0.366463
901.000000	0.366207
902.000000	0.366170
903.000000	0.365976
904.000000	0.365768
905.000000	0.365644
906.000000	0.365521
907.000000	0.365270
908.000000	0.364975
909.000000	0.364735
910.000000	0.364602
911.000000	0.364507
912.000000	0.364383
913.000000	0.364215
914.000000	0.364096
915.000000	0.364035
916.000000	0.363790
917.000000	0.363683
918.000000	0.363552
919.000000	0.363247
920.000000	0.362955
921.000000	0.362640
922.000000	0.362363
923.000000	0.362185
924.000000	0.362013
925.000000	0.361878
926.000000	0.361794
927.000000	0.361583
928.000000	0.361247
929.000000	0.360899
930.000000	0.360659
931.000000	0.360389
932.000000	0.360089
933.000000	0.359829
934.000000	0.359614
935.000000	0.359372
936.000000	0.359092
937.000000	0.358688
938.000000	0.358312
939.000000	0.358131
940.000000	0.358050
941.000000	0.357979
942.000000	0.357617
943.000000	0.357322
944.000000	0.357150
945.000000	0.356981
946.000000	0.356478
947.000000	0.355995
948.000000	0.355885
949.000000	0.355708
950.000000	0.355401
951.000000	0.355027
952.000000	0.354894
953.000000	0.354780
954.000000	0.354565
955.000000	0.354162
956.000000	0.353823
957.000000	0.353599
958.000000	0.353478
959.000000	0.353501
960.000000	0.353242
961.000000	0.352897
962.000000	0.352631
963.000000	0.352568
964.000000	0.352449
965.000000	0.352158
966.000000	0.351623
967.000000	0.351376
968.000000	0.351113
969.000000	0.350776
970.000000	0.350565
971.000000	0.350338
972.000000	0.350360
973.000000	0.350394
974.000000	0.349834
975.000000	0.349451
976.000000	0.349318
977.000000	0.349270
978.000000	0.348963
979.000000	0.348980
980.000000	0.348962
981.000000	0.348765
982.000000	0.348503
983.000000	0.348238
984.000000	0.348035
985.000000	0.347786
986.000000	0.347541
987.000000	0.347185
988.000000	0.346637
989.000000	0.346449
990.000000	0.346369
991.000000	0.346281
992.000000	0.346202
993.000000	0.346294
994.000000	0.346274
995.000000	0.346274
996.000000	0.346241
997.000000	0.345920
998.000000	0.345643
999.000000	0.345682
1000.000000	0.345795
1001.000000	0.346848
1002.000000	0.345780
1003.000000	0.344492
1004.000000	0.343726
1005.000000	0.342579
1006.000000	0.342307
1007.000000	0.342916
1008.000000	0.343501
1009.000000	0.343628
1010.000000	0.343598
1011.000000	0.344244
1012.000000	0.344596
1013.000000	0.344133
1014.000000	0.344113
1015.000000	0.343764
1016.000000	0.343472
1017.000000	0.343968
1018.000000	0.344134
1019.000000	0.344172
1020.000000	0.344422
1021.000000	0.343821
1022.000000	0.342293
1023.000000	0.342146
1024.000000	0.342192
1025.000000	0.342276
1026.000000	0.342689
1027.000000	0.343395
1028.000000	0.342881
1029.000000	0.342370
1030.000000	0.342483
1031.000000	0.342670
1032.000000	0.343120
1033.000000	0.343258
1034.000000	0.343324
1035.000000	0.343070
1036.000000	0.342905
1037.000000	0.342835
1038.000000	0.342780
1039.000000	0.342581
1040.000000	0.342774
1041.000000	0.343512
1042.000000	0.343475
1043.000000	0.343947
1044.000000	0.344574
1045.000000	0.344776
1046.000000	0.345084
1047.000000	0.345119
1048.000000	0.344880
1049.000000	0.344613
1050.000000	0.344078
1051.000000	0.343799
1052.000000	0.343191
1053.000000	0.343162
1054.000000	0.343923
1055.000000	0.344346
1056.000000	0.344978
1057.000000	0.345619
1058.000000	0.345668
1059.000000	0.345691
1060.000000	0.346042
1061.000000	0.346389
1062.000000	0.346239
1063.000000	0.346366
1064.000000	0.346527
1065.000000	0.346283
1066.000000	0.346381
1067.000000	0.346971
1068.000000	0.347231
1069.000000	0.347326
1070.000000	0.347439
1071.000000	0.347795
1072.000000	0.347730
1073.000000	0.347126
1074.000000	0.347029
1075.000000	0.347399
1076.000000	0.347314
1077.000000	0.347474
1078.000000	0.348315
1079.000000	0.348561
1080.000000	0.348399
1081.000000	0.348556
1082.000000	0.348776
1083.000000	0.349089
1084.000000	0.349618
1085.000000	0.350159
1086.000000	0.351075
1087.000000	0.351396
1088.000000	0.351092
1089.000000	0.351136
1090.000000	0.350961
1091.000000	0.350870
1092.000000	0.350822
1093.000000	0.351349
1094.000000	0.351565
1095.000000	0.351504
1096.000000	0.351688
1097.000000	0.352085
1098.000000	0.352366
1099.000000	0.352505
1100.000000	0.352799
1101.000000	0.353102
1102.000000	0.353444
1103.000000	0.354050
1104.000000	0.354296
1105.000000	0.354348
1106.000000	0.354409
1107.000000	0.353820
1108.000000	0.353832
1109.000000	0.354503
1110.000000	0.354848
1111.000000	0.355201
1112.000000	0.355858
1113.000000	0.356165
1114.000000	0.356192
1115.000000	0.356234
1116.000000	0.356154
1117.000000	0.356246
1118.000000	0.356223
1119.000000	0.356291
1120.000000	0.356657
1121.000000	0.356794
1122.000000	0.356948
1123.000000	0.357191
1124.000000	0.356975
1125.000000	0.357092
1126.000000	0.357342
1127.000000	0.357446
1128.000000	0.357555
1129.000000	0.357860
1130.000000	0.357995
1131.000000	0.357998
1132.000000	0.357980
1133.000000	0.357981
1134.000000	0.358052
1135.000000	0.357962
1136.000000	0.358019
1137.000000	0.358290
1138.000000	0.358345
1139.000000	0.358414
1140.000000	0.358556
1141.000000	0.358606
1142.000000	0.358664
1143.000000	0.358666
1144.000000	0.358811
1145.000000	0.358702
1146.000000	0.358756
1147.000000	0.358721
1148.000000	0.358605
1149.000000	0.358542
1150.000000	0.358359
1151.000000	0.358498
1152.000000	0.358815
1153.000000	0.358994
1154.000000	0.359340
1155.000000	0.359415
1156.000000	0.359230
1157.000000	0.359178
1158.000000	0.359093
1159.000000	0.358958
1160.000000	0.358682
1161.000000	0.358581
1162.000000	0.358684
1163.000000	0.358699
1164.000000	0.358727
1165.000000	0.358865
1166.000000	0.358941
1167.000000	0.358883
1168.000000	0.358867
1169.000000	0.358946
1170.000000	0.358966
1171.000000	0.358957
1172.000000	0.358980
1173.000000	0.359016
1174.000000	0.358984
1175.000000	0.358862
1176.000000	0.358754
1177.000000	0.358660
1178.000000	0.358626
1179.000000	0.358687
1180.000000	0.358592
1181.000000	0.358552
1182.000000	0.358455
1183.000000	0.358415
1184.000000	0.358424
1185.000000	0.358455
1186.000000	0.358599
1187.000000	0.358651
1188.000000	0.358675
1189.000000	0.358651
1190.000000	0.358665
1191.000000	0.358635
1192.000000	0.358648
1193.000000	0.358719
1194.000000	0.358679
1195.000000	0.358625
1196.000000	0.358431
1197.000000	0.358408
1198.000000	0.358478
1199.000000	0.358541
1200.000000	0.358769
1201.000000	0.358832
1202.000000	0.358785
1203.000000	0.358638
1204.000000	0.358457
1205.000000	0.358397
1206.000000	0.358249
1207.000000	0.358165
1208.000000	0.358144
1209.000000	0.358190
1210.000000	0.358232
1211.000000	0.358434
1212.000000	0.358449
1213.000000	0.358379
1214.000000	0.358381
1215.000000	0.358357
1216.000000	0.358297
1217.000000	0.358164
1218.000000	0.358089
1219.000000	0.358036
1220.000000	0.357994
1221.000000	0.358051
1222.000000	0.358119
1223.000000	0.358101
1224.000000	0.358055
1225.000000	0.357995
1226.000000	0.358067
1227.000000	0.358045
1228.000000	0.358075
1229.000000	0.358053
1230.000000	0.357959
1231.000000	0.357814
1232.000000	0.357775
1233.000000	0.357850
1234.000000	0.357944
1235.000000	0.357950
1236.000000	0.357822
1237.000000	0.357867
1238.000000	0.357892
1239.000000	0.357919
1240.000000	0.358097
1241.000000	0.358194
1242.000000	0.358132
1243.000000	0.358037
1244.000000	0.357939
1245.000000	0.358020
1246.000000	0.358149
1247.000000	0.358209
1248.000000	0.358291
1249.000000	0.358359
1250.000000	0.358294
1251.000000	0.358269
1252.000000	0.358240
1253.000000	0.358219
1254.000000	0.358222
1255.000000	0.358265
1256.000000	0.358263
1257.000000	0.358281
1258.000000	0.358331
1259.000000	0.358274
1260.000000	0.358321
1261.000000	0.358402
1262.000000	0.358404
1263.000000	0.358457
1264.000000	0.358384
1265.000000	0.358226
1266.000000	0.358176
1267.000000	0.358092
1268.000000	0.358068
1269.000000	0.358065
1270.000000	0.358034
1271.000000	0.357960
1272.000000	0.357867
1273.000000	0.357916
1274.000000	0.357994
1275.000000	0.357952
1276.000000	0.357941
1277.000000	0.357970
1278.000000	0.357782
1279.000000	0.357646
1280.000000	0.357494
1281.000000	0.357383
1282.000000	0.357224
1283.000000	0.357363
1284.000000	0.357751
1285.000000	0.357883
1286.000000	0.357988
1287.000000	0.358053
1288.000000	0.358056
1289.000000	0.358009
1290.000000	0.357974
1291.000000	0.357948
1292.000000	0.357795
1293.000000	0.357621
1294.000000	0.357566
1295.000000	0.357562
1296.000000	0.357627
1297.000000	0.357613
1298.000000	0.357564
1299.000000	0.357666
1300.000000	0.357725
1301.000000	0.357783
1302.000000	0.357696
1303.000000	0.357623
1304.000000	0.357415
1305.000000	0.357111
1306.000000	0.357014
1307.000000	0.357036
1308.000000	0.357070
1309.000000	0.357345
1310.000000	0.357326
1311.000000	0.357102
1312.000000	0.357003
1313.000000	0.356957
1314.000000	0.356717
1315.000000	0.356686
1316.000000	0.356713
1317.000000	0.356574
1318.000000	0.356566
1319.000000	0.356521
1320.000000	0.356411
1321.000000	0.356337
1322.000000	0.356287
1323.000000	0.356150
1324.000000	0.356041
1325.000000	0.355953
1326.000000	0.355663
1327.000000	0.355379
1328.000000	0.355290
1329.000000	0.355136
1330.000000	0.355015
1331.000000	0.354941
1332.000000	0.355000
1333.000000	0.354876
1334.000000	0.354794
1335.000000	0.354671
1336.000000	0.354379
1337.000000	0.354191
1338.000000	0.353985
1339.000000	0.353780
1340.000000	0.353616
1341.000000	0.353457
1342.000000	0.353107
1343.000000	0.352786
1344.000000	0.352577
1345.000000	0.352193
1346.000000	0.352075
1347.000000	0.351949
1348.000000	0.351698
1349.000000	0.351682
1350.000000	0.351647
1351.000000	0.351393
1352.000000	0.351264
1353.000000	0.351066
1354.000000	0.350939
1355.000000	0.350833
1356.000000	0.350573
1357.000000	0.350335
1358.000000	0.350067
1359.000000	0.349819
1360.000000	0.349612
1361.000000	0.349495
1362.000000	0.349264
1363.000000	0.349006
1364.000000	0.348803
1365.000000	0.348561
1366.000000	0.348386
1367.000000	0.348330
1368.000000	0.348000
1369.000000	0.347673
1370.000000	0.347339
1371.000000	0.346798
1372.000000	0.346341
1373.000000	0.346131
1374.000000	0.345641
1375.000000	0.345126
1376.000000	0.344814
1377.000000	0.344359
1378.000000	0.343861
1379.000000	0.343183
1380.000000	0.342377
1381.000000	0.341366
1382.000000	0.340238
1383.000000	0.339237
1384.000000	0.338095
1385.000000	0.336923
1386.000000	0.335877
1387.000000	0.334792
1388.000000	0.333707
1389.000000	0.332855
1390.000000	0.332117
1391.000000	0.331493
1392.000000	0.331161
1393.000000	0.330792
1394.000000	0.330559
1395.000000	0.330311
1396.000000	0.330103
1397.000000	0.329781
1398.000000	0.329483
1399.000000	0.329044
1400.000000	0.328456
1401.000000	0.327854
1402.000000	0.327317
1403.000000	0.326437
1404.000000	0.325550
1405.000000	0.324733
1406.000000	0.323715
1407.000000	0.322782
1408.000000	0.321849
1409.000000	0.321029
1410.000000	0.320422
1411.000000	0.319600
1412.000000	0.318703
1413.000000	0.317902
1414.000000	0.316937
1415.000000	0.316041
1416.000000	0.315289
1417.000000	0.314442
1418.000000	0.313497
1419.000000	0.312621
1420.000000	0.311707
1421.000000	0.310949
1422.000000	0.310247
1423.000000	0.309577
1424.000000	0.308860
1425.000000	0.308149
1426.000000	0.307460
1427.000000	0.306821
1428.000000	0.306198
1429.000000	0.305530
1430.000000	0.304923
1431.000000	0.304346
1432.000000	0.303763
1433.000000	0.303290
1434.000000	0.302808
1435.000000	0.302347
1436.000000	0.301911
1437.000000	0.301542
1438.000000	0.301048
1439.000000	0.300582
1440.000000	0.300104
1441.000000	0.299541
1442.000000	0.299074
1443.000000	0.298575
1444.000000	0.298113
1445.000000	0.297703
1446.000000	0.297342
1447.000000	0.297075
1448.000000	0.296724
1449.000000	0.296324
1450.000000	0.296011
1451.000000	0.295641
1452.000000	0.295198
1453.000000	0.294775
1454.000000	0.294362
1455.000000	0.294016
1456.000000	0.293787
1457.000000	0.293627
1458.000000	0.293525
1459.000000	0.293458
1460.000000	0.293311
1461.000000	0.293223
1462.000000	0.293167
1463.000000	0.292934
1464.000000	0.292832
1465.000000	0.292839
1466.000000	0.292711
1467.000000	0.292661
1468.000000	0.292655
1469.000000	0.292740
1470.000000	0.292806
1471.000000	0.292865
1472.000000	0.293001
1473.000000	0.293069
1474.000000	0.293078
1475.000000	0.293270
1476.000000	0.293512
1477.000000	0.293762
1478.000000	0.294103
1479.000000	0.294443
1480.000000	0.294652
1481.000000	0.294894
1482.000000	0.295196
1483.000000	0.295539
1484.000000	0.295884
1485.000000	0.296242
1486.000000	0.296610
1487.000000	0.297002
1488.000000	0.297466
1489.000000	0.297851
1490.000000	0.298116
1491.000000	0.298442
1492.000000	0.298602
1493.000000	0.298968
1494.000000	0.299513
1495.000000	0.299878
1496.000000	0.300212
1497.000000	0.300562
1498.000000	0.300860
1499.000000	0.301164
1500.000000	0.301502
1501.000000	0.301848
1502.000000	0.302078
1503.000000	0.302260
1504.000000	0.302493
1505.000000	0.302705
1506.000000	0.302902
1507.000000	0.303138
1508.000000	0.303461
1509.000000	0.303714
1510.000000	0.304008
1511.000000	0.304343
1512.000000	0.304510
1513.000000	0.304786
1514.000000	0.305162
1515.000000	0.305418
1516.000000	0.305669
1517.000000	0.305893
1518.000000	0.306027
1519.000000	0.306025
1520.000000	0.306182
1521.000000	0.306246
1522.000000	0.306237
1523.000000	0.306449
1524.000000	0.306507
1525.000000	0.306587
1526.000000	0.306765
1527.000000	0.306927
1528.000000	0.307106
1529.000000	0.307216
1530.000000	0.307235
1531.000000	0.307198
1532.000000	0.307240
1533.000000	0.307307
1534.000000	0.307340
1535.000000	0.307458
1536.000000	0.307590
1537.000000	0.307794
1538.000000	0.307960
1539.000000	0.308066
1540.000000	0.308150
1541.000000	0.308176
1542.000000	0.308210
1543.000000	0.308344
1544.000000	0.308421
1545.000000	0.308430
1546.000000	0.308512
1547.000000	0.308477
1548.000000	0.308398
1549.000000	0.308390
1550.000000	0.308329
1551.000000	0.308317
1552.000000	0.308420
1553.000000	0.308510
1554.000000	0.308569
1555.000000	0.308642
1556.000000	0.308686
1557.000000	0.308660
1558.000000	0.308681
1559.000000	0.308686
1560.000000	0.308659
1561.000000	0.308659
1562.000000	0.308643
1563.000000	0.308656
1564.000000	0.308646
1565.000000	0.308542
1566.000000	0.308522
1567.000000	0.308652
1568.000000	0.308701
1569.000000	0.308920
1570.000000	0.308967
1571.000000	0.308830
1572.000000	0.308798
1573.000000	0.308748
1574.000000	0.308732
1575.000000	0.308823
1576.000000	0.308838
1577.000000	0.308815
1578.000000	0.308730
1579.000000	0.308631
1580.000000	0.308580
1581.000000	0.308542
1582.000000	0.308547
1583.000000	0.308626
1584.000000	0.308564
1585.000000	0.308555
1586.000000	0.308540
1587.000000	0.308442
1588.000000	0.308422
1589.000000	0.308378
1590.000000	0.308455
1591.000000	0.308713
1592.000000	0.308822
1593.000000	0.309012
1594.000000	0.309062
1595.000000	0.308976
1596.000000	0.308980
1597.000000	0.309002
1598.000000	0.309011
1599.000000	0.309082
1600.000000	0.309047
1601.000000	0.308986
1602.000000	0.309036
1603.000000	0.309175
1604.000000	0.309209
1605.000000	0.309311
1606.000000	0.309353
1607.000000	0.309284
1608.000000	0.309288
1609.000000	0.309432
1610.000000	0.309422
1611.000000	0.309385
1612.000000	0.309357
1613.000000	0.309336
1614.000000	0.309340
1615.000000	0.309391
1616.000000	0.309463
1617.000000	0.309535
1618.000000	0.309600
1619.000000	0.309674
1620.000000	0.309794
1621.000000	0.309892
1622.000000	0.310148
1623.000000	0.310507
1624.000000	0.310761
1625.000000	0.311007
1626.000000	0.311088
1627.000000	0.310987
1628.000000	0.311057
1629.000000	0.311086
1630.000000	0.311193
1631.000000	0.311365
1632.000000	0.311484
1633.000000	0.311630
1634.000000	0.311734
1635.000000	0.311798
1636.000000	0.311945
1637.000000	0.312154
1638.000000	0.312279
1639.000000	0.312532
1640.000000	0.312649
1641.000000	0.312649
1642.000000	0.312724
1643.000000	0.312860
1644.000000	0.312956
1645.000000	0.313028
1646.000000	0.313143
1647.000000	0.313287
1648.000000	0.313347
1649.000000	0.313518
1650.000000	0.313663
1651.000000	0.313782
1652.000000	0.313972
1653.000000	0.314171
1654.000000	0.314318
1655.000000	0.314352
1656.000000	0.314456
1657.000000	0.314662
1658.000000	0.314778
1659.000000	0.315029
1660.000000	0.315230
1661.000000	0.315288
1662.000000	0.315365
1663.000000	0.315399
1664.000000	0.315492
1665.000000	0.315508
1666.000000	0.315782
1667.000000	0.316192
1668.000000	0.316434
1669.000000	0.316738
1670.000000	0.316834
1671.000000	0.316784
1672.000000	0.317023
1673.000000	0.317279
1674.000000	0.317520
1675.000000	0.317946
1676.000000	0.318109
1677.000000	0.318265
1678.000000	0.318446
1679.000000	0.318595
1680.000000	0.318758
1681.000000	0.318907
1682.000000	0.319099
1683.000000	0.319163
1684.000000	0.319095
1685.000000	0.319135
1686.000000	0.319186
1687.000000	0.319347
1688.000000	0.319529
1689.000000	0.319609
1690.000000	0.319589
1691.000000	0.319583
1692.000000	0.319567
1693.000000	0.319558
1694.000000	0.319530
1695.000000	0.319653
1696.000000	0.319682
1697.000000	0.319728
1698.000000	0.319831
1699.000000	0.319960
1700.000000	0.320260
1701.000000	0.320461
1702.000000	0.320382
1703.000000	0.320350
1704.000000	0.320222
1705.000000	0.320263
1706.000000	0.320582
1707.000000	0.320736
1708.000000	0.320884
1709.000000	0.320921
1710.000000	0.320870
1711.000000	0.320901
1712.000000	0.320952
1713.000000	0.321028
1714.000000	0.321233
1715.000000	0.321311
1716.000000	0.321311
1717.000000	0.321418
1718.000000	0.321407
1719.000000	0.321549
1720.000000	0.322044
1721.000000	0.322223
1722.000000	0.322296
1723.000000	0.322380
1724.000000	0.322302
1725.000000	0.322349
1726.000000	0.322426
1727.000000	0.322443
1728.000000	0.322347
1729.000000	0.322287
1730.000000	0.322361
1731.000000	0.322393
1732.000000	0.322396
1733.000000	0.322606
1734.000000	0.322794
1735.000000	0.322934
1736.000000	0.323164
1737.000000	0.323302
1738.000000	0.323321
1739.000000	0.323419
1740.000000	0.323614
1741.000000	0.323571
1742.000000	0.323354
1743.000000	0.323454
1744.000000	0.323536
1745.000000	0.323660
1746.000000	0.324039
1747.000000	0.323898
1748.000000	0.323817
1749.000000	0.323600
1750.000000	0.323538
1751.000000	0.323852
1752.000000	0.324075
1753.000000	0.324116
1754.000000	0.324295
1755.000000	0.324439
1756.000000	0.324560
1757.000000	0.324855
1758.000000	0.325033
1759.000000	0.325008
1760.000000	0.325083
1761.000000	0.325143
1762.000000	0.325207
1763.000000	0.325395
1764.000000	0.325425
1765.000000	0.325279
1766.000000	0.325271
1767.000000	0.325136
1768.000000	0.325057
1769.000000	0.325198
1770.000000	0.325290
1771.000000	0.325302
1772.000000	0.325341
1773.000000	0.325344
1774.000000	0.325399
1775.000000	0.325552
1776.000000	0.325620
1777.000000	0.325673
1778.000000	0.325657
1779.000000	0.325517
1780.000000	0.325501
1781.000000	0.325446
1782.000000	0.325487
1783.000000	0.325659
1784.000000	0.325787
1785.000000	0.325935
1786.000000	0.326012
1787.000000	0.326104
1788.000000	0.326019
1789.000000	0.326003
1790.000000	0.326376
1791.000000	0.326419
1792.000000	0.326421
1793.000000	0.326570
1794.000000	0.326596
1795.000000	0.326683
1796.000000	0.327112
1797.000000	0.327264
1798.000000	0.327097
1799.000000	0.327071
1800.000000	0.327039
1801.000000	0.326764
1802.000000	0.326826
1803.000000	0.327617
1804.000000	0.327764
1805.000000	0.327509
1806.000000	0.327663
1807.000000	0.328092
1808.000000	0.328137
1809.000000	0.327968
1810.000000	0.328243
1811.000000	0.328235
1812.000000	0.327660
1813.000000	0.327681
1814.000000	0.328330
1815.000000	0.328504
1816.000000	0.328799
1817.000000	0.328624
1818.000000	0.328321
1819.000000	0.327705
1820.000000	0.326073
1821.000000	0.325492
1822.000000	0.325600
1823.000000	0.326332
1824.000000	0.326501
1825.000000	0.327741
1826.000000	0.327971
1827.000000	0.327220
1828.000000	0.326197
1829.000000	0.326283
1830.000000	0.326040
1831.000000	0.325797
1832.000000	0.325727
1833.000000	0.325820
1834.000000	0.325737
1835.000000	0.325780
1836.000000	0.326249
1837.000000	0.326351
1838.000000	0.326079
1839.000000	0.325875
1840.000000	0.325696
1841.000000	0.325159
1842.000000	0.324839
1843.000000	0.324308
1844.000000	0.324346
1845.000000	0.324771
1846.000000	0.324885
1847.000000	0.325230
1848.000000	0.325147
1849.000000	0.324214
1850.000000	0.323613
1851.000000	0.322953
1852.000000	0.321746
1853.000000	0.321205
1854.000000	0.320987
1855.000000	0.320465
1856.000000	0.319919
1857.000000	0.319463
1858.000000	0.319291
1859.000000	0.318276
1860.000000	0.316301
1861.000000	0.315209
1862.000000	0.314123
1863.000000	0.312520
1864.000000	0.311580
1865.000000	0.311908
1866.000000	0.311061
1867.000000	0.309639
1868.000000	0.308354
1869.000000	0.306596
1870.000000	0.304960
1871.000000	0.303723
1872.000000	0.302626
1873.000000	0.301284
1874.000000	0.300041
1875.000000	0.298341
1876.000000	0.296193
1877.000000	0.293564
1878.000000	0.290765
1879.000000	0.288705
1880.000000	0.286864
1881.000000	0.284650
1882.000000	0.281867
1883.000000	0.278554
1884.000000	0.275360
1885.000000	0.271108
1886.000000	0.267555
1887.000000	0.264421
1888.000000	0.261246
1889.000000	0.257369
1890.000000	0.254382
1891.000000	0.251119
1892.000000	0.247796
1893.000000	0.245421
1894.000000	0.242429
1895.000000	0.239160
1896.000000	0.235944
1897.000000	0.232450
1898.000000	0.228479
1899.000000	0.225169
1900.000000	0.221760
1901.000000	0.218520
1902.000000	0.215388
1903.000000	0.212338
1904.000000	0.209861
1905.000000	0.206983
1906.000000	0.204314
1907.000000	0.201802
1908.000000	0.199463
1909.000000	0.196865
1910.000000	0.195296
1911.000000	0.193557
1912.000000	0.191847
1913.000000	0.190746
1914.000000	0.188841
1915.000000	0.187515
1916.000000	0.185895
1917.000000	0.184206
1918.000000	0.182186
1919.000000	0.181145
1920.000000	0.179927
1921.000000	0.179116
1922.000000	0.178479
1923.000000	0.178486
1924.000000	0.178447
1925.000000	0.178313
1926.000000	0.178871
1927.000000	0.179019
1928.000000	0.179156
1929.000000	0.179411
1930.000000	0.179581
1931.000000	0.179230
1932.000000	0.179045
1933.000000	0.179233
1934.000000	0.179235
1935.000000	0.179207
1936.000000	0.179323
1937.000000	0.178872
1938.000000	0.178586
1939.000000	0.178366
1940.000000	0.178354
1941.000000	0.178218
1942.000000	0.177976
1943.000000	0.177828
1944.000000	0.178098
1945.000000	0.178250
1946.000000	0.178461
1947.000000	0.178353
1948.000000	0.177768
1949.000000	0.176929
1950.000000	0.175742
1951.000000	0.175006
1952.000000	0.174355
1953.000000	0.174153
1954.000000	0.174320
1955.000000	0.174648
1956.000000	0.174875
1957.000000	0.174295
1958.000000	0.173177
1959.000000	0.173082
1960.000000	0.173027
1961.000000	0.172748
1962.000000	0.172827
1963.000000	0.173485
1964.000000	0.173672
1965.000000	0.174127
1966.000000	0.174851
1967.000000	0.174622
1968.000000	0.174463
1969.000000	0.174231
1970.000000	0.173445
1971.000000	0.173224
1972.000000	0.173199
1973.000000	0.173244
1974.000000	0.173306
1975.000000	0.173626
1976.000000	0.174512
1977.000000	0.174979
1978.000000	0.174799
1979.000000	0.175072
1980.000000	0.175309
1981.000000	0.175200
1982.000000	0.175971
1983.000000	0.176586
1984.000000	0.177073
1985.000000	0.177686
1986.000000	0.178452
1987.000000	0.179339
1988.000000	0.179864
1989.000000	0.180393
1990.000000	0.180774
1991.000000	0.181002
1992.000000	0.181061
1993.000000	0.181114
1994.000000	0.181371
1995.000000	0.181615
1996.000000	0.182191
1997.000000	0.182892
1998.000000	0.184171
1999.000000	0.185086
2000.000000	0.186027
2001.000000	0.186648
2002.000000	0.187252
2003.000000	0.188283
2004.000000	0.189210
2005.000000	0.190233
2006.000000	0.191576
2007.000000	0.192001
2008.000000	0.192687
2009.000000	0.193197
2010.000000	0.194004
2011.000000	0.194924
2012.000000	0.195877
2013.000000	0.196955
2014.000000	0.197797
2015.000000	0.198744
2016.000000	0.199568
2017.000000	0.200546
2018.000000	0.201430
2019.000000	0.202218
2020.000000	0.203148
2021.000000	0.203843
2022.000000	0.204063
2023.000000	0.204894
2024.000000	0.206194
2025.000000	0.206997
2026.000000	0.207707
2027.000000	0.208645
2028.000000	0.208783
2029.000000	0.208964
2030.000000	0.210270
2031.000000	0.211857
2032.000000	0.213187
2033.000000	0.214596
2034.000000	0.215681
2035.000000	0.216218
2036.000000	0.216767
2037.000000	0.217520
2038.000000	0.218146
2039.000000	0.218523
2040.000000	0.218915
2041.000000	0.219403
2042.000000	0.219825
2043.000000	0.220629
2044.000000	0.221567
2045.000000	0.223138
2046.000000	0.224791
2047.000000	0.225669
2048.000000	0.225970
2049.000000	0.226674
2050.000000	0.226681
2051.000000	0.226997
2052.000000	0.227724
2053.000000	0.227977
2054.000000	0.228202
2055.000000	0.228153
2056.000000	0.227923
2057.000000	0.228523
2058.000000	0.229226
2059.000000	0.230078
2060.000000	0.231037
2061.000000	0.232285
2062.000000	0.233256
2063.000000	0.234599
2064.000000	0.235232
2065.000000	0.235436
2066.000000	0.236003
2067.000000	0.236698
2068.000000	0.237091
2069.000000	0.238050
2070.000000	0.238768
2071.000000	0.238728
2072.000000	0.238894
2073.000000	0.238799
2074.000000	0.238934
2075.000000	0.239601
2076.000000	0.240978
2077.000000	0.241667
2078.000000	0.242590
2079.000000	0.243104
2080.000000	0.242724
2081.000000	0.243283
2082.000000	0.244334
2083.000000	0.245261
2084.000000	0.246207
2085.000000	0.246980
2086.000000	0.247231
2087.000000	0.247198
2088.000000	0.247846
2089.000000	0.248511
2090.000000	0.249354
2091.000000	0.250763
2092.000000	0.251754
2093.000000	0.252747
2094.000000	0.253472
2095.000000	0.254086
2096.000000	0.254375
2097.000000	0.254177
2098.000000	0.254153
2099.000000	0.254068
2100.000000	0.253980
2101.000000	0.255000
2102.000000	0.255766
2103.000000	0.256404
2104.000000	0.257225
2105.000000	0.258071
2106.000000	0.259042
2107.000000	0.259711
2108.000000	0.260301
2109.000000	0.260949
2110.000000	0.260915
2111.000000	0.261250
2112.000000	0.261897
2113.000000	0.262433
2114.000000	0.262775
2115.000000	0.263215
2116.000000	0.263401
2117.000000	0.263375
2118.000000	0.263024
2119.000000	0.262686
2120.000000	0.262773
2121.000000	0.262883
2122.000000	0.263633
2123.000000	0.265144
2124.000000	0.265969
2125.000000	0.267305
2126.000000	0.267662
2127.000000	0.267053
2128.000000	0.267230
2129.000000	0.267210
2130.000000	0.267065
2131.000000	0.268020
2132.000000	0.268250
2133.000000	0.269007
2134.000000	0.270174
2135.000000	0.270474
2136.000000	0.271043
2137.000000	0.270795
2138.000000	0.269571
2139.000000	0.268884
2140.000000	0.267522
2141.000000	0.267049
2142.000000	0.267181
2143.000000	0.267174
2144.000000	0.267881
2145.000000	0.268532
2146.000000	0.269478
2147.000000	0.270121
2148.000000	0.270905
2149.000000	0.271333
2150.000000	0.271743
2151.000000	0.272131
2152.000000	0.272441
2153.000000	0.272490
2154.000000	0.272349
2155.000000	0.271739
2156.000000	0.271685
2157.000000	0.271773
2158.000000	0.271939
2159.000000	0.272333
2160.000000	0.272808
2161.000000	0.273631
2162.000000	0.273997
2163.000000	0.274402
2164.000000	0.274536
2165.000000	0.274519
2166.000000	0.273295
2167.000000	0.272809
2168.000000	0.272726
2169.000000	0.272107
2170.000000	0.272293
2171.000000	0.272654
2172.000000	0.273232
2173.000000	0.273771
2174.000000	0.275085
2175.000000	0.275393
2176.000000	0.275026
2177.000000	0.274886
2178.000000	0.274665
2179.000000	0.274330
2180.000000	0.274220
2181.000000	0.273850
2182.000000	0.272454
2183.000000	0.270786
2184.000000	0.270625
2185.000000	0.269920
2186.000000	0.270871
2187.000000	0.272291
2188.000000	0.272184
2189.000000	0.273000
2190.000000	0.273491
2191.000000	0.273867
2192.000000	0.274066
2193.000000	0.274803
2194.000000	0.274087
2195.000000	0.271666
2196.000000	0.270995
2197.000000	0.269738
2198.000000	0.269971
2199.000000	0.273340
2200.000000	0.274151
2201.000000	0.274344
2202.000000	0.274540
2203.000000	0.273130
2204.000000	0.271599
2205.000000	0.270652
2206.000000	0.272144
2207.000000	0.274340
2208.000000	0.276695
2209.000000	0.280824
2210.000000	0.282261
2211.000000	0.280668
2212.000000	0.279489
2213.000000	0.277082
2214.000000	0.271467
2215.000000	0.269117
2216.000000	0.267308
2217.000000	0.266749
2218.000000	0.268318
2219.000000	0.269434
2220.000000	0.270257
2221.000000	0.272306
2222.000000	0.276548
2223.000000	0.278609
2224.000000	0.279761
2225.000000	0.282978
2226.000000	0.283297
2227.000000	0.280467
2228.000000	0.279942
2229.000000	0.278174
2230.000000	0.276902
2231.000000	0.277620
2232.000000	0.278250
2233.000000	0.279379
2234.000000	0.278550
2235.000000	0.277178
2236.000000	0.275836
2237.000000	0.272187
2238.000000	0.271244
2239.000000	0.271917
2240.000000	0.272719
2241.000000	0.276054
2242.000000	0.276339
2243.000000	0.275128
2244.000000	0.273800
2245.000000	0.269635
2246.000000	0.268445
2247.000000	0.269445
2248.000000	0.269576
2249.000000	0.270741
2250.000000	0.270569
2251.000000	0.270342
2252.000000	0.271001
2253.000000	0.273324
2254.000000	0.274397
2255.000000	0.274651
2256.000000	0.274336
2257.000000	0.272830
2258.000000	0.273199
2259.000000	0.275742
2260.000000	0.277287
2261.000000	0.277366
2262.000000	0.277167
2263.000000	0.276961
2264.000000	0.274710
2265.000000	0.274181
2266.000000	0.275257
2267.000000	0.275065
2268.000000	0.274097
2269.000000	0.273640
2270.000000	0.274037
2271.000000	0.272719
2272.000000	0.270702
2273.000000	0.268764
2274.000000	0.264638
2275.000000	0.262540
2276.000000	0.261509
2277.000000	0.260639
2278.000000	0.260863
2279.000000	0.260298
2280.000000	0.258874
2281.000000	0.259207
2282.000000	0.257606
2283.000000	0.257361
2284.000000	0.257855
2285.000000	0.256010
2286.000000	0.255579
2287.000000	0.256022
2288.000000	0.255845
2289.000000	0.255912
2290.000000	0.256129
2291.000000	0.255749
2292.000000	0.257584
2293.000000	0.258334
2294.000000	0.258222
2295.000000	0.258666
2296.000000	0.257876
2297.000000	0.254864
2298.000000	0.253588
2299.000000	0.252453
2300.000000	0.251025
2301.000000	0.249628
2302.000000	0.248389
2303.000000	0.246979
2304.000000	0.246196
2305.000000	0.246689
2306.000000	0.245742
2307.000000	0.244289
2308.000000	0.242806
2309.000000	0.240970
2310.000000	0.238168
2311.000000	0.235837
2312.000000	0.234312
2313.000000	0.231939
2314.000000	0.229644
2315.000000	0.230657
2316.000000	0.232320
2317.000000	0.232149
2318.000000	0.234153
2319.000000	0.234610
2320.000000	0.233691
2321.000000	0.236049
2322.000000	0.238436
2323.000000	0.239174
2324.000000	0.239472
2325.000000	0.237805
2326.000000	0.236021
2327.000000	0.235650
2328.000000	0.234287
2329.000000	0.235439
2330.000000	0.235700
2331.000000	0.232064
2332.000000	0.230517
2333.000000	0.228826
2334.000000	0.225748
2335.000000	0.224597
2336.000000	0.225546
2337.000000	0.225628
2338.000000	0.225646
2339.000000	0.225762
2340.000000	0.227102
2341.000000	0.226489
2342.000000	0.223916
2343.000000	0.223743
2344.000000	0.223117
2345.000000	0.223688
2346.000000	0.228070
2347.000000	0.227089
2348.000000	0.224274
2349.000000	0.220554
2350.000000	0.213961
2351.000000	0.212975
2352.000000	0.212108
2353.000000	0.211886
2354.000000	0.212680
2355.000000	0.211711
2356.000000	0.212393
2357.000000	0.214527
2358.000000	0.215134
2359.000000	0.216758
2360.000000	0.218899
2361.000000	0.216568
2362.000000	0.215348
2363.000000	0.213057
2364.000000	0.211489
2365.000000	0.212939
2366.000000	0.212134
2367.000000	0.212543
2368.000000	0.210547
2369.000000	0.207818
2370.000000	0.206343
2371.000000	0.203703
2372.000000	0.203509
2373.000000	0.203711
2374.000000	0.205751
2375.000000	0.207272
2376.000000	0.204001
2377.000000	0.199932
2378.000000	0.195694
2379.000000	0.193309
2380.000000	0.195542
2381.000000	0.196892
2382.000000	0.196747
2383.000000	0.197870
2384.000000	0.194475
2385.000000	0.192860
2386.000000	0.196373
2387.000000	0.195235
2388.000000	0.191711
2389.000000	0.186363
2390.000000	0.178949
2391.000000	0.174333
2392.000000	0.172612
2393.000000	0.175690
2394.000000	0.177792
2395.000000	0.176933
2396.000000	0.175232
2397.000000	0.175252
2398.000000	0.175628
2399.000000	0.169813
2400.000000	0.170941
2401.000000	0.169543
2402.000000	0.160272
2403.000000	0.165555
2404.000000	0.172362
2405.000000	0.167766
2406.000000	0.175360
2407.000000	0.181068
2408.000000	0.172937
2409.000000	0.180043
2410.000000	0.181314
2411.000000	0.177149
2412.000000	0.185320
2413.000000	0.180492
2414.000000	0.176590
2415.000000	0.173795
2416.000000	0.162629
2417.000000	0.164266
2418.000000	0.169385
2419.000000	0.173566
2420.000000	0.181459
2421.000000	0.182225
2422.000000	0.183775
2423.000000	0.184438
2424.000000	0.179490
2425.000000	0.179779
2426.000000	0.171475
2427.000000	0.158469
2428.000000	0.154853
2429.000000	0.152909
2430.000000	0.155605
2431.000000	0.160394
2432.000000	0.163160
2433.000000	0.162817
2434.000000	0.161715
2435.000000	0.161034
2436.000000	0.161634
2437.000000	0.160710
2438.000000	0.151642
2439.000000	0.141647
2440.000000	0.133227
2441.000000	0.132156
2442.000000	0.142146
2443.000000	0.140000
2444.000000	0.146842
2445.000000	0.161646
2446.000000	0.153234
2447.000000	0.165270
2448.000000	0.178683
2449.000000	0.170026
2450.000000	0.169346
2451.000000	0.177016
2452.000000	0.181377
2453.000000	0.186464
2454.000000	0.200931
2455.000000	0.194227
2456.000000	0.185681
2457.000000	0.182899
2458.000000	0.165332
2459.000000	0.168690
2460.000000	0.172170
2461.000000	0.158074
2462.000000	0.165731
2463.000000	0.167194
2464.000000	0.150310
2465.000000	0.156227
2466.000000	0.157925
2467.000000	0.141495
2468.000000	0.150071
2469.000000	0.167643
2470.000000	0.171807
2471.000000	0.177678
2472.000000	0.184481
2473.000000	0.186133
2474.000000	0.172779
2475.000000	0.156371
2476.000000	0.152047
2477.000000	0.142490
2478.000000	0.152196
2479.000000	0.159801
2480.000000	0.146847
2481.000000	0.147231
2482.000000	0.132889
2483.000000	0.135561
2484.000000	0.165912
2485.000000	0.181431
2486.000000	0.162888
2487.000000	0.142974
2488.000000	0.163607
2489.000000	0.162295
2490.000000	0.181281
2491.000000	0.229389
2492.000000	0.242246
2493.000000	0.251172
2494.000000	0.277842
2495.000000	0.312461
2496.000000	0.314983
2497.000000	0.282217
2498.000000	0.265641
2499.000000	0.244782
2500.000000	0.221683
