# Wavelength	SM1200H-20_HEX-60_FV7-20_00001.asd.rts.txt
350.000000	0.301941
351.000000	0.297465
352.000000	0.287097
353.000000	0.278813
354.000000	0.279897
355.000000	0.292737
356.000000	0.302512
357.000000	0.308669
358.000000	0.314559
359.000000	0.311957
360.000000	0.305249
361.000000	0.301114
362.000000	0.303196
363.000000	0.307833
364.000000	0.310829
365.000000	0.311101
366.000000	0.310929
367.000000	0.310516
368.000000	0.309161
369.000000	0.309054
370.000000	0.309290
371.000000	0.308435
372.000000	0.308370
373.000000	0.310146
374.000000	0.314291
375.000000	0.318845
376.000000	0.317594
377.000000	0.312958
378.000000	0.316586
379.000000	0.316033
380.000000	0.313279
381.000000	0.314684
382.000000	0.312247
383.000000	0.310057
384.000000	0.311752
385.000000	0.315723
386.000000	0.318068
387.000000	0.318441
388.000000	0.319692
389.000000	0.319805
390.000000	0.319500
391.000000	0.319949
392.000000	0.321461
393.000000	0.322781
394.000000	0.323105
395.000000	0.323768
396.000000	0.323989
397.000000	0.323680
398.000000	0.323841
399.000000	0.323853
400.000000	0.324463
401.000000	0.326588
402.000000	0.326959
403.000000	0.326421
404.000000	0.326576
405.000000	0.327974
406.000000	0.329198
407.000000	0.329474
408.000000	0.328657
409.000000	0.328343
410.000000	0.328742
411.000000	0.329206
412.000000	0.329838
413.000000	0.330582
414.000000	0.331380
415.000000	0.332045
416.000000	0.332659
417.000000	0.333301
418.000000	0.334068
419.000000	0.334331
420.000000	0.334152
421.000000	0.334163
422.000000	0.334210
423.000000	0.334435
424.000000	0.335045
425.000000	0.335068
426.000000	0.335214
427.000000	0.335898
428.000000	0.336083
429.000000	0.336370
430.000000	0.336908
431.000000	0.337239
432.000000	0.337453
433.000000	0.337720
434.000000	0.338384
435.000000	0.338750
436.000000	0.338952
437.000000	0.339198
438.000000	0.339408
439.000000	0.339510
440.000000	0.339670
441.000000	0.340133
442.000000	0.340179
443.000000	0.339932
444.000000	0.340362
445.000000	0.340569
446.000000	0.340708
447.000000	0.340943
448.000000	0.341371
449.000000	0.341770
450.000000	0.342022
451.000000	0.342315
452.000000	0.342618
453.000000	0.342891
454.000000	0.343424
455.000000	0.343672
456.000000	0.343729
457.000000	0.343736
458.000000	0.344224
459.000000	0.344745
460.000000	0.344965
461.000000	0.345371
462.000000	0.345878
463.000000	0.346198
464.000000	0.346422
465.000000	0.346640
466.000000	0.346800
467.000000	0.346944
468.000000	0.347490
469.000000	0.347874
470.000000	0.347709
471.000000	0.347864
472.000000	0.347942
473.000000	0.347834
474.000000	0.348435
475.000000	0.348708
476.000000	0.348698
477.000000	0.349160
478.000000	0.349297
479.000000	0.349461
480.000000	0.349923
481.000000	0.350156
482.000000	0.350400
483.000000	0.350633
484.000000	0.350883
485.000000	0.351089
486.000000	0.351425
487.000000	0.351690
488.000000	0.351940
489.000000	0.352191
490.000000	0.352408
491.000000	0.352600
492.000000	0.352941
493.000000	0.353397
494.000000	0.353701
495.000000	0.353971
496.000000	0.354264
497.000000	0.354607
498.000000	0.354912
499.000000	0.355226
500.000000	0.355480
501.000000	0.355752
502.000000	0.356104
503.000000	0.356456
504.000000	0.356617
505.000000	0.356795
506.000000	0.357187
507.000000	0.357527
508.000000	0.357846
509.000000	0.358141
510.000000	0.358515
511.000000	0.358880
512.000000	0.359238
513.000000	0.359576
514.000000	0.359849
515.000000	0.360092
516.000000	0.360283
517.000000	0.360538
518.000000	0.360953
519.000000	0.361408
520.000000	0.361664
521.000000	0.361892
522.000000	0.362198
523.000000	0.362572
524.000000	0.362965
525.000000	0.363271
526.000000	0.363424
527.000000	0.363745
528.000000	0.364109
529.000000	0.364384
530.000000	0.364530
531.000000	0.364788
532.000000	0.365157
533.000000	0.365501
534.000000	0.365814
535.000000	0.366075
536.000000	0.366287
537.000000	0.366608
538.000000	0.366976
539.000000	0.367221
540.000000	0.367374
541.000000	0.367581
542.000000	0.367952
543.000000	0.368097
544.000000	0.368260
545.000000	0.368523
546.000000	0.369005
547.000000	0.369406
548.000000	0.369712
549.000000	0.369986
550.000000	0.370289
551.000000	0.370651
552.000000	0.371004
553.000000	0.371308
554.000000	0.371624
555.000000	0.371988
556.000000	0.372309
557.000000	0.372575
558.000000	0.372928
559.000000	0.373217
560.000000	0.373541
561.000000	0.373953
562.000000	0.374284
563.000000	0.374586
564.000000	0.374912
565.000000	0.375179
566.000000	0.375556
567.000000	0.375953
568.000000	0.376296
569.000000	0.376708
570.000000	0.377035
571.000000	0.377279
572.000000	0.377623
573.000000	0.377894
574.000000	0.378114
575.000000	0.378443
576.000000	0.378808
577.000000	0.379121
578.000000	0.379408
579.000000	0.379675
580.000000	0.379959
581.000000	0.380261
582.000000	0.380540
583.000000	0.380826
584.000000	0.381139
585.000000	0.381500
586.000000	0.381805
587.000000	0.382050
588.000000	0.382278
589.000000	0.382600
590.000000	0.382894
591.000000	0.383107
592.000000	0.383406
593.000000	0.383657
594.000000	0.383860
595.000000	0.384161
596.000000	0.384455
597.000000	0.384731
598.000000	0.384894
599.000000	0.385111
600.000000	0.385394
601.000000	0.385622
602.000000	0.385807
603.000000	0.386002
604.000000	0.386222
605.000000	0.386365
606.000000	0.386487
607.000000	0.386636
608.000000	0.386860
609.000000	0.387117
610.000000	0.387402
611.000000	0.387707
612.000000	0.387970
613.000000	0.388148
614.000000	0.388280
615.000000	0.388387
616.000000	0.388470
617.000000	0.388546
618.000000	0.388798
619.000000	0.388941
620.000000	0.388997
621.000000	0.389178
622.000000	0.389373
623.000000	0.389517
624.000000	0.389587
625.000000	0.389697
626.000000	0.389856
627.000000	0.390037
628.000000	0.390130
629.000000	0.390351
630.000000	0.390551
631.000000	0.390755
632.000000	0.390820
633.000000	0.390903
634.000000	0.391139
635.000000	0.391306
636.000000	0.391478
637.000000	0.391677
638.000000	0.391874
639.000000	0.392076
640.000000	0.392314
641.000000	0.392432
642.000000	0.392572
643.000000	0.392729
644.000000	0.392858
645.000000	0.392959
646.000000	0.393100
647.000000	0.393270
648.000000	0.393361
649.000000	0.393554
650.000000	0.393829
651.000000	0.393974
652.000000	0.394108
653.000000	0.394264
654.000000	0.394341
655.000000	0.394491
656.000000	0.394671
657.000000	0.394757
658.000000	0.394865
659.000000	0.395005
660.000000	0.395161
661.000000	0.395367
662.000000	0.395477
663.000000	0.395588
664.000000	0.395799
665.000000	0.395977
666.000000	0.396148
667.000000	0.396324
668.000000	0.396502
669.000000	0.396655
670.000000	0.396784
671.000000	0.396911
672.000000	0.397085
673.000000	0.397271
674.000000	0.397399
675.000000	0.397565
676.000000	0.397741
677.000000	0.397897
678.000000	0.398075
679.000000	0.398230
680.000000	0.398363
681.000000	0.398559
682.000000	0.398779
683.000000	0.398942
684.000000	0.399221
685.000000	0.399366
686.000000	0.399469
687.000000	0.399656
688.000000	0.399817
689.000000	0.399992
690.000000	0.400245
691.000000	0.400475
692.000000	0.400637
693.000000	0.400815
694.000000	0.401008
695.000000	0.401190
696.000000	0.401368
697.000000	0.401563
698.000000	0.401683
699.000000	0.401812
700.000000	0.402018
701.000000	0.402157
702.000000	0.402297
703.000000	0.402426
704.000000	0.402496
705.000000	0.402643
706.000000	0.402794
707.000000	0.402913
708.000000	0.403048
709.000000	0.403169
710.000000	0.403279
711.000000	0.403435
712.000000	0.403599
713.000000	0.403766
714.000000	0.403893
715.000000	0.404063
716.000000	0.404261
717.000000	0.404396
718.000000	0.404579
719.000000	0.404779
720.000000	0.404970
721.000000	0.405130
722.000000	0.405234
723.000000	0.405350
724.000000	0.405435
725.000000	0.405481
726.000000	0.405579
727.000000	0.405645
728.000000	0.405792
729.000000	0.405984
730.000000	0.406111
731.000000	0.406258
732.000000	0.406366
733.000000	0.406459
734.000000	0.406513
735.000000	0.406494
736.000000	0.406573
737.000000	0.406659
738.000000	0.406754
739.000000	0.406929
740.000000	0.407020
741.000000	0.407189
742.000000	0.407301
743.000000	0.407316
744.000000	0.407404
745.000000	0.407421
746.000000	0.407436
747.000000	0.407456
748.000000	0.407561
749.000000	0.407729
750.000000	0.407872
751.000000	0.407943
752.000000	0.407953
753.000000	0.407968
754.000000	0.408072
755.000000	0.408192
756.000000	0.408276
757.000000	0.408247
758.000000	0.408261
759.000000	0.408383
760.000000	0.408531
761.000000	0.408710
762.000000	0.408866
763.000000	0.408971
764.000000	0.409115
765.000000	0.409199
766.000000	0.409245
767.000000	0.409282
768.000000	0.409337
769.000000	0.409382
770.000000	0.409407
771.000000	0.409398
772.000000	0.409514
773.000000	0.409640
774.000000	0.409726
775.000000	0.409780
776.000000	0.409873
777.000000	0.410004
778.000000	0.410052
779.000000	0.410092
780.000000	0.410134
781.000000	0.410106
782.000000	0.410128
783.000000	0.410246
784.000000	0.410247
785.000000	0.410228
786.000000	0.410237
787.000000	0.410276
788.000000	0.410271
789.000000	0.410400
790.000000	0.410553
791.000000	0.410550
792.000000	0.410593
793.000000	0.410657
794.000000	0.410693
795.000000	0.410675
796.000000	0.410673
797.000000	0.410712
798.000000	0.410783
799.000000	0.410832
800.000000	0.410878
801.000000	0.410951
802.000000	0.410946
803.000000	0.410975
804.000000	0.411109
805.000000	0.411132
806.000000	0.411068
807.000000	0.411048
808.000000	0.411058
809.000000	0.411039
810.000000	0.411056
811.000000	0.411120
812.000000	0.411088
813.000000	0.411086
814.000000	0.411108
815.000000	0.411072
816.000000	0.411054
817.000000	0.411049
818.000000	0.410952
819.000000	0.410999
820.000000	0.411078
821.000000	0.411066
822.000000	0.411045
823.000000	0.411047
824.000000	0.411017
825.000000	0.411021
826.000000	0.410987
827.000000	0.410939
828.000000	0.410953
829.000000	0.410999
830.000000	0.411004
831.000000	0.411014
832.000000	0.410926
833.000000	0.410900
834.000000	0.410906
835.000000	0.410932
836.000000	0.410924
837.000000	0.410848
838.000000	0.410769
839.000000	0.410774
840.000000	0.410768
841.000000	0.410771
842.000000	0.410748
843.000000	0.410613
844.000000	0.410555
845.000000	0.410570
846.000000	0.410540
847.000000	0.410525
848.000000	0.410495
849.000000	0.410457
850.000000	0.410445
851.000000	0.410343
852.000000	0.410229
853.000000	0.410309
854.000000	0.410171
855.000000	0.409999
856.000000	0.409897
857.000000	0.409901
858.000000	0.409886
859.000000	0.409719
860.000000	0.409600
861.000000	0.409536
862.000000	0.409545
863.000000	0.409532
864.000000	0.409479
865.000000	0.409437
866.000000	0.409435
867.000000	0.409338
868.000000	0.409233
869.000000	0.409104
870.000000	0.409044
871.000000	0.408993
872.000000	0.408872
873.000000	0.408625
874.000000	0.408535
875.000000	0.408359
876.000000	0.408131
877.000000	0.407907
878.000000	0.407722
879.000000	0.407616
880.000000	0.407440
881.000000	0.407361
882.000000	0.407286
883.000000	0.407193
884.000000	0.407011
885.000000	0.406918
886.000000	0.406811
887.000000	0.406663
888.000000	0.406524
889.000000	0.406339
890.000000	0.406087
891.000000	0.406025
892.000000	0.405833
893.000000	0.405597
894.000000	0.405507
895.000000	0.405349
896.000000	0.405054
897.000000	0.404799
898.000000	0.404777
899.000000	0.404679
900.000000	0.404576
901.000000	0.404466
902.000000	0.404394
903.000000	0.404331
904.000000	0.404198
905.000000	0.403850
906.000000	0.403785
907.000000	0.403597
908.000000	0.403280
909.000000	0.403047
910.000000	0.402854
911.000000	0.402624
912.000000	0.402348
913.000000	0.402213
914.000000	0.401902
915.000000	0.401579
916.000000	0.401534
917.000000	0.401346
918.000000	0.401219
919.000000	0.401216
920.000000	0.400850
921.000000	0.400453
922.000000	0.400130
923.000000	0.399841
924.000000	0.399649
925.000000	0.399410
926.000000	0.399135
927.000000	0.398997
928.000000	0.398870
929.000000	0.398697
930.000000	0.398478
931.000000	0.398351
932.000000	0.398218
933.000000	0.398027
934.000000	0.397658
935.000000	0.397264
936.000000	0.396991
937.000000	0.396757
938.000000	0.396394
939.000000	0.396235
940.000000	0.396178
941.000000	0.396049
942.000000	0.395582
943.000000	0.395233
944.000000	0.395089
945.000000	0.394987
946.000000	0.394670
947.000000	0.394295
948.000000	0.394022
949.000000	0.393764
950.000000	0.393640
951.000000	0.393517
952.000000	0.393202
953.000000	0.392947
954.000000	0.392828
955.000000	0.392690
956.000000	0.392273
957.000000	0.391855
958.000000	0.391465
959.000000	0.391189
960.000000	0.390986
961.000000	0.390821
962.000000	0.390605
963.000000	0.390267
964.000000	0.389943
965.000000	0.389676
966.000000	0.389362
967.000000	0.389258
968.000000	0.388974
969.000000	0.388564
970.000000	0.388428
971.000000	0.388368
972.000000	0.388239
973.000000	0.387885
974.000000	0.387406
975.000000	0.387388
976.000000	0.387495
977.000000	0.387340
978.000000	0.387087
979.000000	0.386847
980.000000	0.386481
981.000000	0.386353
982.000000	0.386309
983.000000	0.386107
984.000000	0.385853
985.000000	0.385792
986.000000	0.385458
987.000000	0.385117
988.000000	0.384888
989.000000	0.384807
990.000000	0.384698
991.000000	0.384571
992.000000	0.384513
993.000000	0.384271
994.000000	0.383993
995.000000	0.383852
996.000000	0.383554
997.000000	0.383713
998.000000	0.383548
999.000000	0.383019
1000.000000	0.383062
1001.000000	0.383574
1002.000000	0.383027
1003.000000	0.383029
1004.000000	0.383076
1005.000000	0.383488
1006.000000	0.383532
1007.000000	0.383839
1008.000000	0.383545
1009.000000	0.382886
1010.000000	0.382382
1011.000000	0.382117
1012.000000	0.382362
1013.000000	0.382511
1014.000000	0.381762
1015.000000	0.381682
1016.000000	0.382131
1017.000000	0.381488
1018.000000	0.381288
1019.000000	0.381303
1020.000000	0.381377
1021.000000	0.380806
1022.000000	0.380583
1023.000000	0.380754
1024.000000	0.380616
1025.000000	0.380722
1026.000000	0.380660
1027.000000	0.380062
1028.000000	0.380248
1029.000000	0.380563
1030.000000	0.380647
1031.000000	0.381034
1032.000000	0.381069
1033.000000	0.380836
1034.000000	0.380912
1035.000000	0.381687
1036.000000	0.381839
1037.000000	0.381404
1038.000000	0.381349
1039.000000	0.381403
1040.000000	0.381737
1041.000000	0.381731
1042.000000	0.382346
1043.000000	0.382785
1044.000000	0.382614
1045.000000	0.382542
1046.000000	0.382210
1047.000000	0.382099
1048.000000	0.381394
1049.000000	0.381642
1050.000000	0.382869
1051.000000	0.383231
1052.000000	0.383539
1053.000000	0.383791
1054.000000	0.383708
1055.000000	0.383904
1056.000000	0.384482
1057.000000	0.384884
1058.000000	0.384763
1059.000000	0.384470
1060.000000	0.384264
1061.000000	0.384316
1062.000000	0.384469
1063.000000	0.385019
1064.000000	0.385405
1065.000000	0.385666
1066.000000	0.385977
1067.000000	0.386317
1068.000000	0.386617
1069.000000	0.387028
1070.000000	0.387166
1071.000000	0.387243
1072.000000	0.387247
1073.000000	0.387063
1074.000000	0.386837
1075.000000	0.386898
1076.000000	0.387126
1077.000000	0.387256
1078.000000	0.387433
1079.000000	0.387619
1080.000000	0.387894
1081.000000	0.387949
1082.000000	0.388057
1083.000000	0.388120
1084.000000	0.387790
1085.000000	0.388036
1086.000000	0.388685
1087.000000	0.389178
1088.000000	0.389961
1089.000000	0.390370
1090.000000	0.390513
1091.000000	0.390456
1092.000000	0.390610
1093.000000	0.390815
1094.000000	0.390783
1095.000000	0.390479
1096.000000	0.390710
1097.000000	0.391030
1098.000000	0.391286
1099.000000	0.391845
1100.000000	0.392288
1101.000000	0.392556
1102.000000	0.392641
1103.000000	0.392598
1104.000000	0.392794
1105.000000	0.392776
1106.000000	0.392918
1107.000000	0.393441
1108.000000	0.393742
1109.000000	0.394119
1110.000000	0.394195
1111.000000	0.394171
1112.000000	0.393891
1113.000000	0.394069
1114.000000	0.394275
1115.000000	0.394481
1116.000000	0.395060
1117.000000	0.395350
1118.000000	0.395406
1119.000000	0.395433
1120.000000	0.395393
1121.000000	0.395463
1122.000000	0.395689
1123.000000	0.395916
1124.000000	0.395854
1125.000000	0.395987
1126.000000	0.395884
1127.000000	0.395924
1128.000000	0.396083
1129.000000	0.396548
1130.000000	0.396840
1131.000000	0.397343
1132.000000	0.397257
1133.000000	0.396804
1134.000000	0.396811
1135.000000	0.396463
1136.000000	0.396546
1137.000000	0.397496
1138.000000	0.397553
1139.000000	0.397176
1140.000000	0.397212
1141.000000	0.396941
1142.000000	0.396886
1143.000000	0.397255
1144.000000	0.397493
1145.000000	0.397400
1146.000000	0.397231
1147.000000	0.397185
1148.000000	0.396993
1149.000000	0.396944
1150.000000	0.397058
1151.000000	0.397054
1152.000000	0.396951
1153.000000	0.396896
1154.000000	0.396759
1155.000000	0.396676
1156.000000	0.396676
1157.000000	0.396598
1158.000000	0.396411
1159.000000	0.396277
1160.000000	0.396100
1161.000000	0.395951
1162.000000	0.395835
1163.000000	0.395977
1164.000000	0.396114
1165.000000	0.396160
1166.000000	0.396182
1167.000000	0.396152
1168.000000	0.396121
1169.000000	0.396022
1170.000000	0.396041
1171.000000	0.396281
1172.000000	0.396331
1173.000000	0.396278
1174.000000	0.396201
1175.000000	0.395853
1176.000000	0.395760
1177.000000	0.395915
1178.000000	0.395970
1179.000000	0.396252
1180.000000	0.396225
1181.000000	0.396034
1182.000000	0.395857
1183.000000	0.395754
1184.000000	0.395834
1185.000000	0.395894
1186.000000	0.396163
1187.000000	0.396147
1188.000000	0.396030
1189.000000	0.395819
1190.000000	0.395462
1191.000000	0.395292
1192.000000	0.395271
1193.000000	0.395284
1194.000000	0.395226
1195.000000	0.395215
1196.000000	0.395118
1197.000000	0.395107
1198.000000	0.395255
1199.000000	0.395315
1200.000000	0.395333
1201.000000	0.395340
1202.000000	0.395401
1203.000000	0.395392
1204.000000	0.395435
1205.000000	0.395524
1206.000000	0.395517
1207.000000	0.395581
1208.000000	0.395546
1209.000000	0.395559
1210.000000	0.395469
1211.000000	0.395200
1212.000000	0.395132
1213.000000	0.395209
1214.000000	0.395191
1215.000000	0.395243
1216.000000	0.395201
1217.000000	0.394878
1218.000000	0.394765
1219.000000	0.394769
1220.000000	0.394911
1221.000000	0.394849
1222.000000	0.394846
1223.000000	0.394879
1224.000000	0.394681
1225.000000	0.394705
1226.000000	0.394817
1227.000000	0.394665
1228.000000	0.394648
1229.000000	0.394558
1230.000000	0.394349
1231.000000	0.394279
1232.000000	0.394416
1233.000000	0.394568
1234.000000	0.394871
1235.000000	0.394898
1236.000000	0.394685
1237.000000	0.394642
1238.000000	0.394428
1239.000000	0.394299
1240.000000	0.394258
1241.000000	0.394255
1242.000000	0.394197
1243.000000	0.394069
1244.000000	0.394095
1245.000000	0.394166
1246.000000	0.394100
1247.000000	0.394260
1248.000000	0.394428
1249.000000	0.394380
1250.000000	0.394453
1251.000000	0.394575
1252.000000	0.394544
1253.000000	0.394463
1254.000000	0.394425
1255.000000	0.394276
1256.000000	0.394194
1257.000000	0.394214
1258.000000	0.394225
1259.000000	0.394094
1260.000000	0.394136
1261.000000	0.394245
1262.000000	0.394288
1263.000000	0.394357
1264.000000	0.394502
1265.000000	0.394518
1266.000000	0.394444
1267.000000	0.394524
1268.000000	0.394594
1269.000000	0.394526
1270.000000	0.394639
1271.000000	0.394676
1272.000000	0.394496
1273.000000	0.394503
1274.000000	0.394486
1275.000000	0.394421
1276.000000	0.394354
1277.000000	0.394455
1278.000000	0.394495
1279.000000	0.394501
1280.000000	0.394490
1281.000000	0.394388
1282.000000	0.394248
1283.000000	0.394295
1284.000000	0.394268
1285.000000	0.394370
1286.000000	0.394666
1287.000000	0.394752
1288.000000	0.394690
1289.000000	0.394711
1290.000000	0.394535
1291.000000	0.394331
1292.000000	0.394413
1293.000000	0.394439
1294.000000	0.394374
1295.000000	0.394398
1296.000000	0.394245
1297.000000	0.394190
1298.000000	0.394331
1299.000000	0.394267
1300.000000	0.394241
1301.000000	0.394160
1302.000000	0.393982
1303.000000	0.393784
1304.000000	0.393710
1305.000000	0.393809
1306.000000	0.393765
1307.000000	0.393786
1308.000000	0.393761
1309.000000	0.393587
1310.000000	0.393546
1311.000000	0.393630
1312.000000	0.393665
1313.000000	0.393624
1314.000000	0.393544
1315.000000	0.393337
1316.000000	0.393150
1317.000000	0.392956
1318.000000	0.392681
1319.000000	0.392460
1320.000000	0.392231
1321.000000	0.391946
1322.000000	0.391802
1323.000000	0.391622
1324.000000	0.391484
1325.000000	0.391401
1326.000000	0.391196
1327.000000	0.390941
1328.000000	0.390753
1329.000000	0.390444
1330.000000	0.389968
1331.000000	0.389736
1332.000000	0.389718
1333.000000	0.389551
1334.000000	0.389495
1335.000000	0.389478
1336.000000	0.389404
1337.000000	0.389199
1338.000000	0.388944
1339.000000	0.388729
1340.000000	0.388194
1341.000000	0.387787
1342.000000	0.387573
1343.000000	0.387247
1344.000000	0.386919
1345.000000	0.386732
1346.000000	0.386612
1347.000000	0.386321
1348.000000	0.386172
1349.000000	0.385806
1350.000000	0.385407
1351.000000	0.385138
1352.000000	0.384837
1353.000000	0.384677
1354.000000	0.384475
1355.000000	0.384135
1356.000000	0.383888
1357.000000	0.383567
1358.000000	0.383233
1359.000000	0.382918
1360.000000	0.382618
1361.000000	0.382368
1362.000000	0.382058
1363.000000	0.381739
1364.000000	0.381457
1365.000000	0.381071
1366.000000	0.380874
1367.000000	0.380848
1368.000000	0.380571
1369.000000	0.380374
1370.000000	0.380031
1371.000000	0.379538
1372.000000	0.378991
1373.000000	0.378435
1374.000000	0.378024
1375.000000	0.377393
1376.000000	0.376830
1377.000000	0.376344
1378.000000	0.375523
1379.000000	0.374658
1380.000000	0.373707
1381.000000	0.372400
1382.000000	0.370983
1383.000000	0.369559
1384.000000	0.367979
1385.000000	0.366522
1386.000000	0.365359
1387.000000	0.364059
1388.000000	0.362734
1389.000000	0.361679
1390.000000	0.360685
1391.000000	0.359859
1392.000000	0.359317
1393.000000	0.358819
1394.000000	0.358578
1395.000000	0.358213
1396.000000	0.357999
1397.000000	0.357445
1398.000000	0.356663
1399.000000	0.355870
1400.000000	0.354929
1401.000000	0.353917
1402.000000	0.352941
1403.000000	0.351721
1404.000000	0.350544
1405.000000	0.349411
1406.000000	0.348230
1407.000000	0.347087
1408.000000	0.345778
1409.000000	0.344376
1410.000000	0.343126
1411.000000	0.341860
1412.000000	0.340533
1413.000000	0.339302
1414.000000	0.338042
1415.000000	0.336832
1416.000000	0.335724
1417.000000	0.334658
1418.000000	0.333504
1419.000000	0.332320
1420.000000	0.331188
1421.000000	0.330202
1422.000000	0.329115
1423.000000	0.328082
1424.000000	0.327051
1425.000000	0.325924
1426.000000	0.324804
1427.000000	0.323831
1428.000000	0.322868
1429.000000	0.321949
1430.000000	0.321149
1431.000000	0.320331
1432.000000	0.319453
1433.000000	0.318564
1434.000000	0.317664
1435.000000	0.316759
1436.000000	0.315953
1437.000000	0.315208
1438.000000	0.314446
1439.000000	0.313822
1440.000000	0.313129
1441.000000	0.312319
1442.000000	0.311675
1443.000000	0.311067
1444.000000	0.310397
1445.000000	0.309783
1446.000000	0.309246
1447.000000	0.308642
1448.000000	0.308022
1449.000000	0.307445
1450.000000	0.306934
1451.000000	0.306416
1452.000000	0.305907
1453.000000	0.305546
1454.000000	0.305219
1455.000000	0.304893
1456.000000	0.304608
1457.000000	0.304347
1458.000000	0.304093
1459.000000	0.303794
1460.000000	0.303473
1461.000000	0.303185
1462.000000	0.302959
1463.000000	0.302714
1464.000000	0.302594
1465.000000	0.302608
1466.000000	0.302445
1467.000000	0.302276
1468.000000	0.302185
1469.000000	0.302052
1470.000000	0.301904
1471.000000	0.301994
1472.000000	0.302170
1473.000000	0.302359
1474.000000	0.302540
1475.000000	0.302695
1476.000000	0.302924
1477.000000	0.303205
1478.000000	0.303451
1479.000000	0.303814
1480.000000	0.304294
1481.000000	0.304684
1482.000000	0.305132
1483.000000	0.305603
1484.000000	0.305977
1485.000000	0.306444
1486.000000	0.307051
1487.000000	0.307576
1488.000000	0.308101
1489.000000	0.308656
1490.000000	0.309042
1491.000000	0.309526
1492.000000	0.310066
1493.000000	0.310578
1494.000000	0.311042
1495.000000	0.311484
1496.000000	0.311938
1497.000000	0.312379
1498.000000	0.312783
1499.000000	0.313247
1500.000000	0.313743
1501.000000	0.313988
1502.000000	0.314259
1503.000000	0.314660
1504.000000	0.315091
1505.000000	0.315558
1506.000000	0.316083
1507.000000	0.316480
1508.000000	0.316774
1509.000000	0.317095
1510.000000	0.317398
1511.000000	0.317767
1512.000000	0.317988
1513.000000	0.318164
1514.000000	0.318488
1515.000000	0.318700
1516.000000	0.318960
1517.000000	0.319218
1518.000000	0.319335
1519.000000	0.319357
1520.000000	0.319439
1521.000000	0.319610
1522.000000	0.319861
1523.000000	0.320098
1524.000000	0.320354
1525.000000	0.320623
1526.000000	0.320647
1527.000000	0.320699
1528.000000	0.320876
1529.000000	0.320876
1530.000000	0.320996
1531.000000	0.321281
1532.000000	0.321316
1533.000000	0.321467
1534.000000	0.321699
1535.000000	0.321802
1536.000000	0.321943
1537.000000	0.322194
1538.000000	0.322459
1539.000000	0.322523
1540.000000	0.322571
1541.000000	0.322695
1542.000000	0.322759
1543.000000	0.322895
1544.000000	0.323042
1545.000000	0.323183
1546.000000	0.323229
1547.000000	0.323183
1548.000000	0.323254
1549.000000	0.323269
1550.000000	0.323201
1551.000000	0.323250
1552.000000	0.323304
1553.000000	0.323272
1554.000000	0.323307
1555.000000	0.323348
1556.000000	0.323358
1557.000000	0.323343
1558.000000	0.323338
1559.000000	0.323269
1560.000000	0.323207
1561.000000	0.323166
1562.000000	0.323166
1563.000000	0.323232
1564.000000	0.323276
1565.000000	0.323315
1566.000000	0.323276
1567.000000	0.323347
1568.000000	0.323295
1569.000000	0.323226
1570.000000	0.323185
1571.000000	0.323075
1572.000000	0.322966
1573.000000	0.322892
1574.000000	0.322836
1575.000000	0.322687
1576.000000	0.322764
1577.000000	0.323031
1578.000000	0.323134
1579.000000	0.323396
1580.000000	0.323474
1581.000000	0.323415
1582.000000	0.323398
1583.000000	0.323368
1584.000000	0.323265
1585.000000	0.323152
1586.000000	0.323129
1587.000000	0.323119
1588.000000	0.323123
1589.000000	0.323251
1590.000000	0.323262
1591.000000	0.323200
1592.000000	0.323196
1593.000000	0.323180
1594.000000	0.323203
1595.000000	0.323321
1596.000000	0.323442
1597.000000	0.323670
1598.000000	0.323749
1599.000000	0.323858
1600.000000	0.323836
1601.000000	0.323651
1602.000000	0.323641
1603.000000	0.323698
1604.000000	0.323732
1605.000000	0.323889
1606.000000	0.323944
1607.000000	0.323984
1608.000000	0.324050
1609.000000	0.324157
1610.000000	0.324261
1611.000000	0.324398
1612.000000	0.324497
1613.000000	0.324681
1614.000000	0.324784
1615.000000	0.324921
1616.000000	0.325042
1617.000000	0.325076
1618.000000	0.325152
1619.000000	0.325165
1620.000000	0.325287
1621.000000	0.325524
1622.000000	0.325750
1623.000000	0.325998
1624.000000	0.326214
1625.000000	0.326241
1626.000000	0.326336
1627.000000	0.326491
1628.000000	0.326675
1629.000000	0.326896
1630.000000	0.327152
1631.000000	0.327364
1632.000000	0.327510
1633.000000	0.327603
1634.000000	0.327793
1635.000000	0.328094
1636.000000	0.328297
1637.000000	0.328587
1638.000000	0.328708
1639.000000	0.328637
1640.000000	0.328754
1641.000000	0.328993
1642.000000	0.329210
1643.000000	0.329549
1644.000000	0.329778
1645.000000	0.329931
1646.000000	0.330070
1647.000000	0.330233
1648.000000	0.330390
1649.000000	0.330577
1650.000000	0.330870
1651.000000	0.331334
1652.000000	0.331582
1653.000000	0.331711
1654.000000	0.331932
1655.000000	0.331971
1656.000000	0.332104
1657.000000	0.332436
1658.000000	0.332696
1659.000000	0.333018
1660.000000	0.333378
1661.000000	0.333766
1662.000000	0.334021
1663.000000	0.334157
1664.000000	0.334356
1665.000000	0.334504
1666.000000	0.334767
1667.000000	0.335061
1668.000000	0.335255
1669.000000	0.335303
1670.000000	0.335501
1671.000000	0.335889
1672.000000	0.336218
1673.000000	0.336610
1674.000000	0.336804
1675.000000	0.337013
1676.000000	0.337252
1677.000000	0.337476
1678.000000	0.337618
1679.000000	0.337570
1680.000000	0.337462
1681.000000	0.337541
1682.000000	0.337722
1683.000000	0.337900
1684.000000	0.338028
1685.000000	0.338153
1686.000000	0.338346
1687.000000	0.338568
1688.000000	0.338736
1689.000000	0.338957
1690.000000	0.339076
1691.000000	0.339189
1692.000000	0.339299
1693.000000	0.339416
1694.000000	0.339394
1695.000000	0.339428
1696.000000	0.339586
1697.000000	0.339648
1698.000000	0.339754
1699.000000	0.339969
1700.000000	0.340206
1701.000000	0.340488
1702.000000	0.340781
1703.000000	0.340941
1704.000000	0.341073
1705.000000	0.341167
1706.000000	0.341186
1707.000000	0.341282
1708.000000	0.341354
1709.000000	0.341403
1710.000000	0.341617
1711.000000	0.341781
1712.000000	0.341975
1713.000000	0.342055
1714.000000	0.342086
1715.000000	0.342166
1716.000000	0.342180
1717.000000	0.342247
1718.000000	0.342330
1719.000000	0.342467
1720.000000	0.342730
1721.000000	0.342905
1722.000000	0.343137
1723.000000	0.343270
1724.000000	0.343311
1725.000000	0.343405
1726.000000	0.343410
1727.000000	0.343437
1728.000000	0.343322
1729.000000	0.343356
1730.000000	0.343659
1731.000000	0.343781
1732.000000	0.343907
1733.000000	0.344171
1734.000000	0.344249
1735.000000	0.344428
1736.000000	0.344765
1737.000000	0.344967
1738.000000	0.345098
1739.000000	0.345220
1740.000000	0.345297
1741.000000	0.345456
1742.000000	0.345591
1743.000000	0.345840
1744.000000	0.346254
1745.000000	0.346340
1746.000000	0.346257
1747.000000	0.346387
1748.000000	0.346430
1749.000000	0.346682
1750.000000	0.346764
1751.000000	0.346705
1752.000000	0.346840
1753.000000	0.346886
1754.000000	0.346963
1755.000000	0.347113
1756.000000	0.347174
1757.000000	0.347194
1758.000000	0.347211
1759.000000	0.347100
1760.000000	0.347113
1761.000000	0.347105
1762.000000	0.347179
1763.000000	0.347429
1764.000000	0.347605
1765.000000	0.347782
1766.000000	0.347921
1767.000000	0.347921
1768.000000	0.347933
1769.000000	0.348079
1770.000000	0.348114
1771.000000	0.347951
1772.000000	0.348013
1773.000000	0.348031
1774.000000	0.348142
1775.000000	0.348577
1776.000000	0.348737
1777.000000	0.348716
1778.000000	0.348767
1779.000000	0.348698
1780.000000	0.348885
1781.000000	0.349226
1782.000000	0.349305
1783.000000	0.349396
1784.000000	0.349583
1785.000000	0.349777
1786.000000	0.350039
1787.000000	0.350285
1788.000000	0.350489
1789.000000	0.350533
1790.000000	0.350616
1791.000000	0.350723
1792.000000	0.350841
1793.000000	0.350863
1794.000000	0.350865
1795.000000	0.351056
1796.000000	0.351228
1797.000000	0.351391
1798.000000	0.351788
1799.000000	0.352008
1800.000000	0.352071
1801.000000	0.351673
1802.000000	0.352229
1803.000000	0.351964
1804.000000	0.352607
1805.000000	0.355300
1806.000000	0.355967
1807.000000	0.355819
1808.000000	0.355449
1809.000000	0.354285
1810.000000	0.352638
1811.000000	0.351931
1812.000000	0.351270
1813.000000	0.351015
1814.000000	0.351476
1815.000000	0.351638
1816.000000	0.351556
1817.000000	0.351879
1818.000000	0.352378
1819.000000	0.353612
1820.000000	0.354748
1821.000000	0.354736
1822.000000	0.354561
1823.000000	0.353121
1824.000000	0.352743
1825.000000	0.352520
1826.000000	0.352392
1827.000000	0.352605
1828.000000	0.352592
1829.000000	0.352576
1830.000000	0.352675
1831.000000	0.352674
1832.000000	0.352721
1833.000000	0.352898
1834.000000	0.353231
1835.000000	0.353182
1836.000000	0.352862
1837.000000	0.352812
1838.000000	0.352436
1839.000000	0.352165
1840.000000	0.351934
1841.000000	0.352312
1842.000000	0.352357
1843.000000	0.352109
1844.000000	0.351878
1845.000000	0.351911
1846.000000	0.351505
1847.000000	0.350329
1848.000000	0.349769
1849.000000	0.349411
1850.000000	0.348311
1851.000000	0.347534
1852.000000	0.346804
1853.000000	0.346301
1854.000000	0.345647
1855.000000	0.344962
1856.000000	0.344506
1857.000000	0.343823
1858.000000	0.342741
1859.000000	0.341667
1860.000000	0.340391
1861.000000	0.339121
1862.000000	0.337503
1863.000000	0.335452
1864.000000	0.334021
1865.000000	0.332770
1866.000000	0.331223
1867.000000	0.330231
1868.000000	0.327992
1869.000000	0.325693
1870.000000	0.323801
1871.000000	0.321720
1872.000000	0.320216
1873.000000	0.318190
1874.000000	0.315796
1875.000000	0.313511
1876.000000	0.310949
1877.000000	0.308047
1878.000000	0.305234
1879.000000	0.302280
1880.000000	0.299109
1881.000000	0.295714
1882.000000	0.292148
1883.000000	0.288501
1884.000000	0.284899
1885.000000	0.281130
1886.000000	0.277147
1887.000000	0.273034
1888.000000	0.268775
1889.000000	0.264439
1890.000000	0.259804
1891.000000	0.255595
1892.000000	0.251583
1893.000000	0.247183
1894.000000	0.243072
1895.000000	0.238834
1896.000000	0.234851
1897.000000	0.230136
1898.000000	0.225605
1899.000000	0.221985
1900.000000	0.217634
1901.000000	0.213748
1902.000000	0.211222
1903.000000	0.207934
1904.000000	0.204923
1905.000000	0.202076
1906.000000	0.198780
1907.000000	0.194694
1908.000000	0.191430
1909.000000	0.188310
1910.000000	0.185082
1911.000000	0.183082
1912.000000	0.180924
1913.000000	0.178826
1914.000000	0.177412
1915.000000	0.175768
1916.000000	0.173908
1917.000000	0.172188
1918.000000	0.170402
1919.000000	0.169490
1920.000000	0.168690
1921.000000	0.167802
1922.000000	0.166966
1923.000000	0.165731
1924.000000	0.164810
1925.000000	0.163990
1926.000000	0.163751
1927.000000	0.164295
1928.000000	0.164445
1929.000000	0.164569
1930.000000	0.164711
1931.000000	0.164717
1932.000000	0.164155
1933.000000	0.163732
1934.000000	0.163558
1935.000000	0.163794
1936.000000	0.164139
1937.000000	0.164181
1938.000000	0.164203
1939.000000	0.164016
1940.000000	0.163418
1941.000000	0.162928
1942.000000	0.162945
1943.000000	0.162935
1944.000000	0.163332
1945.000000	0.163791
1946.000000	0.163649
1947.000000	0.163507
1948.000000	0.163108
1949.000000	0.162156
1950.000000	0.161695
1951.000000	0.161101
1952.000000	0.160419
1953.000000	0.159527
1954.000000	0.159384
1955.000000	0.159071
1956.000000	0.158939
1957.000000	0.158554
1958.000000	0.157801
1959.000000	0.157533
1960.000000	0.157061
1961.000000	0.157093
1962.000000	0.156957
1963.000000	0.157179
1964.000000	0.156685
1965.000000	0.156085
1966.000000	0.155267
1967.000000	0.154967
1968.000000	0.154885
1969.000000	0.154407
1970.000000	0.154891
1971.000000	0.155522
1972.000000	0.155670
1973.000000	0.156094
1974.000000	0.157348
1975.000000	0.157744
1976.000000	0.157577
1977.000000	0.157922
1978.000000	0.157698
1979.000000	0.157491
1980.000000	0.157946
1981.000000	0.158359
1982.000000	0.159093
1983.000000	0.159752
1984.000000	0.160400
1985.000000	0.161064
1986.000000	0.161562
1987.000000	0.161973
1988.000000	0.162695
1989.000000	0.163192
1990.000000	0.163247
1991.000000	0.163439
1992.000000	0.163832
1993.000000	0.164609
1994.000000	0.165725
1995.000000	0.166479
1996.000000	0.167299
1997.000000	0.168043
1998.000000	0.168143
1999.000000	0.168908
2000.000000	0.170266
2001.000000	0.171168
2002.000000	0.172204
2003.000000	0.173465
2004.000000	0.174107
2005.000000	0.175715
2006.000000	0.177313
2007.000000	0.178429
2008.000000	0.179240
2009.000000	0.179415
2010.000000	0.179848
2011.000000	0.179753
2012.000000	0.180316
2013.000000	0.180864
2014.000000	0.182784
2015.000000	0.184297
2016.000000	0.185621
2017.000000	0.187266
2018.000000	0.188213
2019.000000	0.189384
2020.000000	0.190269
2021.000000	0.191390
2022.000000	0.192802
2023.000000	0.193767
2024.000000	0.194534
2025.000000	0.195633
2026.000000	0.196550
2027.000000	0.197255
2028.000000	0.198644
2029.000000	0.199789
2030.000000	0.200437
2031.000000	0.201256
2032.000000	0.202415
2033.000000	0.203476
2034.000000	0.204413
2035.000000	0.205665
2036.000000	0.206472
2037.000000	0.206969
2038.000000	0.207526
2039.000000	0.207900
2040.000000	0.208738
2041.000000	0.209348
2042.000000	0.209948
2043.000000	0.211592
2044.000000	0.212952
2045.000000	0.214164
2046.000000	0.215651
2047.000000	0.216217
2048.000000	0.215410
2049.000000	0.216247
2050.000000	0.216799
2051.000000	0.217901
2052.000000	0.220472
2053.000000	0.221815
2054.000000	0.222812
2055.000000	0.224206
2056.000000	0.224749
2057.000000	0.225642
2058.000000	0.226172
2059.000000	0.226688
2060.000000	0.227386
2061.000000	0.228247
2062.000000	0.228598
2063.000000	0.228738
2064.000000	0.229018
2065.000000	0.228882
2066.000000	0.229549
2067.000000	0.231176
2068.000000	0.232718
2069.000000	0.233712
2070.000000	0.234341
2071.000000	0.233943
2072.000000	0.233861
2073.000000	0.234733
2074.000000	0.235553
2075.000000	0.236694
2076.000000	0.238849
2077.000000	0.239873
2078.000000	0.240399
2079.000000	0.241135
2080.000000	0.241590
2081.000000	0.242128
2082.000000	0.242527
2083.000000	0.243290
2084.000000	0.244822
2085.000000	0.245782
2086.000000	0.247088
2087.000000	0.248967
2088.000000	0.249433
2089.000000	0.249971
2090.000000	0.250617
2091.000000	0.251098
2092.000000	0.251528
2093.000000	0.252175
2094.000000	0.252732
2095.000000	0.253070
2096.000000	0.253809
2097.000000	0.254833
2098.000000	0.255289
2099.000000	0.256602
2100.000000	0.257864
2101.000000	0.258416
2102.000000	0.259098
2103.000000	0.259380
2104.000000	0.259431
2105.000000	0.259843
2106.000000	0.260426
2107.000000	0.261254
2108.000000	0.262367
2109.000000	0.263344
2110.000000	0.264658
2111.000000	0.265457
2112.000000	0.265780
2113.000000	0.266006
2114.000000	0.266183
2115.000000	0.266662
2116.000000	0.267252
2117.000000	0.267395
2118.000000	0.266905
2119.000000	0.266549
2120.000000	0.266643
2121.000000	0.266428
2122.000000	0.266909
2123.000000	0.268541
2124.000000	0.269420
2125.000000	0.270394
2126.000000	0.271196
2127.000000	0.271443
2128.000000	0.272233
2129.000000	0.273197
2130.000000	0.274096
2131.000000	0.275446
2132.000000	0.275637
2133.000000	0.275294
2134.000000	0.275611
2135.000000	0.275558
2136.000000	0.275456
2137.000000	0.275459
2138.000000	0.275782
2139.000000	0.275620
2140.000000	0.274864
2141.000000	0.274858
2142.000000	0.274945
2143.000000	0.274866
2144.000000	0.275600
2145.000000	0.276073
2146.000000	0.276383
2147.000000	0.276703
2148.000000	0.277339
2149.000000	0.277829
2150.000000	0.278137
2151.000000	0.278649
2152.000000	0.279052
2153.000000	0.278947
2154.000000	0.279222
2155.000000	0.279553
2156.000000	0.279916
2157.000000	0.280839
2158.000000	0.281118
2159.000000	0.281491
2160.000000	0.281366
2161.000000	0.279850
2162.000000	0.279505
2163.000000	0.279168
2164.000000	0.279030
2165.000000	0.279462
2166.000000	0.280638
2167.000000	0.280874
2168.000000	0.281321
2169.000000	0.282016
2170.000000	0.282296
2171.000000	0.282330
2172.000000	0.282287
2173.000000	0.282221
2174.000000	0.281598
2175.000000	0.281265
2176.000000	0.280967
2177.000000	0.281026
2178.000000	0.281736
2179.000000	0.281737
2180.000000	0.281346
2181.000000	0.281513
2182.000000	0.280713
2183.000000	0.280421
2184.000000	0.281313
2185.000000	0.281764
2186.000000	0.282002
2187.000000	0.281479
2188.000000	0.280999
2189.000000	0.280986
2190.000000	0.279608
2191.000000	0.279597
2192.000000	0.279621
2193.000000	0.279357
2194.000000	0.279788
2195.000000	0.281795
2196.000000	0.282680
2197.000000	0.283678
2198.000000	0.283526
2199.000000	0.282245
2200.000000	0.281256
2201.000000	0.279229
2202.000000	0.277789
2203.000000	0.275809
2204.000000	0.275284
2205.000000	0.276501
2206.000000	0.276450
2207.000000	0.276723
2208.000000	0.278332
2209.000000	0.279558
2210.000000	0.279967
2211.000000	0.281958
2212.000000	0.285207
2213.000000	0.286469
2214.000000	0.286494
2215.000000	0.286646
2216.000000	0.286461
2217.000000	0.285420
2218.000000	0.283019
2219.000000	0.281938
2220.000000	0.279803
2221.000000	0.279393
2222.000000	0.281446
2223.000000	0.282163
2224.000000	0.282469
2225.000000	0.284622
2226.000000	0.283685
2227.000000	0.281747
2228.000000	0.281751
2229.000000	0.279109
2230.000000	0.279651
2231.000000	0.282940
2232.000000	0.284979
2233.000000	0.285943
2234.000000	0.283787
2235.000000	0.280346
2236.000000	0.278923
2237.000000	0.277249
2238.000000	0.277300
2239.000000	0.279657
2240.000000	0.280725
2241.000000	0.281977
2242.000000	0.281764
2243.000000	0.280684
2244.000000	0.280643
2245.000000	0.279554
2246.000000	0.279585
2247.000000	0.280676
2248.000000	0.281498
2249.000000	0.282127
2250.000000	0.284928
2251.000000	0.283881
2252.000000	0.283455
2253.000000	0.283233
2254.000000	0.279911
2255.000000	0.281028
2256.000000	0.282105
2257.000000	0.279847
2258.000000	0.278653
2259.000000	0.276821
2260.000000	0.274169
2261.000000	0.273386
2262.000000	0.274970
2263.000000	0.275530
2264.000000	0.276167
2265.000000	0.277041
2266.000000	0.278120
2267.000000	0.278602
2268.000000	0.279609
2269.000000	0.279734
2270.000000	0.279502
2271.000000	0.277817
2272.000000	0.273595
2273.000000	0.271740
2274.000000	0.269178
2275.000000	0.269140
2276.000000	0.272381
2277.000000	0.274423
2278.000000	0.275573
2279.000000	0.276353
2280.000000	0.273737
2281.000000	0.270760
2282.000000	0.269027
2283.000000	0.267611
2284.000000	0.267259
2285.000000	0.267727
2286.000000	0.266999
2287.000000	0.264066
2288.000000	0.260095
2289.000000	0.257355
2290.000000	0.255330
2291.000000	0.253309
2292.000000	0.253525
2293.000000	0.253010
2294.000000	0.253110
2295.000000	0.254663
2296.000000	0.254168
2297.000000	0.252350
2298.000000	0.251977
2299.000000	0.250697
2300.000000	0.250639
2301.000000	0.253387
2302.000000	0.254046
2303.000000	0.253974
2304.000000	0.252311
2305.000000	0.248114
2306.000000	0.245708
2307.000000	0.242471
2308.000000	0.241138
2309.000000	0.241668
2310.000000	0.242455
2311.000000	0.241758
2312.000000	0.241268
2313.000000	0.240868
2314.000000	0.240192
2315.000000	0.240697
2316.000000	0.241258
2317.000000	0.240294
2318.000000	0.238167
2319.000000	0.236212
2320.000000	0.234605
2321.000000	0.235508
2322.000000	0.236608
2323.000000	0.235091
2324.000000	0.234030
2325.000000	0.231195
2326.000000	0.228744
2327.000000	0.228593
2328.000000	0.228436
2329.000000	0.230659
2330.000000	0.232785
2331.000000	0.232803
2332.000000	0.231008
2333.000000	0.228501
2334.000000	0.225901
2335.000000	0.224354
2336.000000	0.224385
2337.000000	0.224284
2338.000000	0.224266
2339.000000	0.223862
2340.000000	0.223733
2341.000000	0.222901
2342.000000	0.220833
2343.000000	0.220203
2344.000000	0.221126
2345.000000	0.220565
2346.000000	0.220348
2347.000000	0.218523
2348.000000	0.215720
2349.000000	0.210276
2350.000000	0.204345
2351.000000	0.200876
2352.000000	0.198302
2353.000000	0.199124
2354.000000	0.202049
2355.000000	0.205151
2356.000000	0.209771
2357.000000	0.209062
2358.000000	0.206731
2359.000000	0.204392
2360.000000	0.198795
2361.000000	0.197787
2362.000000	0.198276
2363.000000	0.197678
2364.000000	0.196508
2365.000000	0.193943
2366.000000	0.190947
2367.000000	0.187106
2368.000000	0.184591
2369.000000	0.183656
2370.000000	0.183639
2371.000000	0.185046
2372.000000	0.186887
2373.000000	0.188268
2374.000000	0.188584
2375.000000	0.189533
2376.000000	0.189322
2377.000000	0.186889
2378.000000	0.186930
2379.000000	0.184344
2380.000000	0.182791
2381.000000	0.182543
2382.000000	0.177293
2383.000000	0.174236
2384.000000	0.172541
2385.000000	0.173826
2386.000000	0.173384
2387.000000	0.167822
2388.000000	0.163314
2389.000000	0.158750
2390.000000	0.158383
2391.000000	0.166369
2392.000000	0.174502
2393.000000	0.174105
2394.000000	0.172861
2395.000000	0.168052
2396.000000	0.159030
2397.000000	0.160093
2398.000000	0.164799
2399.000000	0.166440
2400.000000	0.169252
2401.000000	0.170953
2402.000000	0.167814
2403.000000	0.159969
2404.000000	0.157571
2405.000000	0.152182
2406.000000	0.143649
2407.000000	0.147796
2408.000000	0.145923
2409.000000	0.141851
2410.000000	0.142043
2411.000000	0.136671
2412.000000	0.135856
2413.000000	0.136991
2414.000000	0.143272
2415.000000	0.152386
2416.000000	0.161477
2417.000000	0.174338
2418.000000	0.176988
2419.000000	0.174241
2420.000000	0.167402
2421.000000	0.160427
2422.000000	0.159015
2423.000000	0.153939
2424.000000	0.148049
2425.000000	0.138011
2426.000000	0.129199
2427.000000	0.130019
2428.000000	0.131824
2429.000000	0.132159
2430.000000	0.138502
2431.000000	0.136996
2432.000000	0.135479
2433.000000	0.147505
2434.000000	0.153664
2435.000000	0.165524
2436.000000	0.169013
2437.000000	0.159309
2438.000000	0.146212
2439.000000	0.119244
2440.000000	0.102529
2441.000000	0.098224
2442.000000	0.097152
2443.000000	0.107807
2444.000000	0.119308
2445.000000	0.126684
2446.000000	0.140267
2447.000000	0.141368
2448.000000	0.140428
2449.000000	0.139244
2450.000000	0.125703
2451.000000	0.123020
2452.000000	0.127578
2453.000000	0.135283
2454.000000	0.145768
2455.000000	0.148076
2456.000000	0.142522
2457.000000	0.132622
2458.000000	0.127544
2459.000000	0.137088
2460.000000	0.139130
2461.000000	0.124928
2462.000000	0.114173
2463.000000	0.110685
2464.000000	0.118390
2465.000000	0.143043
2466.000000	0.172924
2467.000000	0.170262
2468.000000	0.162211
2469.000000	0.162556
2470.000000	0.144747
2471.000000	0.135440
2472.000000	0.130918
2473.000000	0.115490
2474.000000	0.113801
2475.000000	0.113186
2476.000000	0.111063
2477.000000	0.117204
2478.000000	0.112898
2479.000000	0.116963
2480.000000	0.124481
2481.000000	0.126833
2482.000000	0.148212
2483.000000	0.161728
2484.000000	0.146759
2485.000000	0.119385
2486.000000	0.093485
2487.000000	0.085068
2488.000000	0.105778
2489.000000	0.138597
2490.000000	0.156705
2491.000000	0.138120
2492.000000	0.136438
2493.000000	0.163479
2494.000000	0.168062
2495.000000	0.154562
2496.000000	0.135879
2497.000000	0.081777
2498.000000	0.052418
2499.000000	0.045198
2500.000000	0.048525
