# Wavelength	SM1200H-70_FV7-30_00001.asd.rts.txt
350.000000	0.332596
351.000000	0.322633
352.000000	0.316549
353.000000	0.316996
354.000000	0.324218
355.000000	0.329411
356.000000	0.329845
357.000000	0.328553
358.000000	0.327154
359.000000	0.326358
360.000000	0.326082
361.000000	0.325552
362.000000	0.325502
363.000000	0.326389
364.000000	0.327624
365.000000	0.329502
366.000000	0.329246
367.000000	0.327282
368.000000	0.327700
369.000000	0.329531
370.000000	0.331377
371.000000	0.331880
372.000000	0.332271
373.000000	0.333502
374.000000	0.335827
375.000000	0.334949
376.000000	0.334436
377.000000	0.335312
378.000000	0.336755
379.000000	0.337825
380.000000	0.337879
381.000000	0.337809
382.000000	0.338712
383.000000	0.339787
384.000000	0.340502
385.000000	0.340179
386.000000	0.340730
387.000000	0.342371
388.000000	0.343064
389.000000	0.343052
390.000000	0.343162
391.000000	0.343925
392.000000	0.343985
393.000000	0.343948
394.000000	0.344456
395.000000	0.345543
396.000000	0.346225
397.000000	0.346212
398.000000	0.346178
399.000000	0.346411
400.000000	0.347048
401.000000	0.347885
402.000000	0.348168
403.000000	0.348144
404.000000	0.348400
405.000000	0.349000
406.000000	0.349797
407.000000	0.350618
408.000000	0.351031
409.000000	0.351118
410.000000	0.351219
411.000000	0.351782
412.000000	0.351993
413.000000	0.352124
414.000000	0.352574
415.000000	0.352703
416.000000	0.352893
417.000000	0.353393
418.000000	0.354090
419.000000	0.354514
420.000000	0.354634
421.000000	0.354762
422.000000	0.355017
423.000000	0.355281
424.000000	0.355500
425.000000	0.355960
426.000000	0.356388
427.000000	0.356572
428.000000	0.356754
429.000000	0.357132
430.000000	0.357647
431.000000	0.357834
432.000000	0.358204
433.000000	0.358573
434.000000	0.358638
435.000000	0.359025
436.000000	0.359410
437.000000	0.359435
438.000000	0.359650
439.000000	0.359804
440.000000	0.359917
441.000000	0.360116
442.000000	0.360302
443.000000	0.360471
444.000000	0.360921
445.000000	0.361268
446.000000	0.361567
447.000000	0.361743
448.000000	0.362008
449.000000	0.362177
450.000000	0.362210
451.000000	0.362527
452.000000	0.362907
453.000000	0.363178
454.000000	0.363536
455.000000	0.363762
456.000000	0.364027
457.000000	0.364382
458.000000	0.364679
459.000000	0.364928
460.000000	0.365242
461.000000	0.365654
462.000000	0.365971
463.000000	0.365978
464.000000	0.366167
465.000000	0.366391
466.000000	0.366584
467.000000	0.366904
468.000000	0.367143
469.000000	0.367253
470.000000	0.367464
471.000000	0.367654
472.000000	0.367812
473.000000	0.367977
474.000000	0.368134
475.000000	0.368232
476.000000	0.368437
477.000000	0.368653
478.000000	0.368748
479.000000	0.369001
480.000000	0.369327
481.000000	0.369382
482.000000	0.369552
483.000000	0.369874
484.000000	0.370240
485.000000	0.370432
486.000000	0.370611
487.000000	0.370747
488.000000	0.370949
489.000000	0.371257
490.000000	0.371634
491.000000	0.371864
492.000000	0.372055
493.000000	0.372207
494.000000	0.372440
495.000000	0.372694
496.000000	0.372887
497.000000	0.373213
498.000000	0.373498
499.000000	0.373800
500.000000	0.374183
501.000000	0.374527
502.000000	0.374867
503.000000	0.375177
504.000000	0.375491
505.000000	0.375744
506.000000	0.375903
507.000000	0.376107
508.000000	0.376383
509.000000	0.376668
510.000000	0.376929
511.000000	0.377230
512.000000	0.377582
513.000000	0.377868
514.000000	0.378175
515.000000	0.378529
516.000000	0.378843
517.000000	0.379123
518.000000	0.379452
519.000000	0.379764
520.000000	0.380048
521.000000	0.380290
522.000000	0.380519
523.000000	0.380808
524.000000	0.381111
525.000000	0.381378
526.000000	0.381615
527.000000	0.381857
528.000000	0.382094
529.000000	0.382378
530.000000	0.382605
531.000000	0.382907
532.000000	0.383222
533.000000	0.383464
534.000000	0.383713
535.000000	0.383986
536.000000	0.384308
537.000000	0.384580
538.000000	0.384808
539.000000	0.385024
540.000000	0.385314
541.000000	0.385611
542.000000	0.385888
543.000000	0.386131
544.000000	0.386450
545.000000	0.386767
546.000000	0.386987
547.000000	0.387239
548.000000	0.387574
549.000000	0.387865
550.000000	0.388144
551.000000	0.388446
552.000000	0.388730
553.000000	0.389010
554.000000	0.389310
555.000000	0.389646
556.000000	0.389966
557.000000	0.390222
558.000000	0.390552
559.000000	0.390824
560.000000	0.391063
561.000000	0.391374
562.000000	0.391686
563.000000	0.391964
564.000000	0.392244
565.000000	0.392438
566.000000	0.392720
567.000000	0.393038
568.000000	0.393329
569.000000	0.393654
570.000000	0.393980
571.000000	0.394283
572.000000	0.394579
573.000000	0.394829
574.000000	0.395032
575.000000	0.395286
576.000000	0.395592
577.000000	0.395911
578.000000	0.396281
579.000000	0.396603
580.000000	0.396924
581.000000	0.397253
582.000000	0.397559
583.000000	0.397804
584.000000	0.398015
585.000000	0.398267
586.000000	0.398472
587.000000	0.398633
588.000000	0.398789
589.000000	0.399045
590.000000	0.399299
591.000000	0.399493
592.000000	0.399732
593.000000	0.399946
594.000000	0.400146
595.000000	0.400446
596.000000	0.400709
597.000000	0.400980
598.000000	0.401230
599.000000	0.401411
600.000000	0.401611
601.000000	0.401799
602.000000	0.401972
603.000000	0.402128
604.000000	0.402290
605.000000	0.402478
606.000000	0.402719
607.000000	0.402978
608.000000	0.403171
609.000000	0.403426
610.000000	0.403697
611.000000	0.403906
612.000000	0.404096
613.000000	0.404244
614.000000	0.404360
615.000000	0.404322
616.000000	0.404269
617.000000	0.404210
618.000000	0.404173
619.000000	0.404143
620.000000	0.404090
621.000000	0.404069
622.000000	0.404096
623.000000	0.404176
624.000000	0.404293
625.000000	0.404369
626.000000	0.404420
627.000000	0.404468
628.000000	0.404546
629.000000	0.404680
630.000000	0.404737
631.000000	0.404885
632.000000	0.405071
633.000000	0.405283
634.000000	0.405488
635.000000	0.405634
636.000000	0.405798
637.000000	0.405984
638.000000	0.406128
639.000000	0.406274
640.000000	0.406472
641.000000	0.406557
642.000000	0.406658
643.000000	0.406788
644.000000	0.406926
645.000000	0.407040
646.000000	0.407172
647.000000	0.407314
648.000000	0.407441
649.000000	0.407552
650.000000	0.407628
651.000000	0.407703
652.000000	0.407805
653.000000	0.407938
654.000000	0.407988
655.000000	0.408086
656.000000	0.408203
657.000000	0.408237
658.000000	0.408347
659.000000	0.408493
660.000000	0.408624
661.000000	0.408742
662.000000	0.408817
663.000000	0.408913
664.000000	0.409007
665.000000	0.409161
666.000000	0.409309
667.000000	0.409351
668.000000	0.409478
669.000000	0.409616
670.000000	0.409734
671.000000	0.409902
672.000000	0.410099
673.000000	0.410276
674.000000	0.410387
675.000000	0.410463
676.000000	0.410565
677.000000	0.410758
678.000000	0.410886
679.000000	0.410989
680.000000	0.411113
681.000000	0.411211
682.000000	0.411335
683.000000	0.411418
684.000000	0.411576
685.000000	0.411733
686.000000	0.411889
687.000000	0.411993
688.000000	0.412089
689.000000	0.412179
690.000000	0.412299
691.000000	0.412387
692.000000	0.412452
693.000000	0.412569
694.000000	0.412653
695.000000	0.412726
696.000000	0.412839
697.000000	0.413045
698.000000	0.413185
699.000000	0.413304
700.000000	0.413466
701.000000	0.413626
702.000000	0.413822
703.000000	0.413988
704.000000	0.413974
705.000000	0.414018
706.000000	0.414098
707.000000	0.414210
708.000000	0.414326
709.000000	0.414428
710.000000	0.414525
711.000000	0.414587
712.000000	0.414674
713.000000	0.414807
714.000000	0.414874
715.000000	0.414931
716.000000	0.415040
717.000000	0.415221
718.000000	0.415372
719.000000	0.415474
720.000000	0.415553
721.000000	0.415648
722.000000	0.415721
723.000000	0.415826
724.000000	0.415885
725.000000	0.415922
726.000000	0.416005
727.000000	0.416006
728.000000	0.416034
729.000000	0.416104
730.000000	0.416148
731.000000	0.416253
732.000000	0.416351
733.000000	0.416431
734.000000	0.416392
735.000000	0.416349
736.000000	0.416459
737.000000	0.416547
738.000000	0.416604
739.000000	0.416727
740.000000	0.416773
741.000000	0.416872
742.000000	0.417042
743.000000	0.417202
744.000000	0.417269
745.000000	0.417283
746.000000	0.417324
747.000000	0.417346
748.000000	0.417375
749.000000	0.417446
750.000000	0.417516
751.000000	0.417516
752.000000	0.417520
753.000000	0.417581
754.000000	0.417705
755.000000	0.417840
756.000000	0.417963
757.000000	0.417996
758.000000	0.417973
759.000000	0.417948
760.000000	0.417883
761.000000	0.417922
762.000000	0.417976
763.000000	0.418001
764.000000	0.418083
765.000000	0.418183
766.000000	0.418270
767.000000	0.418305
768.000000	0.418270
769.000000	0.418216
770.000000	0.418206
771.000000	0.418308
772.000000	0.418496
773.000000	0.418629
774.000000	0.418707
775.000000	0.418766
776.000000	0.418809
777.000000	0.418812
778.000000	0.418793
779.000000	0.418740
780.000000	0.418680
781.000000	0.418637
782.000000	0.418600
783.000000	0.418660
784.000000	0.418677
785.000000	0.418683
786.000000	0.418696
787.000000	0.418713
788.000000	0.418725
789.000000	0.418690
790.000000	0.418612
791.000000	0.418582
792.000000	0.418581
793.000000	0.418600
794.000000	0.418641
795.000000	0.418716
796.000000	0.418738
797.000000	0.418684
798.000000	0.418604
799.000000	0.418600
800.000000	0.418637
801.000000	0.418641
802.000000	0.418587
803.000000	0.418522
804.000000	0.418518
805.000000	0.418501
806.000000	0.418427
807.000000	0.418396
808.000000	0.418381
809.000000	0.418421
810.000000	0.418489
811.000000	0.418538
812.000000	0.418567
813.000000	0.418571
814.000000	0.418569
815.000000	0.418631
816.000000	0.418605
817.000000	0.418542
818.000000	0.418421
819.000000	0.418344
820.000000	0.418330
821.000000	0.418308
822.000000	0.418278
823.000000	0.418306
824.000000	0.418287
825.000000	0.418229
826.000000	0.418101
827.000000	0.417951
828.000000	0.417883
829.000000	0.417902
830.000000	0.417873
831.000000	0.417819
832.000000	0.417642
833.000000	0.417631
834.000000	0.417725
835.000000	0.417841
836.000000	0.417844
837.000000	0.417785
838.000000	0.417723
839.000000	0.417660
840.000000	0.417560
841.000000	0.417492
842.000000	0.417470
843.000000	0.417507
844.000000	0.417548
845.000000	0.417517
846.000000	0.417416
847.000000	0.417354
848.000000	0.417300
849.000000	0.417219
850.000000	0.416992
851.000000	0.416773
852.000000	0.416696
853.000000	0.416711
854.000000	0.416646
855.000000	0.416649
856.000000	0.416674
857.000000	0.416562
858.000000	0.416466
859.000000	0.416348
860.000000	0.416144
861.000000	0.416036
862.000000	0.415995
863.000000	0.415827
864.000000	0.415689
865.000000	0.415634
866.000000	0.415673
867.000000	0.415653
868.000000	0.415589
869.000000	0.415392
870.000000	0.415124
871.000000	0.414923
872.000000	0.414769
873.000000	0.414588
874.000000	0.414546
875.000000	0.414429
876.000000	0.414308
877.000000	0.414254
878.000000	0.414093
879.000000	0.413930
880.000000	0.413647
881.000000	0.413292
882.000000	0.413029
883.000000	0.412918
884.000000	0.412850
885.000000	0.412720
886.000000	0.412552
887.000000	0.412432
888.000000	0.412417
889.000000	0.412399
890.000000	0.412178
891.000000	0.411875
892.000000	0.411691
893.000000	0.411503
894.000000	0.411349
895.000000	0.411026
896.000000	0.410786
897.000000	0.410661
898.000000	0.410586
899.000000	0.410399
900.000000	0.410244
901.000000	0.410173
902.000000	0.410274
903.000000	0.410208
904.000000	0.410000
905.000000	0.409656
906.000000	0.409377
907.000000	0.409084
908.000000	0.408861
909.000000	0.408738
910.000000	0.408552
911.000000	0.408332
912.000000	0.408134
913.000000	0.407807
914.000000	0.407416
915.000000	0.407133
916.000000	0.406965
917.000000	0.406801
918.000000	0.406645
919.000000	0.406454
920.000000	0.406116
921.000000	0.405812
922.000000	0.405612
923.000000	0.405466
924.000000	0.405235
925.000000	0.404956
926.000000	0.404690
927.000000	0.404341
928.000000	0.404059
929.000000	0.403806
930.000000	0.403519
931.000000	0.403361
932.000000	0.403248
933.000000	0.403131
934.000000	0.402878
935.000000	0.402616
936.000000	0.402398
937.000000	0.402093
938.000000	0.401647
939.000000	0.401274
940.000000	0.400929
941.000000	0.400621
942.000000	0.400242
943.000000	0.399980
944.000000	0.399741
945.000000	0.399429
946.000000	0.398977
947.000000	0.398589
948.000000	0.398397
949.000000	0.398244
950.000000	0.398136
951.000000	0.397989
952.000000	0.397790
953.000000	0.397609
954.000000	0.397469
955.000000	0.397269
956.000000	0.396990
957.000000	0.396856
958.000000	0.396746
959.000000	0.396575
960.000000	0.396352
961.000000	0.396084
962.000000	0.395777
963.000000	0.395515
964.000000	0.395259
965.000000	0.395109
966.000000	0.394946
967.000000	0.394642
968.000000	0.394308
969.000000	0.393935
970.000000	0.393638
971.000000	0.393459
972.000000	0.393335
973.000000	0.393155
974.000000	0.393007
975.000000	0.392693
976.000000	0.392353
977.000000	0.392126
978.000000	0.391959
979.000000	0.392014
980.000000	0.391937
981.000000	0.391806
982.000000	0.391456
983.000000	0.391113
984.000000	0.390935
985.000000	0.390766
986.000000	0.390545
987.000000	0.390418
988.000000	0.390272
989.000000	0.389870
990.000000	0.389615
991.000000	0.389415
992.000000	0.389145
993.000000	0.389085
994.000000	0.388901
995.000000	0.388731
996.000000	0.388558
997.000000	0.388564
998.000000	0.388550
999.000000	0.388501
1000.000000	0.388411
1001.000000	0.388672
1002.000000	0.388545
1003.000000	0.388245
1004.000000	0.388004
1005.000000	0.387740
1006.000000	0.387454
1007.000000	0.387138
1008.000000	0.387107
1009.000000	0.386879
1010.000000	0.386084
1011.000000	0.385866
1012.000000	0.385941
1013.000000	0.385900
1014.000000	0.385918
1015.000000	0.385909
1016.000000	0.385859
1017.000000	0.385499
1018.000000	0.385523
1019.000000	0.385472
1020.000000	0.385491
1021.000000	0.384928
1022.000000	0.384390
1023.000000	0.384292
1024.000000	0.383776
1025.000000	0.383741
1026.000000	0.384510
1027.000000	0.384790
1028.000000	0.384966
1029.000000	0.385345
1030.000000	0.385071
1031.000000	0.384837
1032.000000	0.384827
1033.000000	0.384567
1034.000000	0.384550
1035.000000	0.384839
1036.000000	0.384897
1037.000000	0.384946
1038.000000	0.384860
1039.000000	0.384770
1040.000000	0.384690
1041.000000	0.384594
1042.000000	0.384612
1043.000000	0.384849
1044.000000	0.385090
1045.000000	0.385148
1046.000000	0.385243
1047.000000	0.385369
1048.000000	0.385224
1049.000000	0.385345
1050.000000	0.385776
1051.000000	0.385971
1052.000000	0.386130
1053.000000	0.386183
1054.000000	0.386254
1055.000000	0.386417
1056.000000	0.386575
1057.000000	0.386866
1058.000000	0.387185
1059.000000	0.387195
1060.000000	0.387518
1061.000000	0.387776
1062.000000	0.387771
1063.000000	0.388158
1064.000000	0.388401
1065.000000	0.388527
1066.000000	0.388588
1067.000000	0.388543
1068.000000	0.388646
1069.000000	0.388592
1070.000000	0.388722
1071.000000	0.389257
1072.000000	0.389507
1073.000000	0.389667
1074.000000	0.389925
1075.000000	0.389989
1076.000000	0.390260
1077.000000	0.390769
1078.000000	0.391065
1079.000000	0.391150
1080.000000	0.391101
1081.000000	0.391258
1082.000000	0.391423
1083.000000	0.391474
1084.000000	0.391640
1085.000000	0.391925
1086.000000	0.392032
1087.000000	0.392237
1088.000000	0.392713
1089.000000	0.392952
1090.000000	0.392939
1091.000000	0.392885
1092.000000	0.392907
1093.000000	0.393183
1094.000000	0.393419
1095.000000	0.393614
1096.000000	0.393925
1097.000000	0.394461
1098.000000	0.394679
1099.000000	0.394661
1100.000000	0.394892
1101.000000	0.395006
1102.000000	0.395160
1103.000000	0.395487
1104.000000	0.395726
1105.000000	0.395836
1106.000000	0.395992
1107.000000	0.396184
1108.000000	0.396270
1109.000000	0.396287
1110.000000	0.396372
1111.000000	0.396519
1112.000000	0.396667
1113.000000	0.396881
1114.000000	0.397276
1115.000000	0.397456
1116.000000	0.397520
1117.000000	0.397683
1118.000000	0.397766
1119.000000	0.397879
1120.000000	0.398231
1121.000000	0.398270
1122.000000	0.398037
1123.000000	0.398350
1124.000000	0.398524
1125.000000	0.398722
1126.000000	0.399204
1127.000000	0.399460
1128.000000	0.399585
1129.000000	0.399481
1130.000000	0.399629
1131.000000	0.399914
1132.000000	0.399916
1133.000000	0.399880
1134.000000	0.399969
1135.000000	0.399897
1136.000000	0.399861
1137.000000	0.400042
1138.000000	0.399964
1139.000000	0.399676
1140.000000	0.399677
1141.000000	0.399686
1142.000000	0.399731
1143.000000	0.399889
1144.000000	0.400076
1145.000000	0.400058
1146.000000	0.399929
1147.000000	0.399906
1148.000000	0.399748
1149.000000	0.399701
1150.000000	0.399737
1151.000000	0.399795
1152.000000	0.399789
1153.000000	0.399881
1154.000000	0.400049
1155.000000	0.400105
1156.000000	0.400112
1157.000000	0.400186
1158.000000	0.400173
1159.000000	0.400198
1160.000000	0.400311
1161.000000	0.400353
1162.000000	0.400367
1163.000000	0.400624
1164.000000	0.400657
1165.000000	0.400598
1166.000000	0.400700
1167.000000	0.400783
1168.000000	0.400781
1169.000000	0.400863
1170.000000	0.400943
1171.000000	0.401010
1172.000000	0.401080
1173.000000	0.401113
1174.000000	0.401209
1175.000000	0.401273
1176.000000	0.401277
1177.000000	0.401495
1178.000000	0.401558
1179.000000	0.401430
1180.000000	0.401308
1181.000000	0.401238
1182.000000	0.401159
1183.000000	0.401191
1184.000000	0.401291
1185.000000	0.401317
1186.000000	0.401340
1187.000000	0.401369
1188.000000	0.401361
1189.000000	0.401380
1190.000000	0.401535
1191.000000	0.401591
1192.000000	0.401721
1193.000000	0.401896
1194.000000	0.401884
1195.000000	0.401962
1196.000000	0.402032
1197.000000	0.402086
1198.000000	0.402203
1199.000000	0.402273
1200.000000	0.402323
1201.000000	0.402304
1202.000000	0.402220
1203.000000	0.402186
1204.000000	0.402186
1205.000000	0.402235
1206.000000	0.402177
1207.000000	0.402236
1208.000000	0.402170
1209.000000	0.402067
1210.000000	0.402000
1211.000000	0.401932
1212.000000	0.401882
1213.000000	0.401872
1214.000000	0.401868
1215.000000	0.401900
1216.000000	0.401881
1217.000000	0.401775
1218.000000	0.401701
1219.000000	0.401651
1220.000000	0.401592
1221.000000	0.401703
1222.000000	0.401817
1223.000000	0.401838
1224.000000	0.401921
1225.000000	0.401886
1226.000000	0.401878
1227.000000	0.401948
1228.000000	0.402010
1229.000000	0.401976
1230.000000	0.401873
1231.000000	0.401721
1232.000000	0.401612
1233.000000	0.401638
1234.000000	0.401677
1235.000000	0.401656
1236.000000	0.401595
1237.000000	0.401555
1238.000000	0.401358
1239.000000	0.401271
1240.000000	0.401241
1241.000000	0.401206
1242.000000	0.401203
1243.000000	0.401209
1244.000000	0.401191
1245.000000	0.401302
1246.000000	0.401375
1247.000000	0.401491
1248.000000	0.401689
1249.000000	0.401718
1250.000000	0.401637
1251.000000	0.401683
1252.000000	0.401651
1253.000000	0.401589
1254.000000	0.401501
1255.000000	0.401373
1256.000000	0.401290
1257.000000	0.401233
1258.000000	0.401204
1259.000000	0.401118
1260.000000	0.401129
1261.000000	0.401139
1262.000000	0.401093
1263.000000	0.401094
1264.000000	0.401038
1265.000000	0.401024
1266.000000	0.400927
1267.000000	0.400909
1268.000000	0.401023
1269.000000	0.401007
1270.000000	0.400973
1271.000000	0.400884
1272.000000	0.400836
1273.000000	0.400834
1274.000000	0.400727
1275.000000	0.400637
1276.000000	0.400564
1277.000000	0.400592
1278.000000	0.400548
1279.000000	0.400499
1280.000000	0.400416
1281.000000	0.400362
1282.000000	0.400325
1283.000000	0.400406
1284.000000	0.400564
1285.000000	0.400618
1286.000000	0.400568
1287.000000	0.400599
1288.000000	0.400748
1289.000000	0.400624
1290.000000	0.400462
1291.000000	0.400406
1292.000000	0.400233
1293.000000	0.400164
1294.000000	0.400246
1295.000000	0.400205
1296.000000	0.400042
1297.000000	0.399987
1298.000000	0.399979
1299.000000	0.399922
1300.000000	0.400010
1301.000000	0.400027
1302.000000	0.399922
1303.000000	0.399857
1304.000000	0.399762
1305.000000	0.399682
1306.000000	0.399621
1307.000000	0.399666
1308.000000	0.399654
1309.000000	0.399646
1310.000000	0.399566
1311.000000	0.399453
1312.000000	0.399263
1313.000000	0.399191
1314.000000	0.399173
1315.000000	0.399104
1316.000000	0.399084
1317.000000	0.398935
1318.000000	0.398775
1319.000000	0.398633
1320.000000	0.398575
1321.000000	0.398587
1322.000000	0.398450
1323.000000	0.398366
1324.000000	0.398358
1325.000000	0.398210
1326.000000	0.398159
1327.000000	0.398059
1328.000000	0.397943
1329.000000	0.397798
1330.000000	0.397627
1331.000000	0.397506
1332.000000	0.397487
1333.000000	0.397393
1334.000000	0.397388
1335.000000	0.397368
1336.000000	0.397295
1337.000000	0.397194
1338.000000	0.397027
1339.000000	0.396830
1340.000000	0.396660
1341.000000	0.396560
1342.000000	0.396533
1343.000000	0.396518
1344.000000	0.396445
1345.000000	0.396324
1346.000000	0.396286
1347.000000	0.396108
1348.000000	0.395910
1349.000000	0.395662
1350.000000	0.395485
1351.000000	0.395299
1352.000000	0.395063
1353.000000	0.394910
1354.000000	0.394785
1355.000000	0.394559
1356.000000	0.394484
1357.000000	0.394409
1358.000000	0.394265
1359.000000	0.394154
1360.000000	0.394008
1361.000000	0.393854
1362.000000	0.393711
1363.000000	0.393535
1364.000000	0.393416
1365.000000	0.393336
1366.000000	0.393193
1367.000000	0.393037
1368.000000	0.392828
1369.000000	0.392679
1370.000000	0.392327
1371.000000	0.391897
1372.000000	0.391390
1373.000000	0.390785
1374.000000	0.390125
1375.000000	0.389392
1376.000000	0.388690
1377.000000	0.387713
1378.000000	0.386392
1379.000000	0.384799
1380.000000	0.382918
1381.000000	0.380716
1382.000000	0.378272
1383.000000	0.375674
1384.000000	0.372774
1385.000000	0.369844
1386.000000	0.367185
1387.000000	0.364738
1388.000000	0.362634
1389.000000	0.361056
1390.000000	0.360028
1391.000000	0.359503
1392.000000	0.359445
1393.000000	0.359595
1394.000000	0.360258
1395.000000	0.360856
1396.000000	0.361763
1397.000000	0.362372
1398.000000	0.362972
1399.000000	0.363367
1400.000000	0.363621
1401.000000	0.363639
1402.000000	0.363554
1403.000000	0.363225
1404.000000	0.362796
1405.000000	0.362361
1406.000000	0.361911
1407.000000	0.361502
1408.000000	0.361054
1409.000000	0.360685
1410.000000	0.360464
1411.000000	0.360312
1412.000000	0.360262
1413.000000	0.360274
1414.000000	0.360320
1415.000000	0.360442
1416.000000	0.360595
1417.000000	0.360832
1418.000000	0.361078
1419.000000	0.361401
1420.000000	0.361624
1421.000000	0.361953
1422.000000	0.362353
1423.000000	0.362738
1424.000000	0.363117
1425.000000	0.363566
1426.000000	0.363936
1427.000000	0.364304
1428.000000	0.364747
1429.000000	0.365176
1430.000000	0.365555
1431.000000	0.365932
1432.000000	0.366287
1433.000000	0.366640
1434.000000	0.367007
1435.000000	0.367503
1436.000000	0.367917
1437.000000	0.368293
1438.000000	0.368616
1439.000000	0.368963
1440.000000	0.369258
1441.000000	0.369544
1442.000000	0.369828
1443.000000	0.370011
1444.000000	0.370152
1445.000000	0.370303
1446.000000	0.370482
1447.000000	0.370670
1448.000000	0.370813
1449.000000	0.370954
1450.000000	0.371072
1451.000000	0.371149
1452.000000	0.371187
1453.000000	0.371268
1454.000000	0.371274
1455.000000	0.371271
1456.000000	0.371460
1457.000000	0.371626
1458.000000	0.371707
1459.000000	0.371807
1460.000000	0.371861
1461.000000	0.371864
1462.000000	0.371961
1463.000000	0.372052
1464.000000	0.372102
1465.000000	0.372294
1466.000000	0.372576
1467.000000	0.372877
1468.000000	0.373224
1469.000000	0.373588
1470.000000	0.373810
1471.000000	0.374143
1472.000000	0.374503
1473.000000	0.374882
1474.000000	0.375251
1475.000000	0.375594
1476.000000	0.375917
1477.000000	0.376226
1478.000000	0.376507
1479.000000	0.376719
1480.000000	0.376941
1481.000000	0.377149
1482.000000	0.377391
1483.000000	0.377660
1484.000000	0.377963
1485.000000	0.378206
1486.000000	0.378440
1487.000000	0.378656
1488.000000	0.378819
1489.000000	0.379069
1490.000000	0.379192
1491.000000	0.379398
1492.000000	0.379655
1493.000000	0.379863
1494.000000	0.379991
1495.000000	0.380164
1496.000000	0.380331
1497.000000	0.380504
1498.000000	0.380720
1499.000000	0.380940
1500.000000	0.381116
1501.000000	0.381234
1502.000000	0.381333
1503.000000	0.381484
1504.000000	0.381690
1505.000000	0.381928
1506.000000	0.382155
1507.000000	0.382320
1508.000000	0.382497
1509.000000	0.382589
1510.000000	0.382617
1511.000000	0.382764
1512.000000	0.382857
1513.000000	0.382939
1514.000000	0.383189
1515.000000	0.383359
1516.000000	0.383502
1517.000000	0.383640
1518.000000	0.383751
1519.000000	0.383802
1520.000000	0.383883
1521.000000	0.383932
1522.000000	0.383975
1523.000000	0.384082
1524.000000	0.384146
1525.000000	0.384234
1526.000000	0.384313
1527.000000	0.384379
1528.000000	0.384489
1529.000000	0.384601
1530.000000	0.384632
1531.000000	0.384757
1532.000000	0.384911
1533.000000	0.385003
1534.000000	0.385184
1535.000000	0.385369
1536.000000	0.385489
1537.000000	0.385765
1538.000000	0.385997
1539.000000	0.386141
1540.000000	0.386354
1541.000000	0.386514
1542.000000	0.386630
1543.000000	0.386745
1544.000000	0.386815
1545.000000	0.386911
1546.000000	0.386995
1547.000000	0.387086
1548.000000	0.387180
1549.000000	0.387248
1550.000000	0.387351
1551.000000	0.387475
1552.000000	0.387590
1553.000000	0.387664
1554.000000	0.387734
1555.000000	0.387870
1556.000000	0.388055
1557.000000	0.388198
1558.000000	0.388317
1559.000000	0.388361
1560.000000	0.388359
1561.000000	0.388303
1562.000000	0.388337
1563.000000	0.388453
1564.000000	0.388509
1565.000000	0.388605
1566.000000	0.388542
1567.000000	0.388465
1568.000000	0.388433
1569.000000	0.388473
1570.000000	0.388505
1571.000000	0.388501
1572.000000	0.388540
1573.000000	0.388642
1574.000000	0.388642
1575.000000	0.388670
1576.000000	0.388685
1577.000000	0.388590
1578.000000	0.388536
1579.000000	0.388590
1580.000000	0.388572
1581.000000	0.388591
1582.000000	0.388602
1583.000000	0.388569
1584.000000	0.388541
1585.000000	0.388610
1586.000000	0.388702
1587.000000	0.388841
1588.000000	0.388899
1589.000000	0.388960
1590.000000	0.388999
1591.000000	0.388991
1592.000000	0.389027
1593.000000	0.389150
1594.000000	0.389176
1595.000000	0.389215
1596.000000	0.389256
1597.000000	0.389276
1598.000000	0.389301
1599.000000	0.389395
1600.000000	0.389389
1601.000000	0.389431
1602.000000	0.389455
1603.000000	0.389473
1604.000000	0.389452
1605.000000	0.389436
1606.000000	0.389426
1607.000000	0.389459
1608.000000	0.389475
1609.000000	0.389590
1610.000000	0.389592
1611.000000	0.389526
1612.000000	0.389516
1613.000000	0.389642
1614.000000	0.389643
1615.000000	0.389705
1616.000000	0.389750
1617.000000	0.389667
1618.000000	0.389593
1619.000000	0.389491
1620.000000	0.389411
1621.000000	0.389310
1622.000000	0.389320
1623.000000	0.389386
1624.000000	0.389415
1625.000000	0.389293
1626.000000	0.389199
1627.000000	0.389103
1628.000000	0.389107
1629.000000	0.389140
1630.000000	0.389242
1631.000000	0.389360
1632.000000	0.389415
1633.000000	0.389534
1634.000000	0.389582
1635.000000	0.389626
1636.000000	0.389609
1637.000000	0.389541
1638.000000	0.389455
1639.000000	0.389412
1640.000000	0.389302
1641.000000	0.389230
1642.000000	0.389137
1643.000000	0.388999
1644.000000	0.388938
1645.000000	0.388945
1646.000000	0.388851
1647.000000	0.388786
1648.000000	0.388667
1649.000000	0.388556
1650.000000	0.388552
1651.000000	0.388683
1652.000000	0.388712
1653.000000	0.388672
1654.000000	0.388670
1655.000000	0.388554
1656.000000	0.388403
1657.000000	0.388356
1658.000000	0.388297
1659.000000	0.388313
1660.000000	0.388321
1661.000000	0.388273
1662.000000	0.388241
1663.000000	0.388124
1664.000000	0.388082
1665.000000	0.388101
1666.000000	0.388166
1667.000000	0.388135
1668.000000	0.388204
1669.000000	0.388343
1670.000000	0.388327
1671.000000	0.388429
1672.000000	0.388490
1673.000000	0.388391
1674.000000	0.388419
1675.000000	0.388563
1676.000000	0.388664
1677.000000	0.388674
1678.000000	0.388654
1679.000000	0.388620
1680.000000	0.388506
1681.000000	0.388467
1682.000000	0.388443
1683.000000	0.388418
1684.000000	0.388381
1685.000000	0.388329
1686.000000	0.388275
1687.000000	0.388241
1688.000000	0.388258
1689.000000	0.388316
1690.000000	0.388280
1691.000000	0.388303
1692.000000	0.388179
1693.000000	0.388036
1694.000000	0.388005
1695.000000	0.388016
1696.000000	0.388048
1697.000000	0.388010
1698.000000	0.387973
1699.000000	0.387983
1700.000000	0.388001
1701.000000	0.388118
1702.000000	0.388123
1703.000000	0.388045
1704.000000	0.388023
1705.000000	0.388005
1706.000000	0.388002
1707.000000	0.387993
1708.000000	0.387980
1709.000000	0.387886
1710.000000	0.387832
1711.000000	0.387795
1712.000000	0.387819
1713.000000	0.387751
1714.000000	0.387690
1715.000000	0.387625
1716.000000	0.387519
1717.000000	0.387406
1718.000000	0.387220
1719.000000	0.387103
1720.000000	0.387091
1721.000000	0.387014
1722.000000	0.386988
1723.000000	0.386914
1724.000000	0.386774
1725.000000	0.386704
1726.000000	0.386553
1727.000000	0.386459
1728.000000	0.386329
1729.000000	0.386161
1730.000000	0.386161
1731.000000	0.386105
1732.000000	0.386033
1733.000000	0.386038
1734.000000	0.385882
1735.000000	0.385873
1736.000000	0.385913
1737.000000	0.385912
1738.000000	0.385965
1739.000000	0.386039
1740.000000	0.386077
1741.000000	0.386112
1742.000000	0.386247
1743.000000	0.386280
1744.000000	0.386208
1745.000000	0.386139
1746.000000	0.386037
1747.000000	0.385882
1748.000000	0.385688
1749.000000	0.385427
1750.000000	0.385202
1751.000000	0.385172
1752.000000	0.385197
1753.000000	0.385081
1754.000000	0.385035
1755.000000	0.385015
1756.000000	0.384914
1757.000000	0.384821
1758.000000	0.384722
1759.000000	0.384511
1760.000000	0.384344
1761.000000	0.384173
1762.000000	0.383981
1763.000000	0.383844
1764.000000	0.383613
1765.000000	0.383170
1766.000000	0.382994
1767.000000	0.382762
1768.000000	0.382625
1769.000000	0.382873
1770.000000	0.382979
1771.000000	0.383001
1772.000000	0.383008
1773.000000	0.382897
1774.000000	0.382925
1775.000000	0.383089
1776.000000	0.383142
1777.000000	0.383245
1778.000000	0.383143
1779.000000	0.382775
1780.000000	0.382716
1781.000000	0.382673
1782.000000	0.382629
1783.000000	0.382821
1784.000000	0.382671
1785.000000	0.382487
1786.000000	0.382439
1787.000000	0.382523
1788.000000	0.382629
1789.000000	0.382608
1790.000000	0.382501
1791.000000	0.382384
1792.000000	0.382401
1793.000000	0.382361
1794.000000	0.382280
1795.000000	0.382284
1796.000000	0.382267
1797.000000	0.382283
1798.000000	0.382382
1799.000000	0.382417
1800.000000	0.382513
1801.000000	0.382816
1802.000000	0.382780
1803.000000	0.381717
1804.000000	0.381608
1805.000000	0.382145
1806.000000	0.382162
1807.000000	0.382177
1808.000000	0.382028
1809.000000	0.381493
1810.000000	0.381030
1811.000000	0.380846
1812.000000	0.380853
1813.000000	0.380773
1814.000000	0.380695
1815.000000	0.380900
1816.000000	0.381655
1817.000000	0.381534
1818.000000	0.381061
1819.000000	0.381098
1820.000000	0.380796
1821.000000	0.380029
1822.000000	0.379957
1823.000000	0.380648
1824.000000	0.380582
1825.000000	0.379856
1826.000000	0.380005
1827.000000	0.380301
1828.000000	0.380683
1829.000000	0.380805
1830.000000	0.381099
1831.000000	0.381239
1832.000000	0.380825
1833.000000	0.380681
1834.000000	0.381123
1835.000000	0.380872
1836.000000	0.379656
1837.000000	0.379182
1838.000000	0.378689
1839.000000	0.378219
1840.000000	0.378336
1841.000000	0.378476
1842.000000	0.378372
1843.000000	0.378027
1844.000000	0.378028
1845.000000	0.377881
1846.000000	0.377895
1847.000000	0.378058
1848.000000	0.378141
1849.000000	0.377824
1850.000000	0.377525
1851.000000	0.377351
1852.000000	0.376882
1853.000000	0.376696
1854.000000	0.376812
1855.000000	0.376534
1856.000000	0.375961
1857.000000	0.375463
1858.000000	0.374851
1859.000000	0.373953
1860.000000	0.373329
1861.000000	0.372953
1862.000000	0.372372
1863.000000	0.371997
1864.000000	0.371350
1865.000000	0.370374
1866.000000	0.369627
1867.000000	0.368952
1868.000000	0.368114
1869.000000	0.367194
1870.000000	0.366519
1871.000000	0.365153
1872.000000	0.363056
1873.000000	0.361262
1874.000000	0.359084
1875.000000	0.357147
1876.000000	0.355017
1877.000000	0.353050
1878.000000	0.350751
1879.000000	0.348050
1880.000000	0.345268
1881.000000	0.342657
1882.000000	0.339877
1883.000000	0.336838
1884.000000	0.333739
1885.000000	0.330085
1886.000000	0.326409
1887.000000	0.322579
1888.000000	0.318804
1889.000000	0.314649
1890.000000	0.311101
1891.000000	0.307361
1892.000000	0.302969
1893.000000	0.298870
1894.000000	0.294822
1895.000000	0.290776
1896.000000	0.286822
1897.000000	0.283377
1898.000000	0.279884
1899.000000	0.276909
1900.000000	0.274330
1901.000000	0.271939
1902.000000	0.270259
1903.000000	0.269034
1904.000000	0.268295
1905.000000	0.267832
1906.000000	0.267611
1907.000000	0.267781
1908.000000	0.268071
1909.000000	0.268360
1910.000000	0.269088
1911.000000	0.269644
1912.000000	0.270413
1913.000000	0.271788
1914.000000	0.273137
1915.000000	0.274696
1916.000000	0.276227
1917.000000	0.277622
1918.000000	0.278878
1919.000000	0.280487
1920.000000	0.282042
1921.000000	0.283614
1922.000000	0.285228
1923.000000	0.286477
1924.000000	0.287516
1925.000000	0.288629
1926.000000	0.289562
1927.000000	0.290478
1928.000000	0.291425
1929.000000	0.292544
1930.000000	0.293499
1931.000000	0.294310
1932.000000	0.295321
1933.000000	0.296202
1934.000000	0.297012
1935.000000	0.298044
1936.000000	0.298936
1937.000000	0.299611
1938.000000	0.299976
1939.000000	0.300409
1940.000000	0.300642
1941.000000	0.301011
1942.000000	0.301612
1943.000000	0.301752
1944.000000	0.301787
1945.000000	0.302129
1946.000000	0.302149
1947.000000	0.303033
1948.000000	0.304200
1949.000000	0.304821
1950.000000	0.305555
1951.000000	0.306096
1952.000000	0.306483
1953.000000	0.306733
1954.000000	0.307267
1955.000000	0.307899
1956.000000	0.308144
1957.000000	0.308429
1958.000000	0.308714
1959.000000	0.308897
1960.000000	0.309486
1961.000000	0.310067
1962.000000	0.310569
1963.000000	0.311119
1964.000000	0.311764
1965.000000	0.312071
1966.000000	0.312510
1967.000000	0.313439
1968.000000	0.314179
1969.000000	0.314959
1970.000000	0.315780
1971.000000	0.316027
1972.000000	0.316260
1973.000000	0.316476
1974.000000	0.316724
1975.000000	0.317197
1976.000000	0.317827
1977.000000	0.318383
1978.000000	0.319170
1979.000000	0.319858
1980.000000	0.320624
1981.000000	0.321422
1982.000000	0.321862
1983.000000	0.322491
1984.000000	0.322965
1985.000000	0.323307
1986.000000	0.323546
1987.000000	0.323817
1988.000000	0.324126
1989.000000	0.324205
1990.000000	0.324267
1991.000000	0.324859
1992.000000	0.325378
1993.000000	0.325893
1994.000000	0.326836
1995.000000	0.327553
1996.000000	0.328275
1997.000000	0.328938
1998.000000	0.329771
1999.000000	0.330393
2000.000000	0.330952
2001.000000	0.331124
2002.000000	0.331750
2003.000000	0.332415
2004.000000	0.332490
2005.000000	0.332625
2006.000000	0.332796
2007.000000	0.332818
2008.000000	0.333273
2009.000000	0.334342
2010.000000	0.335122
2011.000000	0.335949
2012.000000	0.336367
2013.000000	0.336337
2014.000000	0.336547
2015.000000	0.336881
2016.000000	0.337231
2017.000000	0.338214
2018.000000	0.338977
2019.000000	0.339432
2020.000000	0.339944
2021.000000	0.340301
2022.000000	0.340335
2023.000000	0.340629
2024.000000	0.340888
2025.000000	0.341298
2026.000000	0.341662
2027.000000	0.342267
2028.000000	0.342617
2029.000000	0.343225
2030.000000	0.343787
2031.000000	0.343914
2032.000000	0.344329
2033.000000	0.344652
2034.000000	0.344871
2035.000000	0.345100
2036.000000	0.345364
2037.000000	0.345858
2038.000000	0.346134
2039.000000	0.346561
2040.000000	0.346667
2041.000000	0.346598
2042.000000	0.346565
2043.000000	0.346515
2044.000000	0.346615
2045.000000	0.346957
2046.000000	0.347296
2047.000000	0.347635
2048.000000	0.348109
2049.000000	0.348669
2050.000000	0.348710
2051.000000	0.348922
2052.000000	0.349345
2053.000000	0.349375
2054.000000	0.349358
2055.000000	0.349598
2056.000000	0.349918
2057.000000	0.349922
2058.000000	0.350361
2059.000000	0.350999
2060.000000	0.351097
2061.000000	0.351069
2062.000000	0.350886
2063.000000	0.350146
2064.000000	0.349684
2065.000000	0.349403
2066.000000	0.349180
2067.000000	0.349247
2068.000000	0.349753
2069.000000	0.350322
2070.000000	0.351089
2071.000000	0.351289
2072.000000	0.351542
2073.000000	0.351758
2074.000000	0.351753
2075.000000	0.351850
2076.000000	0.352151
2077.000000	0.352175
2078.000000	0.351940
2079.000000	0.351795
2080.000000	0.351695
2081.000000	0.351638
2082.000000	0.351527
2083.000000	0.351540
2084.000000	0.351848
2085.000000	0.351930
2086.000000	0.352179
2087.000000	0.352543
2088.000000	0.352495
2089.000000	0.352763
2090.000000	0.352764
2091.000000	0.352476
2092.000000	0.352585
2093.000000	0.352887
2094.000000	0.352990
2095.000000	0.353372
2096.000000	0.353632
2097.000000	0.353651
2098.000000	0.353451
2099.000000	0.353597
2100.000000	0.353638
2101.000000	0.353644
2102.000000	0.353882
2103.000000	0.354136
2104.000000	0.354374
2105.000000	0.354414
2106.000000	0.354316
2107.000000	0.354273
2108.000000	0.353967
2109.000000	0.353901
2110.000000	0.353702
2111.000000	0.353695
2112.000000	0.353741
2113.000000	0.353596
2114.000000	0.353995
2115.000000	0.354290
2116.000000	0.354207
2117.000000	0.354186
2118.000000	0.354211
2119.000000	0.354520
2120.000000	0.354742
2121.000000	0.355395
2122.000000	0.355574
2123.000000	0.355173
2124.000000	0.355203
2125.000000	0.355296
2126.000000	0.355428
2127.000000	0.355976
2128.000000	0.356367
2129.000000	0.356513
2130.000000	0.356865
2131.000000	0.356592
2132.000000	0.356492
2133.000000	0.357206
2134.000000	0.357540
2135.000000	0.358201
2136.000000	0.358908
2137.000000	0.358908
2138.000000	0.358018
2139.000000	0.357775
2140.000000	0.357314
2141.000000	0.357108
2142.000000	0.357371
2143.000000	0.357014
2144.000000	0.356814
2145.000000	0.356553
2146.000000	0.356067
2147.000000	0.355701
2148.000000	0.355900
2149.000000	0.355831
2150.000000	0.356032
2151.000000	0.356493
2152.000000	0.356381
2153.000000	0.356030
2154.000000	0.356068
2155.000000	0.356277
2156.000000	0.356442
2157.000000	0.356953
2158.000000	0.357201
2159.000000	0.357285
2160.000000	0.357321
2161.000000	0.357202
2162.000000	0.357409
2163.000000	0.357425
2164.000000	0.357569
2165.000000	0.358183
2166.000000	0.358432
2167.000000	0.358433
2168.000000	0.359033
2169.000000	0.358630
2170.000000	0.358039
2171.000000	0.357378
2172.000000	0.355882
2173.000000	0.355417
2174.000000	0.355461
2175.000000	0.355407
2176.000000	0.355929
2177.000000	0.356091
2178.000000	0.356071
2179.000000	0.356195
2180.000000	0.356280
2181.000000	0.356650
2182.000000	0.356412
2183.000000	0.356489
2184.000000	0.356763
2185.000000	0.356672
2186.000000	0.356656
2187.000000	0.357107
2188.000000	0.357191
2189.000000	0.356787
2190.000000	0.357327
2191.000000	0.357657
2192.000000	0.357367
2193.000000	0.357067
2194.000000	0.356555
2195.000000	0.354686
2196.000000	0.354208
2197.000000	0.354303
2198.000000	0.354673
2199.000000	0.356578
2200.000000	0.357302
2201.000000	0.357761
2202.000000	0.357978
2203.000000	0.357109
2204.000000	0.356435
2205.000000	0.355215
2206.000000	0.353785
2207.000000	0.352187
2208.000000	0.350271
2209.000000	0.349289
2210.000000	0.349991
2211.000000	0.350498
2212.000000	0.351382
2213.000000	0.352176
2214.000000	0.353444
2215.000000	0.353275
2216.000000	0.352235
2217.000000	0.351954
2218.000000	0.350742
2219.000000	0.350790
2220.000000	0.352761
2221.000000	0.353111
2222.000000	0.351793
2223.000000	0.352335
2224.000000	0.353462
2225.000000	0.354628
2226.000000	0.355556
2227.000000	0.356567
2228.000000	0.356319
2229.000000	0.354376
2230.000000	0.353114
2231.000000	0.352406
2232.000000	0.351131
2233.000000	0.350638
2234.000000	0.350842
2235.000000	0.351306
2236.000000	0.350802
2237.000000	0.349003
2238.000000	0.348803
2239.000000	0.348439
2240.000000	0.349213
2241.000000	0.352607
2242.000000	0.353639
2243.000000	0.354253
2244.000000	0.354186
2245.000000	0.352295
2246.000000	0.351524
2247.000000	0.350596
2248.000000	0.349638
2249.000000	0.349372
2250.000000	0.348145
2251.000000	0.346958
2252.000000	0.346341
2253.000000	0.345778
2254.000000	0.346009
2255.000000	0.346100
2256.000000	0.347146
2257.000000	0.347717
2258.000000	0.347836
2259.000000	0.348343
2260.000000	0.347851
2261.000000	0.347724
2262.000000	0.348262
2263.000000	0.347319
2264.000000	0.345584
2265.000000	0.344470
2266.000000	0.342098
2267.000000	0.341330
2268.000000	0.342075
2269.000000	0.341815
2270.000000	0.341922
2271.000000	0.341270
2272.000000	0.339891
2273.000000	0.338772
2274.000000	0.336943
2275.000000	0.336021
2276.000000	0.336138
2277.000000	0.334752
2278.000000	0.333883
2279.000000	0.333048
2280.000000	0.329952
2281.000000	0.327127
2282.000000	0.323958
2283.000000	0.321649
2284.000000	0.321083
2285.000000	0.320933
2286.000000	0.320948
2287.000000	0.319807
2288.000000	0.318635
2289.000000	0.316722
2290.000000	0.314985
2291.000000	0.315237
2292.000000	0.314650
2293.000000	0.313562
2294.000000	0.312478
2295.000000	0.310720
2296.000000	0.309337
2297.000000	0.308263
2298.000000	0.307302
2299.000000	0.306647
2300.000000	0.305525
2301.000000	0.304161
2302.000000	0.302520
2303.000000	0.300408
2304.000000	0.298636
2305.000000	0.297124
2306.000000	0.295231
2307.000000	0.292833
2308.000000	0.291219
2309.000000	0.289626
2310.000000	0.287858
2311.000000	0.286924
2312.000000	0.285566
2313.000000	0.285007
2314.000000	0.284796
2315.000000	0.284341
2316.000000	0.285894
2317.000000	0.286825
2318.000000	0.287719
2319.000000	0.290465
2320.000000	0.291452
2321.000000	0.293444
2322.000000	0.296119
2323.000000	0.297420
2324.000000	0.300321
2325.000000	0.302732
2326.000000	0.303831
2327.000000	0.306287
2328.000000	0.307335
2329.000000	0.307451
2330.000000	0.310382
2331.000000	0.311379
2332.000000	0.312956
2333.000000	0.315883
2334.000000	0.315034
2335.000000	0.316334
2336.000000	0.318098
2337.000000	0.319089
2338.000000	0.320828
2339.000000	0.321698
2340.000000	0.321445
2341.000000	0.321463
2342.000000	0.320808
2343.000000	0.320799
2344.000000	0.320888
2345.000000	0.321064
2346.000000	0.322218
2347.000000	0.322131
2348.000000	0.321539
2349.000000	0.320663
2350.000000	0.319505
2351.000000	0.319454
2352.000000	0.319872
2353.000000	0.321159
2354.000000	0.320605
2355.000000	0.319049
2356.000000	0.318654
2357.000000	0.316228
2358.000000	0.314236
2359.000000	0.313308
2360.000000	0.311708
2361.000000	0.312911
2362.000000	0.314359
2363.000000	0.315261
2364.000000	0.314613
2365.000000	0.311470
2366.000000	0.310229
2367.000000	0.308209
2368.000000	0.306890
2369.000000	0.306850
2370.000000	0.302815
2371.000000	0.301796
2372.000000	0.305063
2373.000000	0.307499
2374.000000	0.309476
2375.000000	0.309279
2376.000000	0.308360
2377.000000	0.307492
2378.000000	0.306197
2379.000000	0.307345
2380.000000	0.304273
2381.000000	0.297349
2382.000000	0.291979
2383.000000	0.286559
2384.000000	0.286775
2385.000000	0.290718
2386.000000	0.292730
2387.000000	0.294240
2388.000000	0.293495
2389.000000	0.289718
2390.000000	0.289639
2391.000000	0.291734
2392.000000	0.290724
2393.000000	0.291072
2394.000000	0.290914
2395.000000	0.288798
2396.000000	0.288992
2397.000000	0.291496
2398.000000	0.291407
2399.000000	0.290166
2400.000000	0.287866
2401.000000	0.287291
2402.000000	0.293227
2403.000000	0.297771
2404.000000	0.301111
2405.000000	0.300156
2406.000000	0.295071
2407.000000	0.291914
2408.000000	0.293676
2409.000000	0.296815
2410.000000	0.294746
2411.000000	0.291872
2412.000000	0.288631
2413.000000	0.287815
2414.000000	0.286314
2415.000000	0.287630
2416.000000	0.291355
2417.000000	0.289521
2418.000000	0.292682
2419.000000	0.299319
2420.000000	0.303718
2421.000000	0.304459
2422.000000	0.301169
2423.000000	0.297535
2424.000000	0.296365
2425.000000	0.299965
2426.000000	0.308195
2427.000000	0.309978
2428.000000	0.302445
2429.000000	0.299676
2430.000000	0.295876
2431.000000	0.293082
2432.000000	0.300832
2433.000000	0.304955
2434.000000	0.302162
2435.000000	0.296866
2436.000000	0.286669
2437.000000	0.279359
2438.000000	0.278850
2439.000000	0.279751
2440.000000	0.282141
2441.000000	0.282298
2442.000000	0.280813
2443.000000	0.283813
2444.000000	0.287682
2445.000000	0.291365
2446.000000	0.295206
2447.000000	0.298138
2448.000000	0.303629
2449.000000	0.307240
2450.000000	0.309211
2451.000000	0.308988
2452.000000	0.300333
2453.000000	0.291591
2454.000000	0.283936
2455.000000	0.271424
2456.000000	0.264649
2457.000000	0.263151
2458.000000	0.264263
2459.000000	0.277078
2460.000000	0.294712
2461.000000	0.303343
2462.000000	0.304905
2463.000000	0.294327
2464.000000	0.270246
2465.000000	0.261754
2466.000000	0.257840
2467.000000	0.256814
2468.000000	0.266158
2469.000000	0.263480
2470.000000	0.265073
2471.000000	0.259077
2472.000000	0.248671
2473.000000	0.252659
2474.000000	0.251792
2475.000000	0.263753
2476.000000	0.283011
2477.000000	0.288532
2478.000000	0.289760
2479.000000	0.275266
2480.000000	0.256265
2481.000000	0.250564
2482.000000	0.246295
2483.000000	0.273807
2484.000000	0.297235
2485.000000	0.282599
2486.000000	0.283723
2487.000000	0.260457
2488.000000	0.234809
2489.000000	0.239398
2490.000000	0.229330
2491.000000	0.241382
2492.000000	0.239484
2493.000000	0.241642
2494.000000	0.249768
2495.000000	0.236850
2496.000000	0.235621
2497.000000	0.256222
2498.000000	0.263669
2499.000000	0.277344
2500.000000	0.285487
