# Wavelength	SM1200H-60_FV7-40_00000.asd.rts.txt
350.000000	0.309581
351.000000	0.306366
352.000000	0.303336
353.000000	0.303681
354.000000	0.308414
355.000000	0.302583
356.000000	0.299378
357.000000	0.302597
358.000000	0.305203
359.000000	0.302028
360.000000	0.299721
361.000000	0.304698
362.000000	0.304012
363.000000	0.305193
364.000000	0.311227
365.000000	0.314146
366.000000	0.311252
367.000000	0.306355
368.000000	0.310326
369.000000	0.312184
370.000000	0.311238
371.000000	0.310145
372.000000	0.312819
373.000000	0.314111
374.000000	0.312084
375.000000	0.313029
376.000000	0.312609
377.000000	0.311345
378.000000	0.315070
379.000000	0.316721
380.000000	0.316285
381.000000	0.316926
382.000000	0.316954
383.000000	0.316717
384.000000	0.316825
385.000000	0.316647
386.000000	0.317065
387.000000	0.318075
388.000000	0.318189
389.000000	0.318508
390.000000	0.319466
391.000000	0.320722
392.000000	0.320264
393.000000	0.319921
394.000000	0.321052
395.000000	0.321907
396.000000	0.322760
397.000000	0.323437
398.000000	0.323078
399.000000	0.323611
400.000000	0.324662
401.000000	0.324731
402.000000	0.324481
403.000000	0.324434
404.000000	0.324965
405.000000	0.324940
406.000000	0.325377
407.000000	0.326446
408.000000	0.326590
409.000000	0.326615
410.000000	0.326785
411.000000	0.327061
412.000000	0.327440
413.000000	0.327802
414.000000	0.328097
415.000000	0.328625
416.000000	0.329083
417.000000	0.329341
418.000000	0.329765
419.000000	0.329848
420.000000	0.329767
421.000000	0.330287
422.000000	0.330803
423.000000	0.331127
424.000000	0.331333
425.000000	0.331573
426.000000	0.331759
427.000000	0.331841
428.000000	0.332092
429.000000	0.332422
430.000000	0.332760
431.000000	0.333019
432.000000	0.333328
433.000000	0.333582
434.000000	0.333728
435.000000	0.333945
436.000000	0.334108
437.000000	0.334137
438.000000	0.334610
439.000000	0.335015
440.000000	0.335179
441.000000	0.335139
442.000000	0.335251
443.000000	0.335513
444.000000	0.335891
445.000000	0.336048
446.000000	0.336201
447.000000	0.336447
448.000000	0.336739
449.000000	0.337019
450.000000	0.337268
451.000000	0.337504
452.000000	0.337730
453.000000	0.337942
454.000000	0.338478
455.000000	0.338666
456.000000	0.338755
457.000000	0.339102
458.000000	0.339447
459.000000	0.339594
460.000000	0.339572
461.000000	0.339913
462.000000	0.340247
463.000000	0.340266
464.000000	0.340526
465.000000	0.340795
466.000000	0.340976
467.000000	0.341222
468.000000	0.341502
469.000000	0.341596
470.000000	0.341568
471.000000	0.341953
472.000000	0.342277
473.000000	0.342304
474.000000	0.342506
475.000000	0.342708
476.000000	0.342957
477.000000	0.343036
478.000000	0.343069
479.000000	0.343320
480.000000	0.343615
481.000000	0.343710
482.000000	0.343916
483.000000	0.344209
484.000000	0.344475
485.000000	0.344578
486.000000	0.344726
487.000000	0.344948
488.000000	0.345167
489.000000	0.345428
490.000000	0.345820
491.000000	0.346017
492.000000	0.346207
493.000000	0.346486
494.000000	0.346735
495.000000	0.347000
496.000000	0.347248
497.000000	0.347417
498.000000	0.347540
499.000000	0.347755
500.000000	0.348090
501.000000	0.348397
502.000000	0.348698
503.000000	0.348967
504.000000	0.349307
505.000000	0.349638
506.000000	0.349875
507.000000	0.349996
508.000000	0.350193
509.000000	0.350484
510.000000	0.350720
511.000000	0.350935
512.000000	0.351198
513.000000	0.351542
514.000000	0.351907
515.000000	0.352262
516.000000	0.352518
517.000000	0.352821
518.000000	0.353156
519.000000	0.353402
520.000000	0.353719
521.000000	0.354027
522.000000	0.354284
523.000000	0.354475
524.000000	0.354693
525.000000	0.354918
526.000000	0.355136
527.000000	0.355384
528.000000	0.355611
529.000000	0.355829
530.000000	0.356062
531.000000	0.356376
532.000000	0.356678
533.000000	0.356955
534.000000	0.357219
535.000000	0.357455
536.000000	0.357669
537.000000	0.357938
538.000000	0.358244
539.000000	0.358512
540.000000	0.358736
541.000000	0.358954
542.000000	0.359236
543.000000	0.359477
544.000000	0.359756
545.000000	0.360022
546.000000	0.360276
547.000000	0.360554
548.000000	0.360882
549.000000	0.361153
550.000000	0.361386
551.000000	0.361653
552.000000	0.361961
553.000000	0.362242
554.000000	0.362507
555.000000	0.362783
556.000000	0.363075
557.000000	0.363324
558.000000	0.363667
559.000000	0.364027
560.000000	0.364277
561.000000	0.364529
562.000000	0.364813
563.000000	0.365050
564.000000	0.365322
565.000000	0.365591
566.000000	0.365959
567.000000	0.366341
568.000000	0.366658
569.000000	0.366967
570.000000	0.367253
571.000000	0.367514
572.000000	0.367791
573.000000	0.368060
574.000000	0.368302
575.000000	0.368577
576.000000	0.368846
577.000000	0.369083
578.000000	0.369352
579.000000	0.369635
580.000000	0.369908
581.000000	0.370155
582.000000	0.370379
583.000000	0.370633
584.000000	0.370918
585.000000	0.371202
586.000000	0.371462
587.000000	0.371702
588.000000	0.371940
589.000000	0.372238
590.000000	0.372556
591.000000	0.372851
592.000000	0.373085
593.000000	0.373305
594.000000	0.373520
595.000000	0.373713
596.000000	0.373872
597.000000	0.374050
598.000000	0.374200
599.000000	0.374364
600.000000	0.374569
601.000000	0.374732
602.000000	0.374902
603.000000	0.375047
604.000000	0.375185
605.000000	0.375382
606.000000	0.375594
607.000000	0.375816
608.000000	0.376059
609.000000	0.376249
610.000000	0.376432
611.000000	0.376661
612.000000	0.376807
613.000000	0.376888
614.000000	0.376973
615.000000	0.377010
616.000000	0.377040
617.000000	0.377058
618.000000	0.377160
619.000000	0.377276
620.000000	0.377357
621.000000	0.377443
622.000000	0.377527
623.000000	0.377594
624.000000	0.377643
625.000000	0.377725
626.000000	0.377853
627.000000	0.378013
628.000000	0.378147
629.000000	0.378343
630.000000	0.378453
631.000000	0.378565
632.000000	0.378707
633.000000	0.378859
634.000000	0.378977
635.000000	0.379114
636.000000	0.379253
637.000000	0.379371
638.000000	0.379533
639.000000	0.379692
640.000000	0.379883
641.000000	0.380001
642.000000	0.380138
643.000000	0.380280
644.000000	0.380394
645.000000	0.380494
646.000000	0.380589
647.000000	0.380662
648.000000	0.380779
649.000000	0.380911
650.000000	0.381024
651.000000	0.381164
652.000000	0.381275
653.000000	0.381390
654.000000	0.381477
655.000000	0.381570
656.000000	0.381734
657.000000	0.381924
658.000000	0.382023
659.000000	0.382159
660.000000	0.382344
661.000000	0.382458
662.000000	0.382489
663.000000	0.382539
664.000000	0.382649
665.000000	0.382741
666.000000	0.382836
667.000000	0.382932
668.000000	0.383011
669.000000	0.383144
670.000000	0.383357
671.000000	0.383540
672.000000	0.383748
673.000000	0.383962
674.000000	0.384137
675.000000	0.384250
676.000000	0.384316
677.000000	0.384397
678.000000	0.384570
679.000000	0.384780
680.000000	0.384981
681.000000	0.385122
682.000000	0.385277
683.000000	0.385376
684.000000	0.385497
685.000000	0.385580
686.000000	0.385671
687.000000	0.385778
688.000000	0.385893
689.000000	0.386022
690.000000	0.386195
691.000000	0.386331
692.000000	0.386379
693.000000	0.386435
694.000000	0.386545
695.000000	0.386646
696.000000	0.386753
697.000000	0.386906
698.000000	0.387007
699.000000	0.387129
700.000000	0.387323
701.000000	0.387411
702.000000	0.387529
703.000000	0.387690
704.000000	0.387801
705.000000	0.387949
706.000000	0.388096
707.000000	0.388272
708.000000	0.388460
709.000000	0.388625
710.000000	0.388761
711.000000	0.388846
712.000000	0.388932
713.000000	0.389046
714.000000	0.389099
715.000000	0.389155
716.000000	0.389235
717.000000	0.389310
718.000000	0.389413
719.000000	0.389539
720.000000	0.389685
721.000000	0.389810
722.000000	0.389871
723.000000	0.389941
724.000000	0.390013
725.000000	0.390047
726.000000	0.390136
727.000000	0.390216
728.000000	0.390316
729.000000	0.390404
730.000000	0.390407
731.000000	0.390519
732.000000	0.390633
733.000000	0.390751
734.000000	0.390858
735.000000	0.390891
736.000000	0.390996
737.000000	0.391067
738.000000	0.391084
739.000000	0.391163
740.000000	0.391175
741.000000	0.391199
742.000000	0.391231
743.000000	0.391256
744.000000	0.391352
745.000000	0.391434
746.000000	0.391562
747.000000	0.391696
748.000000	0.391770
749.000000	0.391866
750.000000	0.391985
751.000000	0.392065
752.000000	0.392136
753.000000	0.392197
754.000000	0.392184
755.000000	0.392178
756.000000	0.392174
757.000000	0.392110
758.000000	0.392139
759.000000	0.392236
760.000000	0.392292
761.000000	0.392426
762.000000	0.392502
763.000000	0.392501
764.000000	0.392575
765.000000	0.392673
766.000000	0.392733
767.000000	0.392716
768.000000	0.392752
769.000000	0.392766
770.000000	0.392751
771.000000	0.392786
772.000000	0.392878
773.000000	0.392957
774.000000	0.393091
775.000000	0.393233
776.000000	0.393317
777.000000	0.393291
778.000000	0.393238
779.000000	0.393169
780.000000	0.393113
781.000000	0.393077
782.000000	0.393064
783.000000	0.393165
784.000000	0.393239
785.000000	0.393302
786.000000	0.393319
787.000000	0.393302
788.000000	0.393389
789.000000	0.393447
790.000000	0.393433
791.000000	0.393410
792.000000	0.393374
793.000000	0.393378
794.000000	0.393444
795.000000	0.393428
796.000000	0.393404
797.000000	0.393384
798.000000	0.393325
799.000000	0.393352
800.000000	0.393421
801.000000	0.393464
802.000000	0.393559
803.000000	0.393586
804.000000	0.393543
805.000000	0.393505
806.000000	0.393402
807.000000	0.393342
808.000000	0.393318
809.000000	0.393315
810.000000	0.393359
811.000000	0.393430
812.000000	0.393427
813.000000	0.393397
814.000000	0.393341
815.000000	0.393244
816.000000	0.393157
817.000000	0.393092
818.000000	0.392948
819.000000	0.392844
820.000000	0.392786
821.000000	0.392729
822.000000	0.392767
823.000000	0.392854
824.000000	0.392867
825.000000	0.392830
826.000000	0.392792
827.000000	0.392714
828.000000	0.392645
829.000000	0.392666
830.000000	0.392624
831.000000	0.392590
832.000000	0.392535
833.000000	0.392467
834.000000	0.392384
835.000000	0.392320
836.000000	0.392230
837.000000	0.392182
838.000000	0.392207
839.000000	0.392240
840.000000	0.392221
841.000000	0.392165
842.000000	0.392073
843.000000	0.392099
844.000000	0.392098
845.000000	0.392017
846.000000	0.392010
847.000000	0.391999
848.000000	0.391962
849.000000	0.391929
850.000000	0.391827
851.000000	0.391687
852.000000	0.391578
853.000000	0.391467
854.000000	0.391280
855.000000	0.391156
856.000000	0.391043
857.000000	0.390930
858.000000	0.390942
859.000000	0.390964
860.000000	0.390789
861.000000	0.390612
862.000000	0.390546
863.000000	0.390544
864.000000	0.390477
865.000000	0.390339
866.000000	0.390189
867.000000	0.390044
868.000000	0.390078
869.000000	0.390133
870.000000	0.390067
871.000000	0.389851
872.000000	0.389592
873.000000	0.389323
874.000000	0.389184
875.000000	0.389036
876.000000	0.388874
877.000000	0.388655
878.000000	0.388368
879.000000	0.388144
880.000000	0.387909
881.000000	0.387827
882.000000	0.387778
883.000000	0.387684
884.000000	0.387429
885.000000	0.387253
886.000000	0.387107
887.000000	0.386967
888.000000	0.386804
889.000000	0.386597
890.000000	0.386354
891.000000	0.386343
892.000000	0.386233
893.000000	0.386052
894.000000	0.385946
895.000000	0.385678
896.000000	0.385486
897.000000	0.385366
898.000000	0.385228
899.000000	0.385042
900.000000	0.384868
901.000000	0.384703
902.000000	0.384622
903.000000	0.384384
904.000000	0.384055
905.000000	0.383690
906.000000	0.383644
907.000000	0.383646
908.000000	0.383603
909.000000	0.383421
910.000000	0.383226
911.000000	0.383021
912.000000	0.382796
913.000000	0.382515
914.000000	0.382159
915.000000	0.381867
916.000000	0.381683
917.000000	0.381563
918.000000	0.381447
919.000000	0.381246
920.000000	0.380909
921.000000	0.380595
922.000000	0.380353
923.000000	0.380123
924.000000	0.379830
925.000000	0.379507
926.000000	0.379252
927.000000	0.379099
928.000000	0.378902
929.000000	0.378651
930.000000	0.378387
931.000000	0.378111
932.000000	0.377809
933.000000	0.377543
934.000000	0.377324
935.000000	0.377092
936.000000	0.376825
937.000000	0.376408
938.000000	0.375949
939.000000	0.375766
940.000000	0.375632
941.000000	0.375227
942.000000	0.374780
943.000000	0.374471
944.000000	0.374180
945.000000	0.373811
946.000000	0.373357
947.000000	0.373009
948.000000	0.372854
949.000000	0.372610
950.000000	0.372485
951.000000	0.372438
952.000000	0.372331
953.000000	0.372184
954.000000	0.372014
955.000000	0.371780
956.000000	0.371660
957.000000	0.371451
958.000000	0.371122
959.000000	0.370878
960.000000	0.370725
961.000000	0.370551
962.000000	0.370306
963.000000	0.370101
964.000000	0.369907
965.000000	0.369792
966.000000	0.369647
967.000000	0.369470
968.000000	0.369221
969.000000	0.368799
970.000000	0.368315
971.000000	0.368211
972.000000	0.368170
973.000000	0.367951
974.000000	0.367737
975.000000	0.367547
976.000000	0.367292
977.000000	0.366940
978.000000	0.366704
979.000000	0.366719
980.000000	0.366613
981.000000	0.366454
982.000000	0.366359
983.000000	0.366078
984.000000	0.365717
985.000000	0.365564
986.000000	0.365372
987.000000	0.365200
988.000000	0.364974
989.000000	0.364701
990.000000	0.364571
991.000000	0.364444
992.000000	0.364218
993.000000	0.364227
994.000000	0.364084
995.000000	0.363841
996.000000	0.363439
997.000000	0.363349
998.000000	0.363278
999.000000	0.363192
1000.000000	0.363264
1001.000000	0.363138
1002.000000	0.363237
1003.000000	0.363360
1004.000000	0.363228
1005.000000	0.362480
1006.000000	0.362303
1007.000000	0.362404
1008.000000	0.362371
1009.000000	0.362469
1010.000000	0.362177
1011.000000	0.361844
1012.000000	0.361741
1013.000000	0.361448
1014.000000	0.361107
1015.000000	0.360818
1016.000000	0.360648
1017.000000	0.360523
1018.000000	0.360898
1019.000000	0.360958
1020.000000	0.360948
1021.000000	0.360607
1022.000000	0.360278
1023.000000	0.360291
1024.000000	0.360025
1025.000000	0.360399
1026.000000	0.360816
1027.000000	0.360480
1028.000000	0.360291
1029.000000	0.360393
1030.000000	0.360303
1031.000000	0.360295
1032.000000	0.360593
1033.000000	0.360677
1034.000000	0.360733
1035.000000	0.360884
1036.000000	0.361040
1037.000000	0.361070
1038.000000	0.361003
1039.000000	0.361084
1040.000000	0.361270
1041.000000	0.360895
1042.000000	0.360677
1043.000000	0.360753
1044.000000	0.360597
1045.000000	0.360458
1046.000000	0.360503
1047.000000	0.360735
1048.000000	0.361007
1049.000000	0.361117
1050.000000	0.361402
1051.000000	0.361642
1052.000000	0.361770
1053.000000	0.361706
1054.000000	0.361793
1055.000000	0.361931
1056.000000	0.361896
1057.000000	0.361904
1058.000000	0.362070
1059.000000	0.362192
1060.000000	0.362253
1061.000000	0.362306
1062.000000	0.362690
1063.000000	0.363338
1064.000000	0.363710
1065.000000	0.364107
1066.000000	0.364299
1067.000000	0.364062
1068.000000	0.364129
1069.000000	0.364316
1070.000000	0.364378
1071.000000	0.364569
1072.000000	0.364662
1073.000000	0.364609
1074.000000	0.364624
1075.000000	0.364939
1076.000000	0.365159
1077.000000	0.365461
1078.000000	0.365912
1079.000000	0.366041
1080.000000	0.365903
1081.000000	0.366095
1082.000000	0.366366
1083.000000	0.366634
1084.000000	0.367245
1085.000000	0.367629
1086.000000	0.367796
1087.000000	0.368027
1088.000000	0.368142
1089.000000	0.368286
1090.000000	0.368355
1091.000000	0.368432
1092.000000	0.368784
1093.000000	0.369228
1094.000000	0.369387
1095.000000	0.369404
1096.000000	0.369595
1097.000000	0.369651
1098.000000	0.369822
1099.000000	0.370144
1100.000000	0.370409
1101.000000	0.370600
1102.000000	0.370690
1103.000000	0.370653
1104.000000	0.370830
1105.000000	0.370958
1106.000000	0.371157
1107.000000	0.371550
1108.000000	0.371829
1109.000000	0.372180
1110.000000	0.372382
1111.000000	0.372542
1112.000000	0.372655
1113.000000	0.372807
1114.000000	0.372836
1115.000000	0.373018
1116.000000	0.373400
1117.000000	0.373547
1118.000000	0.373555
1119.000000	0.373646
1120.000000	0.373683
1121.000000	0.373732
1122.000000	0.373962
1123.000000	0.374331
1124.000000	0.374416
1125.000000	0.374615
1126.000000	0.374888
1127.000000	0.375041
1128.000000	0.375140
1129.000000	0.375254
1130.000000	0.375309
1131.000000	0.375267
1132.000000	0.375297
1133.000000	0.375389
1134.000000	0.375493
1135.000000	0.375617
1136.000000	0.375635
1137.000000	0.375525
1138.000000	0.375521
1139.000000	0.375668
1140.000000	0.375793
1141.000000	0.375915
1142.000000	0.376028
1143.000000	0.376018
1144.000000	0.376120
1145.000000	0.376033
1146.000000	0.375965
1147.000000	0.375981
1148.000000	0.375909
1149.000000	0.375868
1150.000000	0.375933
1151.000000	0.375957
1152.000000	0.375821
1153.000000	0.375835
1154.000000	0.375944
1155.000000	0.375936
1156.000000	0.375893
1157.000000	0.375872
1158.000000	0.375726
1159.000000	0.375674
1160.000000	0.375626
1161.000000	0.375655
1162.000000	0.375894
1163.000000	0.376119
1164.000000	0.376174
1165.000000	0.376285
1166.000000	0.376441
1167.000000	0.376487
1168.000000	0.376567
1169.000000	0.376804
1170.000000	0.376917
1171.000000	0.377004
1172.000000	0.377078
1173.000000	0.377083
1174.000000	0.377109
1175.000000	0.377093
1176.000000	0.376988
1177.000000	0.376898
1178.000000	0.376875
1179.000000	0.376826
1180.000000	0.376732
1181.000000	0.376827
1182.000000	0.376796
1183.000000	0.376794
1184.000000	0.376810
1185.000000	0.376824
1186.000000	0.376852
1187.000000	0.376909
1188.000000	0.377008
1189.000000	0.376982
1190.000000	0.376975
1191.000000	0.377007
1192.000000	0.377083
1193.000000	0.377241
1194.000000	0.377410
1195.000000	0.377465
1196.000000	0.377357
1197.000000	0.377317
1198.000000	0.377261
1199.000000	0.377246
1200.000000	0.377237
1201.000000	0.377267
1202.000000	0.377330
1203.000000	0.377349
1204.000000	0.377386
1205.000000	0.377479
1206.000000	0.377489
1207.000000	0.377583
1208.000000	0.377597
1209.000000	0.377628
1210.000000	0.377644
1211.000000	0.377638
1212.000000	0.377630
1213.000000	0.377661
1214.000000	0.377708
1215.000000	0.377760
1216.000000	0.377744
1217.000000	0.377656
1218.000000	0.377578
1219.000000	0.377466
1220.000000	0.377450
1221.000000	0.377432
1222.000000	0.377406
1223.000000	0.377370
1224.000000	0.377342
1225.000000	0.377285
1226.000000	0.377283
1227.000000	0.377267
1228.000000	0.377258
1229.000000	0.377184
1230.000000	0.377049
1231.000000	0.376911
1232.000000	0.376846
1233.000000	0.376920
1234.000000	0.377025
1235.000000	0.377132
1236.000000	0.377272
1237.000000	0.377369
1238.000000	0.377350
1239.000000	0.377398
1240.000000	0.377518
1241.000000	0.377462
1242.000000	0.377446
1243.000000	0.377545
1244.000000	0.377484
1245.000000	0.377577
1246.000000	0.377668
1247.000000	0.377670
1248.000000	0.377717
1249.000000	0.377704
1250.000000	0.377567
1251.000000	0.377486
1252.000000	0.377447
1253.000000	0.377468
1254.000000	0.377418
1255.000000	0.377418
1256.000000	0.377363
1257.000000	0.377225
1258.000000	0.377188
1259.000000	0.377132
1260.000000	0.377118
1261.000000	0.377078
1262.000000	0.377010
1263.000000	0.376971
1264.000000	0.376867
1265.000000	0.376785
1266.000000	0.376742
1267.000000	0.376702
1268.000000	0.376713
1269.000000	0.376615
1270.000000	0.376593
1271.000000	0.376655
1272.000000	0.376650
1273.000000	0.376655
1274.000000	0.376658
1275.000000	0.376640
1276.000000	0.376585
1277.000000	0.376629
1278.000000	0.376621
1279.000000	0.376603
1280.000000	0.376539
1281.000000	0.376437
1282.000000	0.376360
1283.000000	0.376388
1284.000000	0.376345
1285.000000	0.376320
1286.000000	0.376326
1287.000000	0.376289
1288.000000	0.376324
1289.000000	0.376325
1290.000000	0.376189
1291.000000	0.376104
1292.000000	0.375990
1293.000000	0.375792
1294.000000	0.375722
1295.000000	0.375758
1296.000000	0.375685
1297.000000	0.375671
1298.000000	0.375756
1299.000000	0.375756
1300.000000	0.375860
1301.000000	0.375923
1302.000000	0.375827
1303.000000	0.375702
1304.000000	0.375626
1305.000000	0.375608
1306.000000	0.375517
1307.000000	0.375524
1308.000000	0.375501
1309.000000	0.375359
1310.000000	0.375300
1311.000000	0.375369
1312.000000	0.375290
1313.000000	0.375171
1314.000000	0.375108
1315.000000	0.375026
1316.000000	0.375052
1317.000000	0.375078
1318.000000	0.375075
1319.000000	0.374990
1320.000000	0.374847
1321.000000	0.374744
1322.000000	0.374617
1323.000000	0.374479
1324.000000	0.374444
1325.000000	0.374330
1326.000000	0.374137
1327.000000	0.374080
1328.000000	0.374103
1329.000000	0.373948
1330.000000	0.373701
1331.000000	0.373623
1332.000000	0.373603
1333.000000	0.373520
1334.000000	0.373596
1335.000000	0.373667
1336.000000	0.373644
1337.000000	0.373613
1338.000000	0.373552
1339.000000	0.373578
1340.000000	0.373498
1341.000000	0.373329
1342.000000	0.373323
1343.000000	0.373290
1344.000000	0.373150
1345.000000	0.373138
1346.000000	0.373167
1347.000000	0.372962
1348.000000	0.372844
1349.000000	0.372617
1350.000000	0.372368
1351.000000	0.372194
1352.000000	0.372037
1353.000000	0.371959
1354.000000	0.371892
1355.000000	0.371729
1356.000000	0.371647
1357.000000	0.371555
1358.000000	0.371431
1359.000000	0.371335
1360.000000	0.371230
1361.000000	0.371154
1362.000000	0.371037
1363.000000	0.370896
1364.000000	0.370758
1365.000000	0.370594
1366.000000	0.370407
1367.000000	0.370187
1368.000000	0.369927
1369.000000	0.369772
1370.000000	0.369484
1371.000000	0.369131
1372.000000	0.368794
1373.000000	0.368395
1374.000000	0.367947
1375.000000	0.367418
1376.000000	0.366859
1377.000000	0.366105
1378.000000	0.365028
1379.000000	0.363742
1380.000000	0.362338
1381.000000	0.360677
1382.000000	0.358854
1383.000000	0.356986
1384.000000	0.354807
1385.000000	0.352559
1386.000000	0.350587
1387.000000	0.348819
1388.000000	0.347306
1389.000000	0.346190
1390.000000	0.345471
1391.000000	0.345074
1392.000000	0.345069
1393.000000	0.345263
1394.000000	0.345964
1395.000000	0.346515
1396.000000	0.347293
1397.000000	0.347780
1398.000000	0.348196
1399.000000	0.348465
1400.000000	0.348573
1401.000000	0.348534
1402.000000	0.348436
1403.000000	0.348111
1404.000000	0.347812
1405.000000	0.347427
1406.000000	0.347031
1407.000000	0.346742
1408.000000	0.346306
1409.000000	0.345956
1410.000000	0.345776
1411.000000	0.345523
1412.000000	0.345286
1413.000000	0.345216
1414.000000	0.345170
1415.000000	0.345204
1416.000000	0.345368
1417.000000	0.345505
1418.000000	0.345590
1419.000000	0.345774
1420.000000	0.345905
1421.000000	0.346200
1422.000000	0.346526
1423.000000	0.346809
1424.000000	0.347067
1425.000000	0.347364
1426.000000	0.347578
1427.000000	0.347862
1428.000000	0.348241
1429.000000	0.348610
1430.000000	0.349040
1431.000000	0.349501
1432.000000	0.349895
1433.000000	0.350298
1434.000000	0.350652
1435.000000	0.351071
1436.000000	0.351405
1437.000000	0.351691
1438.000000	0.351919
1439.000000	0.352127
1440.000000	0.352314
1441.000000	0.352464
1442.000000	0.352661
1443.000000	0.352789
1444.000000	0.352935
1445.000000	0.353064
1446.000000	0.353158
1447.000000	0.353197
1448.000000	0.353190
1449.000000	0.353256
1450.000000	0.353310
1451.000000	0.353386
1452.000000	0.353473
1453.000000	0.353489
1454.000000	0.353474
1455.000000	0.353473
1456.000000	0.353557
1457.000000	0.353683
1458.000000	0.353806
1459.000000	0.353909
1460.000000	0.353974
1461.000000	0.354036
1462.000000	0.354116
1463.000000	0.354168
1464.000000	0.354285
1465.000000	0.354470
1466.000000	0.354552
1467.000000	0.354678
1468.000000	0.354789
1469.000000	0.354832
1470.000000	0.354853
1471.000000	0.354985
1472.000000	0.355150
1473.000000	0.355364
1474.000000	0.355581
1475.000000	0.355804
1476.000000	0.355958
1477.000000	0.356110
1478.000000	0.356318
1479.000000	0.356478
1480.000000	0.356675
1481.000000	0.356848
1482.000000	0.357056
1483.000000	0.357294
1484.000000	0.357550
1485.000000	0.357812
1486.000000	0.358110
1487.000000	0.358389
1488.000000	0.358682
1489.000000	0.358971
1490.000000	0.359093
1491.000000	0.359334
1492.000000	0.359582
1493.000000	0.359818
1494.000000	0.360056
1495.000000	0.360241
1496.000000	0.360346
1497.000000	0.360508
1498.000000	0.360691
1499.000000	0.360901
1500.000000	0.361077
1501.000000	0.361220
1502.000000	0.361355
1503.000000	0.361515
1504.000000	0.361673
1505.000000	0.361853
1506.000000	0.362016
1507.000000	0.362062
1508.000000	0.362180
1509.000000	0.362322
1510.000000	0.362384
1511.000000	0.362510
1512.000000	0.362599
1513.000000	0.362657
1514.000000	0.362759
1515.000000	0.362766
1516.000000	0.362787
1517.000000	0.362824
1518.000000	0.362862
1519.000000	0.362866
1520.000000	0.362952
1521.000000	0.363039
1522.000000	0.363170
1523.000000	0.363372
1524.000000	0.363454
1525.000000	0.363568
1526.000000	0.363688
1527.000000	0.363763
1528.000000	0.363919
1529.000000	0.364045
1530.000000	0.364016
1531.000000	0.364083
1532.000000	0.364217
1533.000000	0.364277
1534.000000	0.364355
1535.000000	0.364445
1536.000000	0.364465
1537.000000	0.364615
1538.000000	0.364804
1539.000000	0.364922
1540.000000	0.365061
1541.000000	0.365206
1542.000000	0.365339
1543.000000	0.365449
1544.000000	0.365473
1545.000000	0.365537
1546.000000	0.365662
1547.000000	0.365753
1548.000000	0.365923
1549.000000	0.366074
1550.000000	0.366071
1551.000000	0.366086
1552.000000	0.366103
1553.000000	0.366084
1554.000000	0.366042
1555.000000	0.366033
1556.000000	0.366084
1557.000000	0.366018
1558.000000	0.366027
1559.000000	0.366046
1560.000000	0.366024
1561.000000	0.366028
1562.000000	0.365984
1563.000000	0.365946
1564.000000	0.365922
1565.000000	0.365852
1566.000000	0.365792
1567.000000	0.365872
1568.000000	0.365906
1569.000000	0.366024
1570.000000	0.366101
1571.000000	0.366118
1572.000000	0.366180
1573.000000	0.366272
1574.000000	0.366337
1575.000000	0.366471
1576.000000	0.366578
1577.000000	0.366643
1578.000000	0.366650
1579.000000	0.366699
1580.000000	0.366689
1581.000000	0.366705
1582.000000	0.366641
1583.000000	0.366491
1584.000000	0.366346
1585.000000	0.366215
1586.000000	0.366168
1587.000000	0.366189
1588.000000	0.366179
1589.000000	0.366205
1590.000000	0.366168
1591.000000	0.366092
1592.000000	0.366108
1593.000000	0.366214
1594.000000	0.366217
1595.000000	0.366303
1596.000000	0.366305
1597.000000	0.366227
1598.000000	0.366147
1599.000000	0.366064
1600.000000	0.365984
1601.000000	0.365960
1602.000000	0.365906
1603.000000	0.365916
1604.000000	0.365919
1605.000000	0.365902
1606.000000	0.365910
1607.000000	0.366033
1608.000000	0.366051
1609.000000	0.366105
1610.000000	0.366082
1611.000000	0.365989
1612.000000	0.365983
1613.000000	0.366077
1614.000000	0.366129
1615.000000	0.366322
1616.000000	0.366419
1617.000000	0.366392
1618.000000	0.366396
1619.000000	0.366360
1620.000000	0.366320
1621.000000	0.366316
1622.000000	0.366346
1623.000000	0.366329
1624.000000	0.366324
1625.000000	0.366182
1626.000000	0.366043
1627.000000	0.365905
1628.000000	0.365851
1629.000000	0.365794
1630.000000	0.365802
1631.000000	0.365812
1632.000000	0.365787
1633.000000	0.365799
1634.000000	0.365826
1635.000000	0.365918
1636.000000	0.365941
1637.000000	0.365947
1638.000000	0.365957
1639.000000	0.365994
1640.000000	0.365993
1641.000000	0.366110
1642.000000	0.366132
1643.000000	0.366138
1644.000000	0.366104
1645.000000	0.365985
1646.000000	0.365874
1647.000000	0.365772
1648.000000	0.365645
1649.000000	0.365618
1650.000000	0.365608
1651.000000	0.365636
1652.000000	0.365672
1653.000000	0.365704
1654.000000	0.365698
1655.000000	0.365581
1656.000000	0.365426
1657.000000	0.365298
1658.000000	0.365231
1659.000000	0.365309
1660.000000	0.365344
1661.000000	0.365313
1662.000000	0.365278
1663.000000	0.365189
1664.000000	0.365124
1665.000000	0.365079
1666.000000	0.365059
1667.000000	0.364909
1668.000000	0.364857
1669.000000	0.364818
1670.000000	0.364749
1671.000000	0.364830
1672.000000	0.364931
1673.000000	0.364971
1674.000000	0.365155
1675.000000	0.365371
1676.000000	0.365471
1677.000000	0.365585
1678.000000	0.365653
1679.000000	0.365668
1680.000000	0.365696
1681.000000	0.365768
1682.000000	0.365854
1683.000000	0.365924
1684.000000	0.365907
1685.000000	0.365872
1686.000000	0.365780
1687.000000	0.365726
1688.000000	0.365709
1689.000000	0.365635
1690.000000	0.365505
1691.000000	0.365502
1692.000000	0.365427
1693.000000	0.365383
1694.000000	0.365349
1695.000000	0.365304
1696.000000	0.365262
1697.000000	0.365182
1698.000000	0.365176
1699.000000	0.365178
1700.000000	0.365165
1701.000000	0.365245
1702.000000	0.365185
1703.000000	0.365082
1704.000000	0.365113
1705.000000	0.365041
1706.000000	0.364892
1707.000000	0.364807
1708.000000	0.364646
1709.000000	0.364477
1710.000000	0.364465
1711.000000	0.364448
1712.000000	0.364465
1713.000000	0.364439
1714.000000	0.364491
1715.000000	0.364478
1716.000000	0.364357
1717.000000	0.364344
1718.000000	0.364342
1719.000000	0.364325
1720.000000	0.364444
1721.000000	0.364485
1722.000000	0.364473
1723.000000	0.364483
1724.000000	0.364528
1725.000000	0.364562
1726.000000	0.364477
1727.000000	0.364452
1728.000000	0.364382
1729.000000	0.364255
1730.000000	0.364250
1731.000000	0.364248
1732.000000	0.364258
1733.000000	0.364295
1734.000000	0.364244
1735.000000	0.364171
1736.000000	0.364017
1737.000000	0.363889
1738.000000	0.363764
1739.000000	0.363674
1740.000000	0.363591
1741.000000	0.363434
1742.000000	0.363265
1743.000000	0.363200
1744.000000	0.363117
1745.000000	0.362950
1746.000000	0.362813
1747.000000	0.362539
1748.000000	0.362324
1749.000000	0.362252
1750.000000	0.362141
1751.000000	0.362203
1752.000000	0.362307
1753.000000	0.362258
1754.000000	0.362262
1755.000000	0.362240
1756.000000	0.362210
1757.000000	0.362252
1758.000000	0.362219
1759.000000	0.362077
1760.000000	0.361991
1761.000000	0.361828
1762.000000	0.361707
1763.000000	0.361687
1764.000000	0.361614
1765.000000	0.361447
1766.000000	0.361384
1767.000000	0.361292
1768.000000	0.361143
1769.000000	0.361114
1770.000000	0.361095
1771.000000	0.360966
1772.000000	0.360913
1773.000000	0.360875
1774.000000	0.360857
1775.000000	0.360882
1776.000000	0.360998
1777.000000	0.361175
1778.000000	0.361272
1779.000000	0.361397
1780.000000	0.361478
1781.000000	0.361469
1782.000000	0.361442
1783.000000	0.361445
1784.000000	0.361511
1785.000000	0.361424
1786.000000	0.361387
1787.000000	0.361457
1788.000000	0.361478
1789.000000	0.361332
1790.000000	0.361154
1791.000000	0.360987
1792.000000	0.360866
1793.000000	0.360727
1794.000000	0.360644
1795.000000	0.360592
1796.000000	0.360477
1797.000000	0.360412
1798.000000	0.360407
1799.000000	0.360389
1800.000000	0.360446
1801.000000	0.360548
1802.000000	0.360461
1803.000000	0.360233
1804.000000	0.360388
1805.000000	0.361341
1806.000000	0.361663
1807.000000	0.361725
1808.000000	0.361900
1809.000000	0.361925
1810.000000	0.361954
1811.000000	0.362087
1812.000000	0.362502
1813.000000	0.362464
1814.000000	0.362260
1815.000000	0.362145
1816.000000	0.361477
1817.000000	0.361345
1818.000000	0.361533
1819.000000	0.362167
1820.000000	0.362579
1821.000000	0.363036
1822.000000	0.363242
1823.000000	0.363010
1824.000000	0.362881
1825.000000	0.362722
1826.000000	0.362594
1827.000000	0.362171
1828.000000	0.362037
1829.000000	0.361731
1830.000000	0.361272
1831.000000	0.361317
1832.000000	0.361568
1833.000000	0.361737
1834.000000	0.362488
1835.000000	0.362643
1836.000000	0.362222
1837.000000	0.362076
1838.000000	0.361619
1839.000000	0.361411
1840.000000	0.361272
1841.000000	0.361315
1842.000000	0.361165
1843.000000	0.360717
1844.000000	0.360695
1845.000000	0.360807
1846.000000	0.360747
1847.000000	0.360673
1848.000000	0.360697
1849.000000	0.360103
1850.000000	0.359811
1851.000000	0.359632
1852.000000	0.359372
1853.000000	0.359431
1854.000000	0.359702
1855.000000	0.359596
1856.000000	0.359454
1857.000000	0.359261
1858.000000	0.358534
1859.000000	0.357777
1860.000000	0.357089
1861.000000	0.356489
1862.000000	0.355961
1863.000000	0.355713
1864.000000	0.355258
1865.000000	0.354814
1866.000000	0.354279
1867.000000	0.353602
1868.000000	0.352939
1869.000000	0.352248
1870.000000	0.351403
1871.000000	0.350261
1872.000000	0.349174
1873.000000	0.348015
1874.000000	0.346548
1875.000000	0.345275
1876.000000	0.344022
1877.000000	0.342171
1878.000000	0.340123
1879.000000	0.338466
1880.000000	0.336340
1881.000000	0.333954
1882.000000	0.331856
1883.000000	0.329352
1884.000000	0.326961
1885.000000	0.324641
1886.000000	0.321913
1887.000000	0.318968
1888.000000	0.315576
1889.000000	0.312213
1890.000000	0.308796
1891.000000	0.305210
1892.000000	0.301753
1893.000000	0.298192
1894.000000	0.294661
1895.000000	0.291533
1896.000000	0.288893
1897.000000	0.286542
1898.000000	0.284190
1899.000000	0.282152
1900.000000	0.279866
1901.000000	0.277671
1902.000000	0.275958
1903.000000	0.274129
1904.000000	0.272954
1905.000000	0.272202
1906.000000	0.271655
1907.000000	0.271350
1908.000000	0.271686
1909.000000	0.272225
1910.000000	0.272981
1911.000000	0.273480
1912.000000	0.274232
1913.000000	0.275422
1914.000000	0.276449
1915.000000	0.277803
1916.000000	0.279141
1917.000000	0.280222
1918.000000	0.281260
1919.000000	0.282107
1920.000000	0.282495
1921.000000	0.283291
1922.000000	0.284011
1923.000000	0.284818
1924.000000	0.285955
1925.000000	0.286936
1926.000000	0.288005
1927.000000	0.288891
1928.000000	0.289591
1929.000000	0.290245
1930.000000	0.290902
1931.000000	0.291465
1932.000000	0.292371
1933.000000	0.293382
1934.000000	0.294348
1935.000000	0.295128
1936.000000	0.295399
1937.000000	0.295941
1938.000000	0.296605
1939.000000	0.297150
1940.000000	0.297621
1941.000000	0.298544
1942.000000	0.299078
1943.000000	0.299182
1944.000000	0.299516
1945.000000	0.299533
1946.000000	0.299692
1947.000000	0.299984
1948.000000	0.300144
1949.000000	0.300796
1950.000000	0.301582
1951.000000	0.302062
1952.000000	0.302671
1953.000000	0.303188
1954.000000	0.303195
1955.000000	0.303186
1956.000000	0.303250
1957.000000	0.303081
1958.000000	0.303438
1959.000000	0.303799
1960.000000	0.303923
1961.000000	0.304619
1962.000000	0.305120
1963.000000	0.305571
1964.000000	0.306065
1965.000000	0.306819
1966.000000	0.307077
1967.000000	0.307544
1968.000000	0.308012
1969.000000	0.308015
1970.000000	0.308410
1971.000000	0.308574
1972.000000	0.308717
1973.000000	0.308930
1974.000000	0.309347
1975.000000	0.309728
1976.000000	0.310238
1977.000000	0.310760
1978.000000	0.311143
1979.000000	0.311675
1980.000000	0.311990
1981.000000	0.312317
1982.000000	0.312752
1983.000000	0.313134
1984.000000	0.313652
1985.000000	0.314506
1986.000000	0.315092
1987.000000	0.315567
1988.000000	0.316466
1989.000000	0.317129
1990.000000	0.317702
1991.000000	0.318428
1992.000000	0.318717
1993.000000	0.319112
1994.000000	0.319321
1995.000000	0.319109
1996.000000	0.319403
1997.000000	0.319590
1998.000000	0.319582
1999.000000	0.320017
2000.000000	0.320977
2001.000000	0.321415
2002.000000	0.321704
2003.000000	0.322233
2004.000000	0.322245
2005.000000	0.322333
2006.000000	0.322728
2007.000000	0.323062
2008.000000	0.323742
2009.000000	0.324734
2010.000000	0.325482
2011.000000	0.326538
2012.000000	0.327120
2013.000000	0.327310
2014.000000	0.327162
2015.000000	0.327286
2016.000000	0.327007
2017.000000	0.327074
2018.000000	0.327421
2019.000000	0.327330
2020.000000	0.327404
2021.000000	0.327722
2022.000000	0.327986
2023.000000	0.328369
2024.000000	0.329246
2025.000000	0.329897
2026.000000	0.330217
2027.000000	0.330843
2028.000000	0.331276
2029.000000	0.331485
2030.000000	0.331525
2031.000000	0.331316
2032.000000	0.331457
2033.000000	0.331839
2034.000000	0.332134
2035.000000	0.332775
2036.000000	0.333039
2037.000000	0.333215
2038.000000	0.333570
2039.000000	0.333977
2040.000000	0.334512
2041.000000	0.335172
2042.000000	0.335827
2043.000000	0.336252
2044.000000	0.336625
2045.000000	0.337058
2046.000000	0.336862
2047.000000	0.336857
2048.000000	0.336838
2049.000000	0.336947
2050.000000	0.336593
2051.000000	0.336449
2052.000000	0.336045
2053.000000	0.335897
2054.000000	0.336151
2055.000000	0.336569
2056.000000	0.337202
2057.000000	0.337944
2058.000000	0.337825
2059.000000	0.337619
2060.000000	0.337468
2061.000000	0.336833
2062.000000	0.336668
2063.000000	0.336943
2064.000000	0.336937
2065.000000	0.337328
2066.000000	0.337318
2067.000000	0.337385
2068.000000	0.337417
2069.000000	0.337434
2070.000000	0.337702
2071.000000	0.338026
2072.000000	0.338265
2073.000000	0.338542
2074.000000	0.338333
2075.000000	0.338143
2076.000000	0.337734
2077.000000	0.337542
2078.000000	0.337323
2079.000000	0.337206
2080.000000	0.337297
2081.000000	0.337367
2082.000000	0.337647
2083.000000	0.337444
2084.000000	0.337017
2085.000000	0.336977
2086.000000	0.337386
2087.000000	0.337679
2088.000000	0.338436
2089.000000	0.339340
2090.000000	0.339659
2091.000000	0.339504
2092.000000	0.339483
2093.000000	0.339212
2094.000000	0.339078
2095.000000	0.339029
2096.000000	0.338989
2097.000000	0.338987
2098.000000	0.338654
2099.000000	0.338503
2100.000000	0.338391
2101.000000	0.338581
2102.000000	0.338971
2103.000000	0.339345
2104.000000	0.339705
2105.000000	0.339981
2106.000000	0.340184
2107.000000	0.340373
2108.000000	0.340430
2109.000000	0.340615
2110.000000	0.340540
2111.000000	0.340623
2112.000000	0.340753
2113.000000	0.340752
2114.000000	0.340992
2115.000000	0.340811
2116.000000	0.340609
2117.000000	0.340599
2118.000000	0.340389
2119.000000	0.340523
2120.000000	0.340589
2121.000000	0.340643
2122.000000	0.340789
2123.000000	0.341109
2124.000000	0.341143
2125.000000	0.341026
2126.000000	0.341110
2127.000000	0.341166
2128.000000	0.341383
2129.000000	0.341691
2130.000000	0.342242
2131.000000	0.342371
2132.000000	0.341997
2133.000000	0.341753
2134.000000	0.341625
2135.000000	0.341480
2136.000000	0.341711
2137.000000	0.341822
2138.000000	0.342117
2139.000000	0.342148
2140.000000	0.341992
2141.000000	0.341969
2142.000000	0.341897
2143.000000	0.341531
2144.000000	0.341250
2145.000000	0.341311
2146.000000	0.341366
2147.000000	0.341849
2148.000000	0.342849
2149.000000	0.343176
2150.000000	0.343134
2151.000000	0.343338
2152.000000	0.342905
2153.000000	0.342390
2154.000000	0.342115
2155.000000	0.341860
2156.000000	0.341556
2157.000000	0.341431
2158.000000	0.341247
2159.000000	0.340917
2160.000000	0.340970
2161.000000	0.340934
2162.000000	0.341644
2163.000000	0.343311
2164.000000	0.343935
2165.000000	0.344474
2166.000000	0.345112
2167.000000	0.344736
2168.000000	0.344447
2169.000000	0.344776
2170.000000	0.344696
2171.000000	0.344585
2172.000000	0.344429
2173.000000	0.344145
2174.000000	0.343573
2175.000000	0.343338
2176.000000	0.343210
2177.000000	0.342997
2178.000000	0.343142
2179.000000	0.342991
2180.000000	0.341817
2181.000000	0.342092
2182.000000	0.342603
2183.000000	0.343019
2184.000000	0.343722
2185.000000	0.344364
2186.000000	0.343287
2187.000000	0.342072
2188.000000	0.341123
2189.000000	0.340039
2190.000000	0.340033
2191.000000	0.340618
2192.000000	0.340668
2193.000000	0.340959
2194.000000	0.340984
2195.000000	0.340453
2196.000000	0.340604
2197.000000	0.341073
2198.000000	0.341292
2199.000000	0.342311
2200.000000	0.342231
2201.000000	0.340849
2202.000000	0.340666
2203.000000	0.340586
2204.000000	0.339916
2205.000000	0.339415
2206.000000	0.339369
2207.000000	0.338434
2208.000000	0.338062
2209.000000	0.337879
2210.000000	0.337921
2211.000000	0.338305
2212.000000	0.338060
2213.000000	0.338041
2214.000000	0.338367
2215.000000	0.338401
2216.000000	0.338414
2217.000000	0.338038
2218.000000	0.337225
2219.000000	0.337432
2220.000000	0.336986
2221.000000	0.337412
2222.000000	0.339322
2223.000000	0.340541
2224.000000	0.340888
2225.000000	0.343986
2226.000000	0.344928
2227.000000	0.344330
2228.000000	0.344922
2229.000000	0.343436
2230.000000	0.341829
2231.000000	0.341552
2232.000000	0.340916
2233.000000	0.340170
2234.000000	0.339382
2235.000000	0.339581
2236.000000	0.338377
2237.000000	0.335282
2238.000000	0.334127
2239.000000	0.332807
2240.000000	0.332446
2241.000000	0.334117
2242.000000	0.334332
2243.000000	0.334054
2244.000000	0.334490
2245.000000	0.334772
2246.000000	0.334920
2247.000000	0.335441
2248.000000	0.335999
2249.000000	0.336698
2250.000000	0.336747
2251.000000	0.335870
2252.000000	0.335250
2253.000000	0.334279
2254.000000	0.333631
2255.000000	0.335045
2256.000000	0.337255
2257.000000	0.338391
2258.000000	0.338118
2259.000000	0.337149
2260.000000	0.335210
2261.000000	0.334251
2262.000000	0.333599
2263.000000	0.333764
2264.000000	0.334621
2265.000000	0.335013
2266.000000	0.335751
2267.000000	0.335698
2268.000000	0.335476
2269.000000	0.335330
2270.000000	0.335168
2271.000000	0.334731
2272.000000	0.333598
2273.000000	0.332526
2274.000000	0.330927
2275.000000	0.329849
2276.000000	0.329146
2277.000000	0.328797
2278.000000	0.326932
2279.000000	0.325898
2280.000000	0.324529
2281.000000	0.322799
2282.000000	0.321140
2283.000000	0.319526
2284.000000	0.317501
2285.000000	0.315569
2286.000000	0.315421
2287.000000	0.314021
2288.000000	0.312199
2289.000000	0.311209
2290.000000	0.308463
2291.000000	0.306964
2292.000000	0.306155
2293.000000	0.304133
2294.000000	0.303460
2295.000000	0.303665
2296.000000	0.303996
2297.000000	0.305149
2298.000000	0.305967
2299.000000	0.307330
2300.000000	0.308010
2301.000000	0.308429
2302.000000	0.308258
2303.000000	0.308253
2304.000000	0.306904
2305.000000	0.303894
2306.000000	0.301361
2307.000000	0.298268
2308.000000	0.294515
2309.000000	0.292434
2310.000000	0.291061
2311.000000	0.289705
2312.000000	0.289272
2313.000000	0.287906
2314.000000	0.286945
2315.000000	0.286729
2316.000000	0.286682
2317.000000	0.288065
2318.000000	0.290064
2319.000000	0.293193
2320.000000	0.295366
2321.000000	0.296437
2322.000000	0.298817
2323.000000	0.299580
2324.000000	0.301669
2325.000000	0.305135
2326.000000	0.306128
2327.000000	0.308082
2328.000000	0.309535
2329.000000	0.310373
2330.000000	0.311047
2331.000000	0.310168
2332.000000	0.310400
2333.000000	0.309869
2334.000000	0.309342
2335.000000	0.309589
2336.000000	0.309171
2337.000000	0.310228
2338.000000	0.312749
2339.000000	0.314284
2340.000000	0.317280
2341.000000	0.318619
2342.000000	0.318401
2343.000000	0.318724
2344.000000	0.319095
2345.000000	0.319104
2346.000000	0.318453
2347.000000	0.317806
2348.000000	0.317175
2349.000000	0.315577
2350.000000	0.314587
2351.000000	0.314831
2352.000000	0.315287
2353.000000	0.315704
2354.000000	0.315003
2355.000000	0.314033
2356.000000	0.313446
2357.000000	0.312351
2358.000000	0.311333
2359.000000	0.309571
2360.000000	0.305799
2361.000000	0.303905
2362.000000	0.304148
2363.000000	0.304912
2364.000000	0.306608
2365.000000	0.308285
2366.000000	0.308269
2367.000000	0.307657
2368.000000	0.308693
2369.000000	0.308218
2370.000000	0.306277
2371.000000	0.306343
2372.000000	0.306158
2373.000000	0.306363
2374.000000	0.306404
2375.000000	0.305756
2376.000000	0.304979
2377.000000	0.302485
2378.000000	0.302598
2379.000000	0.303394
2380.000000	0.303285
2381.000000	0.305356
2382.000000	0.305938
2383.000000	0.307622
2384.000000	0.308636
2385.000000	0.305744
2386.000000	0.304643
2387.000000	0.301324
2388.000000	0.297735
2389.000000	0.298733
2390.000000	0.298137
2391.000000	0.294854
2392.000000	0.291994
2393.000000	0.290080
2394.000000	0.288597
2395.000000	0.288880
2396.000000	0.290504
2397.000000	0.293977
2398.000000	0.297746
2399.000000	0.301681
2400.000000	0.304943
2401.000000	0.306539
2402.000000	0.306181
2403.000000	0.304606
2404.000000	0.305935
2405.000000	0.302748
2406.000000	0.302675
2407.000000	0.306421
2408.000000	0.309173
2409.000000	0.316780
2410.000000	0.317353
2411.000000	0.313807
2412.000000	0.309636
2413.000000	0.304464
2414.000000	0.305661
2415.000000	0.300909
2416.000000	0.293994
2417.000000	0.293106
2418.000000	0.290648
2419.000000	0.293917
2420.000000	0.300941
2421.000000	0.302905
2422.000000	0.301752
2423.000000	0.299806
2424.000000	0.298965
2425.000000	0.295610
2426.000000	0.293695
2427.000000	0.299273
2428.000000	0.301348
2429.000000	0.301511
2430.000000	0.308332
2431.000000	0.310400
2432.000000	0.309885
2433.000000	0.314622
2434.000000	0.309223
2435.000000	0.298480
2436.000000	0.291880
2437.000000	0.291658
2438.000000	0.298992
2439.000000	0.296568
2440.000000	0.295424
2441.000000	0.294259
2442.000000	0.285367
2443.000000	0.292357
2444.000000	0.298388
2445.000000	0.296344
2446.000000	0.301486
2447.000000	0.300367
2448.000000	0.305483
2449.000000	0.315242
2450.000000	0.312017
2451.000000	0.308094
2452.000000	0.302201
2453.000000	0.301993
2454.000000	0.305605
2455.000000	0.302328
2456.000000	0.302263
2457.000000	0.293618
2458.000000	0.291011
2459.000000	0.297289
2460.000000	0.293793
2461.000000	0.295577
2462.000000	0.283532
2463.000000	0.265551
2464.000000	0.261468
2465.000000	0.258042
2466.000000	0.265367
2467.000000	0.278200
2468.000000	0.286756
2469.000000	0.283021
2470.000000	0.267326
2471.000000	0.252815
2472.000000	0.240502
2473.000000	0.236038
2474.000000	0.250707
2475.000000	0.274118
2476.000000	0.288596
2477.000000	0.302644
2478.000000	0.310886
2479.000000	0.299972
2480.000000	0.291438
2481.000000	0.282973
2482.000000	0.277961
2483.000000	0.275007
2484.000000	0.274941
2485.000000	0.293548
2486.000000	0.300070
2487.000000	0.319203
2488.000000	0.341687
2489.000000	0.342770
2490.000000	0.340337
2491.000000	0.338677
2492.000000	0.320383
2493.000000	0.291271
2494.000000	0.279885
2495.000000	0.255406
2496.000000	0.233550
2497.000000	0.222488
2498.000000	0.213403
2499.000000	0.211175
2500.000000	0.213572
