# Wavelength	SM1200H-50_HEX-30_FV7-20_00002.asd.rts.txt
350.000000	0.336886
351.000000	0.355422
352.000000	0.345445
353.000000	0.329216
354.000000	0.325036
355.000000	0.331567
356.000000	0.340140
357.000000	0.347805
358.000000	0.349283
359.000000	0.348198
360.000000	0.342846
361.000000	0.332254
362.000000	0.333825
363.000000	0.337795
364.000000	0.337240
365.000000	0.340098
366.000000	0.342350
367.000000	0.343118
368.000000	0.345185
369.000000	0.340141
370.000000	0.336361
371.000000	0.343673
372.000000	0.341164
373.000000	0.338287
374.000000	0.342799
375.000000	0.347921
376.000000	0.349974
377.000000	0.349886
378.000000	0.353898
379.000000	0.353040
380.000000	0.351013
381.000000	0.355146
382.000000	0.354353
383.000000	0.350486
384.000000	0.347574
385.000000	0.350456
386.000000	0.353280
387.000000	0.354421
388.000000	0.356105
389.000000	0.355150
390.000000	0.353852
391.000000	0.355497
392.000000	0.357326
393.000000	0.357068
394.000000	0.354642
395.000000	0.356428
396.000000	0.358213
397.000000	0.358160
398.000000	0.357186
399.000000	0.359234
400.000000	0.362568
401.000000	0.362857
402.000000	0.362335
403.000000	0.362416
404.000000	0.363747
405.000000	0.363462
406.000000	0.363176
407.000000	0.363532
408.000000	0.363012
409.000000	0.363140
410.000000	0.364006
411.000000	0.364854
412.000000	0.365094
413.000000	0.365280
414.000000	0.366034
415.000000	0.366399
416.000000	0.366747
417.000000	0.367332
418.000000	0.367989
419.000000	0.368528
420.000000	0.368806
421.000000	0.368661
422.000000	0.369274
423.000000	0.370139
424.000000	0.370434
425.000000	0.370722
426.000000	0.371073
427.000000	0.371434
428.000000	0.371699
429.000000	0.371760
430.000000	0.371765
431.000000	0.372264
432.000000	0.372181
433.000000	0.371955
434.000000	0.372791
435.000000	0.372994
436.000000	0.373118
437.000000	0.373723
438.000000	0.373399
439.000000	0.373404
440.000000	0.374288
441.000000	0.374566
442.000000	0.374878
443.000000	0.375258
444.000000	0.375637
445.000000	0.375783
446.000000	0.376003
447.000000	0.376396
448.000000	0.376628
449.000000	0.376998
450.000000	0.377590
451.000000	0.377633
452.000000	0.377683
453.000000	0.377922
454.000000	0.378508
455.000000	0.378977
456.000000	0.379413
457.000000	0.379837
458.000000	0.380122
459.000000	0.380360
460.000000	0.380711
461.000000	0.381079
462.000000	0.381279
463.000000	0.381172
464.000000	0.381540
465.000000	0.381603
466.000000	0.381498
467.000000	0.382140
468.000000	0.382396
469.000000	0.382326
470.000000	0.382534
471.000000	0.382998
472.000000	0.383278
473.000000	0.383220
474.000000	0.383287
475.000000	0.383388
476.000000	0.383692
477.000000	0.384153
478.000000	0.384284
479.000000	0.384432
480.000000	0.384732
481.000000	0.384857
482.000000	0.385177
483.000000	0.385646
484.000000	0.385880
485.000000	0.386040
486.000000	0.386442
487.000000	0.386798
488.000000	0.387048
489.000000	0.387250
490.000000	0.387525
491.000000	0.387737
492.000000	0.388049
493.000000	0.388421
494.000000	0.388473
495.000000	0.388701
496.000000	0.389293
497.000000	0.389664
498.000000	0.389908
499.000000	0.390197
500.000000	0.390523
501.000000	0.390880
502.000000	0.391252
503.000000	0.391487
504.000000	0.391700
505.000000	0.391874
506.000000	0.392021
507.000000	0.392369
508.000000	0.392730
509.000000	0.392966
510.000000	0.393297
511.000000	0.393632
512.000000	0.393935
513.000000	0.394109
514.000000	0.394491
515.000000	0.394948
516.000000	0.395142
517.000000	0.395432
518.000000	0.395792
519.000000	0.396054
520.000000	0.396366
521.000000	0.396711
522.000000	0.397082
523.000000	0.397478
524.000000	0.397761
525.000000	0.398002
526.000000	0.398453
527.000000	0.398707
528.000000	0.398812
529.000000	0.399000
530.000000	0.399289
531.000000	0.399658
532.000000	0.399950
533.000000	0.400179
534.000000	0.400446
535.000000	0.400757
536.000000	0.401084
537.000000	0.401387
538.000000	0.401654
539.000000	0.401878
540.000000	0.402202
541.000000	0.402549
542.000000	0.402864
543.000000	0.403040
544.000000	0.403277
545.000000	0.403565
546.000000	0.403867
547.000000	0.404131
548.000000	0.404447
549.000000	0.404873
550.000000	0.405227
551.000000	0.405569
552.000000	0.405933
553.000000	0.406230
554.000000	0.406513
555.000000	0.406845
556.000000	0.407234
557.000000	0.407516
558.000000	0.407832
559.000000	0.408195
560.000000	0.408423
561.000000	0.408695
562.000000	0.409135
563.000000	0.409404
564.000000	0.409665
565.000000	0.409984
566.000000	0.410379
567.000000	0.410746
568.000000	0.411016
569.000000	0.411335
570.000000	0.411675
571.000000	0.412011
572.000000	0.412345
573.000000	0.412648
574.000000	0.412912
575.000000	0.413223
576.000000	0.413512
577.000000	0.413721
578.000000	0.413934
579.000000	0.414252
580.000000	0.414546
581.000000	0.414786
582.000000	0.415135
583.000000	0.415481
584.000000	0.415817
585.000000	0.416182
586.000000	0.416512
587.000000	0.416792
588.000000	0.417018
589.000000	0.417154
590.000000	0.417318
591.000000	0.417575
592.000000	0.417836
593.000000	0.418190
594.000000	0.418568
595.000000	0.418730
596.000000	0.418945
597.000000	0.419236
598.000000	0.419404
599.000000	0.419625
600.000000	0.419941
601.000000	0.420229
602.000000	0.420451
603.000000	0.420581
604.000000	0.420668
605.000000	0.420860
606.000000	0.421026
607.000000	0.421136
608.000000	0.421215
609.000000	0.421373
610.000000	0.421582
611.000000	0.421772
612.000000	0.421909
613.000000	0.422054
614.000000	0.422285
615.000000	0.422508
616.000000	0.422588
617.000000	0.422556
618.000000	0.422782
619.000000	0.422966
620.000000	0.423078
621.000000	0.423267
622.000000	0.423462
623.000000	0.423623
624.000000	0.423736
625.000000	0.423881
626.000000	0.424060
627.000000	0.424265
628.000000	0.424488
629.000000	0.424761
630.000000	0.424928
631.000000	0.425133
632.000000	0.425281
633.000000	0.425403
634.000000	0.425516
635.000000	0.425554
636.000000	0.425635
637.000000	0.425782
638.000000	0.425892
639.000000	0.426035
640.000000	0.426241
641.000000	0.426264
642.000000	0.426430
643.000000	0.426617
644.000000	0.426612
645.000000	0.426675
646.000000	0.426793
647.000000	0.426898
648.000000	0.427057
649.000000	0.427238
650.000000	0.427399
651.000000	0.427562
652.000000	0.427687
653.000000	0.427865
654.000000	0.428114
655.000000	0.428276
656.000000	0.428400
657.000000	0.428492
658.000000	0.428664
659.000000	0.428846
660.000000	0.428976
661.000000	0.429095
662.000000	0.429121
663.000000	0.429185
664.000000	0.429391
665.000000	0.429541
666.000000	0.429667
667.000000	0.429800
668.000000	0.429919
669.000000	0.430043
670.000000	0.430200
671.000000	0.430410
672.000000	0.430657
673.000000	0.430892
674.000000	0.431070
675.000000	0.431194
676.000000	0.431313
677.000000	0.431487
678.000000	0.431566
679.000000	0.431662
680.000000	0.431839
681.000000	0.431894
682.000000	0.432032
683.000000	0.432212
684.000000	0.432481
685.000000	0.432632
686.000000	0.432746
687.000000	0.432921
688.000000	0.433144
689.000000	0.433357
690.000000	0.433561
691.000000	0.433757
692.000000	0.433877
693.000000	0.434017
694.000000	0.434214
695.000000	0.434341
696.000000	0.434422
697.000000	0.434549
698.000000	0.434701
699.000000	0.434854
700.000000	0.434999
701.000000	0.435130
702.000000	0.435304
703.000000	0.435467
704.000000	0.435476
705.000000	0.435572
706.000000	0.435736
707.000000	0.435963
708.000000	0.436109
709.000000	0.436242
710.000000	0.436454
711.000000	0.436645
712.000000	0.436799
713.000000	0.436951
714.000000	0.437129
715.000000	0.437286
716.000000	0.437428
717.000000	0.437552
718.000000	0.437714
719.000000	0.437860
720.000000	0.437981
721.000000	0.438199
722.000000	0.438324
723.000000	0.438395
724.000000	0.438507
725.000000	0.438537
726.000000	0.438603
727.000000	0.438684
728.000000	0.438779
729.000000	0.438963
730.000000	0.439186
731.000000	0.439327
732.000000	0.439478
733.000000	0.439677
734.000000	0.439715
735.000000	0.439710
736.000000	0.439844
737.000000	0.439955
738.000000	0.440004
739.000000	0.440056
740.000000	0.439961
741.000000	0.439982
742.000000	0.440065
743.000000	0.440142
744.000000	0.440253
745.000000	0.440311
746.000000	0.440381
747.000000	0.440430
748.000000	0.440512
749.000000	0.440606
750.000000	0.440655
751.000000	0.440723
752.000000	0.440801
753.000000	0.440906
754.000000	0.441033
755.000000	0.441192
756.000000	0.441330
757.000000	0.441337
758.000000	0.441372
759.000000	0.441441
760.000000	0.441463
761.000000	0.441609
762.000000	0.441778
763.000000	0.441900
764.000000	0.442033
765.000000	0.442124
766.000000	0.442122
767.000000	0.442028
768.000000	0.442111
769.000000	0.442182
770.000000	0.442177
771.000000	0.442200
772.000000	0.442303
773.000000	0.442394
774.000000	0.442509
775.000000	0.442607
776.000000	0.442692
777.000000	0.442755
778.000000	0.442838
779.000000	0.442881
780.000000	0.442875
781.000000	0.442830
782.000000	0.442695
783.000000	0.442662
784.000000	0.442687
785.000000	0.442707
786.000000	0.442731
787.000000	0.442765
788.000000	0.442824
789.000000	0.442902
790.000000	0.442952
791.000000	0.442982
792.000000	0.442999
793.000000	0.443047
794.000000	0.443138
795.000000	0.443138
796.000000	0.443077
797.000000	0.443014
798.000000	0.443053
799.000000	0.443170
800.000000	0.443259
801.000000	0.443234
802.000000	0.443269
803.000000	0.443348
804.000000	0.443453
805.000000	0.443381
806.000000	0.443266
807.000000	0.443248
808.000000	0.443252
809.000000	0.443282
810.000000	0.443372
811.000000	0.443495
812.000000	0.443510
813.000000	0.443465
814.000000	0.443410
815.000000	0.443427
816.000000	0.443340
817.000000	0.443234
818.000000	0.443115
819.000000	0.443022
820.000000	0.443086
821.000000	0.443185
822.000000	0.443037
823.000000	0.442977
824.000000	0.442964
825.000000	0.442999
826.000000	0.442993
827.000000	0.442963
828.000000	0.442982
829.000000	0.442991
830.000000	0.442950
831.000000	0.442925
832.000000	0.442805
833.000000	0.442755
834.000000	0.442730
835.000000	0.442718
836.000000	0.442715
837.000000	0.442623
838.000000	0.442472
839.000000	0.442334
840.000000	0.442335
841.000000	0.442393
842.000000	0.442350
843.000000	0.442303
844.000000	0.442228
845.000000	0.442142
846.000000	0.442216
847.000000	0.442327
848.000000	0.442341
849.000000	0.442220
850.000000	0.442110
851.000000	0.441996
852.000000	0.441945
853.000000	0.441998
854.000000	0.441863
855.000000	0.441775
856.000000	0.441804
857.000000	0.441751
858.000000	0.441657
859.000000	0.441469
860.000000	0.441299
861.000000	0.441223
862.000000	0.441257
863.000000	0.441254
864.000000	0.441123
865.000000	0.441012
866.000000	0.441000
867.000000	0.440895
868.000000	0.440744
869.000000	0.440567
870.000000	0.440520
871.000000	0.440386
872.000000	0.440260
873.000000	0.440121
874.000000	0.439956
875.000000	0.439879
876.000000	0.439823
877.000000	0.439571
878.000000	0.439320
879.000000	0.439177
880.000000	0.438991
881.000000	0.438871
882.000000	0.438751
883.000000	0.438621
884.000000	0.438413
885.000000	0.438263
886.000000	0.438126
887.000000	0.438006
888.000000	0.437903
889.000000	0.437770
890.000000	0.437476
891.000000	0.437201
892.000000	0.436911
893.000000	0.436720
894.000000	0.436764
895.000000	0.436640
896.000000	0.436369
897.000000	0.436078
898.000000	0.435916
899.000000	0.435822
900.000000	0.435588
901.000000	0.435188
902.000000	0.435036
903.000000	0.435056
904.000000	0.435093
905.000000	0.434889
906.000000	0.434829
907.000000	0.434645
908.000000	0.434360
909.000000	0.434077
910.000000	0.433835
911.000000	0.433683
912.000000	0.433642
913.000000	0.433542
914.000000	0.433433
915.000000	0.433341
916.000000	0.433042
917.000000	0.432737
918.000000	0.432410
919.000000	0.432055
920.000000	0.431911
921.000000	0.431856
922.000000	0.431793
923.000000	0.431603
924.000000	0.431340
925.000000	0.430996
926.000000	0.430670
927.000000	0.430492
928.000000	0.430259
929.000000	0.429942
930.000000	0.429606
931.000000	0.429412
932.000000	0.429149
933.000000	0.428870
934.000000	0.428775
935.000000	0.428451
936.000000	0.428204
937.000000	0.428092
938.000000	0.427503
939.000000	0.427269
940.000000	0.427269
941.000000	0.427041
942.000000	0.426641
943.000000	0.426311
944.000000	0.425980
945.000000	0.425581
946.000000	0.425092
947.000000	0.424762
948.000000	0.424689
949.000000	0.424365
950.000000	0.424230
951.000000	0.424170
952.000000	0.423719
953.000000	0.423425
954.000000	0.423286
955.000000	0.423121
956.000000	0.423017
957.000000	0.422717
958.000000	0.422373
959.000000	0.422369
960.000000	0.421943
961.000000	0.421616
962.000000	0.421482
963.000000	0.421129
964.000000	0.420860
965.000000	0.420719
966.000000	0.420511
967.000000	0.420255
968.000000	0.419983
969.000000	0.419658
970.000000	0.419407
971.000000	0.419284
972.000000	0.419173
973.000000	0.418924
974.000000	0.418640
975.000000	0.418418
976.000000	0.418273
977.000000	0.418171
978.000000	0.418051
979.000000	0.418177
980.000000	0.418018
981.000000	0.417526
982.000000	0.417203
983.000000	0.416982
984.000000	0.416890
985.000000	0.416866
986.000000	0.416657
987.000000	0.416349
988.000000	0.415945
989.000000	0.415689
990.000000	0.415666
991.000000	0.415626
992.000000	0.415413
993.000000	0.415609
994.000000	0.415412
995.000000	0.415044
996.000000	0.414885
997.000000	0.414494
998.000000	0.414418
999.000000	0.414768
1000.000000	0.414510
1001.000000	0.415071
1002.000000	0.414539
1003.000000	0.414087
1004.000000	0.413640
1005.000000	0.413231
1006.000000	0.413136
1007.000000	0.413129
1008.000000	0.413302
1009.000000	0.413801
1010.000000	0.414053
1011.000000	0.414107
1012.000000	0.414176
1013.000000	0.413736
1014.000000	0.412818
1015.000000	0.411963
1016.000000	0.411696
1017.000000	0.411438
1018.000000	0.411839
1019.000000	0.412184
1020.000000	0.412980
1021.000000	0.412665
1022.000000	0.412305
1023.000000	0.412424
1024.000000	0.412037
1025.000000	0.412008
1026.000000	0.412396
1027.000000	0.412466
1028.000000	0.412790
1029.000000	0.412640
1030.000000	0.412773
1031.000000	0.412970
1032.000000	0.412736
1033.000000	0.413165
1034.000000	0.412925
1035.000000	0.411893
1036.000000	0.411855
1037.000000	0.412043
1038.000000	0.411996
1039.000000	0.412527
1040.000000	0.413362
1041.000000	0.413074
1042.000000	0.412890
1043.000000	0.413163
1044.000000	0.413427
1045.000000	0.413586
1046.000000	0.413226
1047.000000	0.413144
1048.000000	0.412773
1049.000000	0.412748
1050.000000	0.413127
1051.000000	0.413236
1052.000000	0.413118
1053.000000	0.413128
1054.000000	0.413357
1055.000000	0.413656
1056.000000	0.414222
1057.000000	0.414657
1058.000000	0.414776
1059.000000	0.414555
1060.000000	0.414698
1061.000000	0.415423
1062.000000	0.416097
1063.000000	0.416440
1064.000000	0.416739
1065.000000	0.416558
1066.000000	0.416655
1067.000000	0.416861
1068.000000	0.417015
1069.000000	0.417032
1070.000000	0.417188
1071.000000	0.417564
1072.000000	0.417703
1073.000000	0.418015
1074.000000	0.417994
1075.000000	0.417699
1076.000000	0.417901
1077.000000	0.417768
1078.000000	0.417717
1079.000000	0.418111
1080.000000	0.419052
1081.000000	0.419269
1082.000000	0.419725
1083.000000	0.419901
1084.000000	0.419181
1085.000000	0.419316
1086.000000	0.420119
1087.000000	0.420479
1088.000000	0.420994
1089.000000	0.421133
1090.000000	0.420840
1091.000000	0.420300
1092.000000	0.420307
1093.000000	0.420473
1094.000000	0.420494
1095.000000	0.420511
1096.000000	0.420883
1097.000000	0.421322
1098.000000	0.421689
1099.000000	0.422444
1100.000000	0.422877
1101.000000	0.422952
1102.000000	0.422986
1103.000000	0.422906
1104.000000	0.422955
1105.000000	0.422649
1106.000000	0.422777
1107.000000	0.423382
1108.000000	0.423631
1109.000000	0.423946
1110.000000	0.424135
1111.000000	0.424574
1112.000000	0.425094
1113.000000	0.425271
1114.000000	0.425550
1115.000000	0.425700
1116.000000	0.425292
1117.000000	0.425398
1118.000000	0.425994
1119.000000	0.426098
1120.000000	0.426106
1121.000000	0.426049
1122.000000	0.425583
1123.000000	0.425867
1124.000000	0.426363
1125.000000	0.426668
1126.000000	0.427271
1127.000000	0.427504
1128.000000	0.427502
1129.000000	0.427071
1130.000000	0.427099
1131.000000	0.427291
1132.000000	0.427122
1133.000000	0.426919
1134.000000	0.426934
1135.000000	0.426738
1136.000000	0.426620
1137.000000	0.426815
1138.000000	0.426768
1139.000000	0.426435
1140.000000	0.426517
1141.000000	0.426880
1142.000000	0.427041
1143.000000	0.427240
1144.000000	0.427434
1145.000000	0.427339
1146.000000	0.426950
1147.000000	0.426824
1148.000000	0.426558
1149.000000	0.426505
1150.000000	0.426649
1151.000000	0.426716
1152.000000	0.426734
1153.000000	0.426815
1154.000000	0.426864
1155.000000	0.426884
1156.000000	0.427015
1157.000000	0.427017
1158.000000	0.426813
1159.000000	0.426705
1160.000000	0.426512
1161.000000	0.426409
1162.000000	0.426399
1163.000000	0.426666
1164.000000	0.426890
1165.000000	0.426890
1166.000000	0.426954
1167.000000	0.426944
1168.000000	0.426877
1169.000000	0.426767
1170.000000	0.426789
1171.000000	0.426814
1172.000000	0.426964
1173.000000	0.427342
1174.000000	0.427404
1175.000000	0.427301
1176.000000	0.427249
1177.000000	0.427136
1178.000000	0.427045
1179.000000	0.427094
1180.000000	0.426950
1181.000000	0.426687
1182.000000	0.426536
1183.000000	0.426697
1184.000000	0.426735
1185.000000	0.426715
1186.000000	0.426801
1187.000000	0.426795
1188.000000	0.426589
1189.000000	0.426466
1190.000000	0.426459
1191.000000	0.426486
1192.000000	0.426594
1193.000000	0.426848
1194.000000	0.427243
1195.000000	0.427355
1196.000000	0.427264
1197.000000	0.427199
1198.000000	0.426913
1199.000000	0.426819
1200.000000	0.426800
1201.000000	0.426827
1202.000000	0.426884
1203.000000	0.427085
1204.000000	0.427202
1205.000000	0.427179
1206.000000	0.427012
1207.000000	0.426780
1208.000000	0.426633
1209.000000	0.426437
1210.000000	0.426382
1211.000000	0.426492
1212.000000	0.426485
1213.000000	0.426464
1214.000000	0.426577
1215.000000	0.426819
1216.000000	0.426890
1217.000000	0.426888
1218.000000	0.426878
1219.000000	0.426824
1220.000000	0.426731
1221.000000	0.426659
1222.000000	0.426734
1223.000000	0.426698
1224.000000	0.426592
1225.000000	0.426553
1226.000000	0.426578
1227.000000	0.426638
1228.000000	0.426775
1229.000000	0.426735
1230.000000	0.426543
1231.000000	0.426455
1232.000000	0.426458
1233.000000	0.426604
1234.000000	0.426919
1235.000000	0.427068
1236.000000	0.427087
1237.000000	0.427119
1238.000000	0.427062
1239.000000	0.426967
1240.000000	0.426785
1241.000000	0.426628
1242.000000	0.426604
1243.000000	0.426635
1244.000000	0.426729
1245.000000	0.426944
1246.000000	0.427034
1247.000000	0.427035
1248.000000	0.427074
1249.000000	0.427114
1250.000000	0.427016
1251.000000	0.426977
1252.000000	0.426921
1253.000000	0.426857
1254.000000	0.426797
1255.000000	0.426740
1256.000000	0.426731
1257.000000	0.426829
1258.000000	0.426911
1259.000000	0.426941
1260.000000	0.426960
1261.000000	0.426818
1262.000000	0.426735
1263.000000	0.426692
1264.000000	0.426621
1265.000000	0.426655
1266.000000	0.426748
1267.000000	0.426563
1268.000000	0.426451
1269.000000	0.426448
1270.000000	0.426391
1271.000000	0.426381
1272.000000	0.426483
1273.000000	0.426486
1274.000000	0.426426
1275.000000	0.426443
1276.000000	0.426622
1277.000000	0.426763
1278.000000	0.426776
1279.000000	0.426806
1280.000000	0.426827
1281.000000	0.426707
1282.000000	0.426525
1283.000000	0.426498
1284.000000	0.426305
1285.000000	0.426213
1286.000000	0.426189
1287.000000	0.426253
1288.000000	0.426245
1289.000000	0.426220
1290.000000	0.426045
1291.000000	0.425827
1292.000000	0.425574
1293.000000	0.425424
1294.000000	0.425491
1295.000000	0.425297
1296.000000	0.425040
1297.000000	0.425061
1298.000000	0.425092
1299.000000	0.425122
1300.000000	0.425298
1301.000000	0.425369
1302.000000	0.425273
1303.000000	0.425135
1304.000000	0.425032
1305.000000	0.424955
1306.000000	0.424874
1307.000000	0.424916
1308.000000	0.424914
1309.000000	0.424862
1310.000000	0.424857
1311.000000	0.424962
1312.000000	0.424799
1313.000000	0.424694
1314.000000	0.424670
1315.000000	0.424451
1316.000000	0.424465
1317.000000	0.424423
1318.000000	0.424046
1319.000000	0.423748
1320.000000	0.423516
1321.000000	0.423169
1322.000000	0.423008
1323.000000	0.423072
1324.000000	0.422991
1325.000000	0.422787
1326.000000	0.422667
1327.000000	0.422325
1328.000000	0.421998
1329.000000	0.421713
1330.000000	0.421605
1331.000000	0.421369
1332.000000	0.421101
1333.000000	0.420911
1334.000000	0.420856
1335.000000	0.420753
1336.000000	0.420684
1337.000000	0.420482
1338.000000	0.420119
1339.000000	0.419760
1340.000000	0.419425
1341.000000	0.419349
1342.000000	0.419236
1343.000000	0.419065
1344.000000	0.418957
1345.000000	0.418735
1346.000000	0.418538
1347.000000	0.418318
1348.000000	0.418144
1349.000000	0.417813
1350.000000	0.417623
1351.000000	0.417492
1352.000000	0.417250
1353.000000	0.417011
1354.000000	0.416883
1355.000000	0.416733
1356.000000	0.416573
1357.000000	0.416331
1358.000000	0.416020
1359.000000	0.415714
1360.000000	0.415444
1361.000000	0.415272
1362.000000	0.415014
1363.000000	0.414737
1364.000000	0.414453
1365.000000	0.414070
1366.000000	0.413742
1367.000000	0.413423
1368.000000	0.413109
1369.000000	0.412917
1370.000000	0.412430
1371.000000	0.411859
1372.000000	0.411160
1373.000000	0.410233
1374.000000	0.409482
1375.000000	0.408723
1376.000000	0.407829
1377.000000	0.406735
1378.000000	0.405300
1379.000000	0.403455
1380.000000	0.401248
1381.000000	0.398796
1382.000000	0.396114
1383.000000	0.393288
1384.000000	0.390247
1385.000000	0.387199
1386.000000	0.384457
1387.000000	0.381902
1388.000000	0.379817
1389.000000	0.378333
1390.000000	0.377051
1391.000000	0.376193
1392.000000	0.375892
1393.000000	0.375727
1394.000000	0.376054
1395.000000	0.376301
1396.000000	0.376811
1397.000000	0.376885
1398.000000	0.376886
1399.000000	0.376556
1400.000000	0.375929
1401.000000	0.375255
1402.000000	0.374456
1403.000000	0.373456
1404.000000	0.372551
1405.000000	0.371568
1406.000000	0.370492
1407.000000	0.369526
1408.000000	0.368534
1409.000000	0.367448
1410.000000	0.366574
1411.000000	0.365770
1412.000000	0.364907
1413.000000	0.364308
1414.000000	0.363760
1415.000000	0.363178
1416.000000	0.362631
1417.000000	0.362128
1418.000000	0.361679
1419.000000	0.361271
1420.000000	0.360849
1421.000000	0.360621
1422.000000	0.360447
1423.000000	0.360314
1424.000000	0.360090
1425.000000	0.359888
1426.000000	0.359615
1427.000000	0.359280
1428.000000	0.359040
1429.000000	0.358778
1430.000000	0.358413
1431.000000	0.358198
1432.000000	0.358020
1433.000000	0.357941
1434.000000	0.357807
1435.000000	0.357874
1436.000000	0.357726
1437.000000	0.357478
1438.000000	0.357180
1439.000000	0.356761
1440.000000	0.356450
1441.000000	0.356173
1442.000000	0.355965
1443.000000	0.355737
1444.000000	0.355578
1445.000000	0.355471
1446.000000	0.355168
1447.000000	0.354690
1448.000000	0.354364
1449.000000	0.354102
1450.000000	0.353768
1451.000000	0.353632
1452.000000	0.353495
1453.000000	0.353259
1454.000000	0.352941
1455.000000	0.352619
1456.000000	0.352499
1457.000000	0.352352
1458.000000	0.352270
1459.000000	0.352315
1460.000000	0.352204
1461.000000	0.352078
1462.000000	0.352019
1463.000000	0.351996
1464.000000	0.352192
1465.000000	0.352344
1466.000000	0.352339
1467.000000	0.352481
1468.000000	0.352595
1469.000000	0.352775
1470.000000	0.353006
1471.000000	0.353143
1472.000000	0.353292
1473.000000	0.353655
1474.000000	0.354054
1475.000000	0.354480
1476.000000	0.354863
1477.000000	0.355163
1478.000000	0.355467
1479.000000	0.355796
1480.000000	0.356223
1481.000000	0.356596
1482.000000	0.356977
1483.000000	0.357423
1484.000000	0.357915
1485.000000	0.358376
1486.000000	0.358831
1487.000000	0.359358
1488.000000	0.359921
1489.000000	0.360500
1490.000000	0.361073
1491.000000	0.361576
1492.000000	0.361945
1493.000000	0.362372
1494.000000	0.362684
1495.000000	0.363092
1496.000000	0.363633
1497.000000	0.364056
1498.000000	0.364471
1499.000000	0.364838
1500.000000	0.365237
1501.000000	0.365631
1502.000000	0.366048
1503.000000	0.366550
1504.000000	0.366942
1505.000000	0.367274
1506.000000	0.367620
1507.000000	0.367841
1508.000000	0.368091
1509.000000	0.368442
1510.000000	0.368778
1511.000000	0.369171
1512.000000	0.369440
1513.000000	0.369548
1514.000000	0.369818
1515.000000	0.370065
1516.000000	0.370283
1517.000000	0.370552
1518.000000	0.370731
1519.000000	0.370802
1520.000000	0.371034
1521.000000	0.371344
1522.000000	0.371577
1523.000000	0.371815
1524.000000	0.372017
1525.000000	0.372108
1526.000000	0.372164
1527.000000	0.372258
1528.000000	0.372393
1529.000000	0.372577
1530.000000	0.372701
1531.000000	0.372899
1532.000000	0.373142
1533.000000	0.373314
1534.000000	0.373472
1535.000000	0.373670
1536.000000	0.373724
1537.000000	0.373789
1538.000000	0.373979
1539.000000	0.374102
1540.000000	0.374190
1541.000000	0.374333
1542.000000	0.374466
1543.000000	0.374566
1544.000000	0.374659
1545.000000	0.374802
1546.000000	0.374914
1547.000000	0.375055
1548.000000	0.375372
1549.000000	0.375542
1550.000000	0.375480
1551.000000	0.375547
1552.000000	0.375607
1553.000000	0.375634
1554.000000	0.375834
1555.000000	0.376021
1556.000000	0.376121
1557.000000	0.376172
1558.000000	0.376249
1559.000000	0.376294
1560.000000	0.376269
1561.000000	0.376223
1562.000000	0.376208
1563.000000	0.376195
1564.000000	0.376236
1565.000000	0.376342
1566.000000	0.376304
1567.000000	0.376360
1568.000000	0.376376
1569.000000	0.376352
1570.000000	0.376335
1571.000000	0.376332
1572.000000	0.376340
1573.000000	0.376359
1574.000000	0.376435
1575.000000	0.376582
1576.000000	0.376634
1577.000000	0.376647
1578.000000	0.376654
1579.000000	0.376679
1580.000000	0.376708
1581.000000	0.376845
1582.000000	0.376886
1583.000000	0.376840
1584.000000	0.376865
1585.000000	0.376997
1586.000000	0.377071
1587.000000	0.377141
1588.000000	0.377207
1589.000000	0.377282
1590.000000	0.377312
1591.000000	0.377364
1592.000000	0.377467
1593.000000	0.377578
1594.000000	0.377608
1595.000000	0.377703
1596.000000	0.377785
1597.000000	0.377860
1598.000000	0.377914
1599.000000	0.378021
1600.000000	0.378053
1601.000000	0.378102
1602.000000	0.378097
1603.000000	0.378072
1604.000000	0.378069
1605.000000	0.378108
1606.000000	0.378062
1607.000000	0.378066
1608.000000	0.378033
1609.000000	0.377906
1610.000000	0.377918
1611.000000	0.378119
1612.000000	0.378175
1613.000000	0.378354
1614.000000	0.378406
1615.000000	0.378327
1616.000000	0.378388
1617.000000	0.378453
1618.000000	0.378536
1619.000000	0.378627
1620.000000	0.378749
1621.000000	0.378971
1622.000000	0.379195
1623.000000	0.379373
1624.000000	0.379572
1625.000000	0.379629
1626.000000	0.379671
1627.000000	0.379798
1628.000000	0.379877
1629.000000	0.379839
1630.000000	0.379890
1631.000000	0.379867
1632.000000	0.379824
1633.000000	0.379808
1634.000000	0.379922
1635.000000	0.380073
1636.000000	0.380275
1637.000000	0.380743
1638.000000	0.380865
1639.000000	0.380853
1640.000000	0.380961
1641.000000	0.380993
1642.000000	0.381202
1643.000000	0.381697
1644.000000	0.381947
1645.000000	0.382148
1646.000000	0.382266
1647.000000	0.382242
1648.000000	0.382348
1649.000000	0.382618
1650.000000	0.382836
1651.000000	0.383136
1652.000000	0.383442
1653.000000	0.383700
1654.000000	0.383869
1655.000000	0.383939
1656.000000	0.383941
1657.000000	0.383872
1658.000000	0.383960
1659.000000	0.384298
1660.000000	0.384449
1661.000000	0.384474
1662.000000	0.384529
1663.000000	0.384451
1664.000000	0.384453
1665.000000	0.384481
1666.000000	0.384636
1667.000000	0.384735
1668.000000	0.384879
1669.000000	0.385139
1670.000000	0.385204
1671.000000	0.385295
1672.000000	0.385447
1673.000000	0.385504
1674.000000	0.385707
1675.000000	0.385949
1676.000000	0.386089
1677.000000	0.386180
1678.000000	0.386266
1679.000000	0.386334
1680.000000	0.386332
1681.000000	0.386387
1682.000000	0.386313
1683.000000	0.386323
1684.000000	0.386463
1685.000000	0.386559
1686.000000	0.386786
1687.000000	0.386913
1688.000000	0.386912
1689.000000	0.387068
1690.000000	0.387212
1691.000000	0.387422
1692.000000	0.387576
1693.000000	0.387714
1694.000000	0.387677
1695.000000	0.387660
1696.000000	0.387644
1697.000000	0.387548
1698.000000	0.387503
1699.000000	0.387494
1700.000000	0.387415
1701.000000	0.387508
1702.000000	0.387518
1703.000000	0.387485
1704.000000	0.387629
1705.000000	0.387650
1706.000000	0.387567
1707.000000	0.387627
1708.000000	0.387711
1709.000000	0.387698
1710.000000	0.387903
1711.000000	0.387972
1712.000000	0.387894
1713.000000	0.387845
1714.000000	0.387767
1715.000000	0.387826
1716.000000	0.388004
1717.000000	0.388078
1718.000000	0.388141
1719.000000	0.388215
1720.000000	0.388273
1721.000000	0.388374
1722.000000	0.388607
1723.000000	0.388726
1724.000000	0.388810
1725.000000	0.388881
1726.000000	0.388785
1727.000000	0.388787
1728.000000	0.388728
1729.000000	0.388636
1730.000000	0.388742
1731.000000	0.388745
1732.000000	0.388682
1733.000000	0.388758
1734.000000	0.388708
1735.000000	0.388737
1736.000000	0.388801
1737.000000	0.388852
1738.000000	0.388940
1739.000000	0.389019
1740.000000	0.389060
1741.000000	0.389167
1742.000000	0.389360
1743.000000	0.389434
1744.000000	0.389489
1745.000000	0.389446
1746.000000	0.389191
1747.000000	0.389485
1748.000000	0.389516
1749.000000	0.389571
1750.000000	0.389562
1751.000000	0.389396
1752.000000	0.389470
1753.000000	0.389647
1754.000000	0.389668
1755.000000	0.389549
1756.000000	0.389491
1757.000000	0.389339
1758.000000	0.389283
1759.000000	0.389405
1760.000000	0.389363
1761.000000	0.389128
1762.000000	0.389018
1763.000000	0.388938
1764.000000	0.388844
1765.000000	0.388721
1766.000000	0.388737
1767.000000	0.388665
1768.000000	0.388650
1769.000000	0.388974
1770.000000	0.389126
1771.000000	0.389168
1772.000000	0.389156
1773.000000	0.388966
1774.000000	0.388916
1775.000000	0.388930
1776.000000	0.388960
1777.000000	0.389016
1778.000000	0.389077
1779.000000	0.389162
1780.000000	0.389139
1781.000000	0.389070
1782.000000	0.388976
1783.000000	0.388755
1784.000000	0.388755
1785.000000	0.388901
1786.000000	0.389013
1787.000000	0.389184
1788.000000	0.389272
1789.000000	0.389166
1790.000000	0.389313
1791.000000	0.389323
1792.000000	0.389459
1793.000000	0.389497
1794.000000	0.389260
1795.000000	0.389324
1796.000000	0.389617
1797.000000	0.389756
1798.000000	0.389993
1799.000000	0.390125
1800.000000	0.390107
1801.000000	0.389830
1802.000000	0.390076
1803.000000	0.390319
1804.000000	0.390552
1805.000000	0.391122
1806.000000	0.391381
1807.000000	0.391166
1808.000000	0.391394
1809.000000	0.391918
1810.000000	0.392324
1811.000000	0.392326
1812.000000	0.392553
1813.000000	0.392203
1814.000000	0.390746
1815.000000	0.390320
1816.000000	0.390121
1817.000000	0.389833
1818.000000	0.389521
1819.000000	0.390613
1820.000000	0.390663
1821.000000	0.390039
1822.000000	0.389865
1823.000000	0.389348
1824.000000	0.389145
1825.000000	0.389098
1826.000000	0.389308
1827.000000	0.389849
1828.000000	0.389802
1829.000000	0.390259
1830.000000	0.391032
1831.000000	0.390524
1832.000000	0.388910
1833.000000	0.388450
1834.000000	0.387370
1835.000000	0.386973
1836.000000	0.387619
1837.000000	0.387907
1838.000000	0.388130
1839.000000	0.388338
1840.000000	0.387566
1841.000000	0.387696
1842.000000	0.387296
1843.000000	0.385809
1844.000000	0.385468
1845.000000	0.385438
1846.000000	0.385595
1847.000000	0.386164
1848.000000	0.386890
1849.000000	0.387072
1850.000000	0.386579
1851.000000	0.386011
1852.000000	0.384555
1853.000000	0.384099
1854.000000	0.383774
1855.000000	0.383307
1856.000000	0.383442
1857.000000	0.382391
1858.000000	0.381161
1859.000000	0.379925
1860.000000	0.377885
1861.000000	0.376573
1862.000000	0.375188
1863.000000	0.373569
1864.000000	0.372598
1865.000000	0.372863
1866.000000	0.371443
1867.000000	0.369458
1868.000000	0.367587
1869.000000	0.364452
1870.000000	0.361265
1871.000000	0.358651
1872.000000	0.356241
1873.000000	0.353800
1874.000000	0.351301
1875.000000	0.348746
1876.000000	0.346103
1877.000000	0.343191
1878.000000	0.339855
1879.000000	0.337096
1880.000000	0.333674
1881.000000	0.329648
1882.000000	0.325107
1883.000000	0.320264
1884.000000	0.315888
1885.000000	0.311453
1886.000000	0.306691
1887.000000	0.302001
1888.000000	0.297188
1889.000000	0.291706
1890.000000	0.286714
1891.000000	0.281436
1892.000000	0.275862
1893.000000	0.271410
1894.000000	0.267082
1895.000000	0.262526
1896.000000	0.258391
1897.000000	0.254736
1898.000000	0.250040
1899.000000	0.245360
1900.000000	0.241638
1901.000000	0.238053
1902.000000	0.235126
1903.000000	0.233463
1904.000000	0.231493
1905.000000	0.229029
1906.000000	0.226803
1907.000000	0.224666
1908.000000	0.221944
1909.000000	0.219780
1910.000000	0.218985
1911.000000	0.218263
1912.000000	0.217471
1913.000000	0.216897
1914.000000	0.216389
1915.000000	0.215724
1916.000000	0.215097
1917.000000	0.214679
1918.000000	0.214641
1919.000000	0.214383
1920.000000	0.213850
1921.000000	0.213908
1922.000000	0.214259
1923.000000	0.214321
1924.000000	0.214536
1925.000000	0.214678
1926.000000	0.214814
1927.000000	0.215256
1928.000000	0.215381
1929.000000	0.215585
1930.000000	0.215963
1931.000000	0.215736
1932.000000	0.215559
1933.000000	0.216525
1934.000000	0.217191
1935.000000	0.218211
1936.000000	0.219064
1937.000000	0.218871
1938.000000	0.218741
1939.000000	0.218916
1940.000000	0.219005
1941.000000	0.219443
1942.000000	0.220245
1943.000000	0.220799
1944.000000	0.220907
1945.000000	0.220651
1946.000000	0.220111
1947.000000	0.219949
1948.000000	0.220036
1949.000000	0.219852
1950.000000	0.219931
1951.000000	0.219926
1952.000000	0.219888
1953.000000	0.219615
1954.000000	0.219834
1955.000000	0.220303
1956.000000	0.220818
1957.000000	0.221202
1958.000000	0.220970
1959.000000	0.220533
1960.000000	0.220122
1961.000000	0.219710
1962.000000	0.219543
1963.000000	0.219854
1964.000000	0.220002
1965.000000	0.220108
1966.000000	0.220605
1967.000000	0.221083
1968.000000	0.221639
1969.000000	0.221686
1970.000000	0.221219
1971.000000	0.220813
1972.000000	0.220741
1973.000000	0.220897
1974.000000	0.221938
1975.000000	0.222507
1976.000000	0.223076
1977.000000	0.223463
1978.000000	0.224019
1979.000000	0.223915
1980.000000	0.224197
1981.000000	0.224843
1982.000000	0.225199
1983.000000	0.225892
1984.000000	0.226540
1985.000000	0.227181
1986.000000	0.227901
1987.000000	0.228665
1988.000000	0.229910
1989.000000	0.230866
1990.000000	0.231824
1991.000000	0.232284
1992.000000	0.232183
1993.000000	0.232926
1994.000000	0.234177
1995.000000	0.236062
1996.000000	0.237789
1997.000000	0.238645
1998.000000	0.238438
1999.000000	0.239044
2000.000000	0.239304
2001.000000	0.239886
2002.000000	0.241233
2003.000000	0.242871
2004.000000	0.243502
2005.000000	0.243941
2006.000000	0.245439
2007.000000	0.246462
2008.000000	0.247549
2009.000000	0.249247
2010.000000	0.250513
2011.000000	0.251053
2012.000000	0.251996
2013.000000	0.253092
2014.000000	0.253911
2015.000000	0.255070
2016.000000	0.256076
2017.000000	0.256836
2018.000000	0.258247
2019.000000	0.259486
2020.000000	0.260367
2021.000000	0.261316
2022.000000	0.261973
2023.000000	0.262919
2024.000000	0.264271
2025.000000	0.265343
2026.000000	0.266151
2027.000000	0.267478
2028.000000	0.268627
2029.000000	0.269161
2030.000000	0.269969
2031.000000	0.270659
2032.000000	0.271130
2033.000000	0.272236
2034.000000	0.273135
2035.000000	0.274405
2036.000000	0.275223
2037.000000	0.275826
2038.000000	0.276313
2039.000000	0.276408
2040.000000	0.277475
2041.000000	0.278090
2042.000000	0.279071
2043.000000	0.279825
2044.000000	0.280406
2045.000000	0.281366
2046.000000	0.282397
2047.000000	0.283184
2048.000000	0.284071
2049.000000	0.284877
2050.000000	0.284791
2051.000000	0.285294
2052.000000	0.286225
2053.000000	0.286764
2054.000000	0.287426
2055.000000	0.288197
2056.000000	0.288772
2057.000000	0.289440
2058.000000	0.290136
2059.000000	0.290874
2060.000000	0.291349
2061.000000	0.291583
2062.000000	0.291937
2063.000000	0.292133
2064.000000	0.292450
2065.000000	0.293150
2066.000000	0.293649
2067.000000	0.294272
2068.000000	0.295191
2069.000000	0.296009
2070.000000	0.297007
2071.000000	0.297950
2072.000000	0.298653
2073.000000	0.298953
2074.000000	0.299248
2075.000000	0.299793
2076.000000	0.300269
2077.000000	0.300826
2078.000000	0.301598
2079.000000	0.302385
2080.000000	0.303454
2081.000000	0.304281
2082.000000	0.305176
2083.000000	0.305956
2084.000000	0.306240
2085.000000	0.306284
2086.000000	0.306817
2087.000000	0.307440
2088.000000	0.308226
2089.000000	0.309638
2090.000000	0.310373
2091.000000	0.310725
2092.000000	0.311384
2093.000000	0.311697
2094.000000	0.312447
2095.000000	0.314142
2096.000000	0.314959
2097.000000	0.315335
2098.000000	0.315899
2099.000000	0.315581
2100.000000	0.315444
2101.000000	0.316198
2102.000000	0.316488
2103.000000	0.316849
2104.000000	0.317357
2105.000000	0.317802
2106.000000	0.317965
2107.000000	0.318593
2108.000000	0.319474
2109.000000	0.320311
2110.000000	0.321358
2111.000000	0.321946
2112.000000	0.322163
2113.000000	0.322401
2114.000000	0.322496
2115.000000	0.322449
2116.000000	0.322728
2117.000000	0.323454
2118.000000	0.323895
2119.000000	0.324107
2120.000000	0.324235
2121.000000	0.323801
2122.000000	0.324059
2123.000000	0.324645
2124.000000	0.325107
2125.000000	0.325796
2126.000000	0.326298
2127.000000	0.326889
2128.000000	0.327311
2129.000000	0.327206
2130.000000	0.328036
2131.000000	0.328190
2132.000000	0.328139
2133.000000	0.328741
2134.000000	0.329263
2135.000000	0.329850
2136.000000	0.330288
2137.000000	0.330788
2138.000000	0.331345
2139.000000	0.331713
2140.000000	0.331971
2141.000000	0.332213
2142.000000	0.332607
2143.000000	0.332144
2144.000000	0.331096
2145.000000	0.330862
2146.000000	0.330640
2147.000000	0.330596
2148.000000	0.330714
2149.000000	0.331371
2150.000000	0.331386
2151.000000	0.331120
2152.000000	0.331681
2153.000000	0.331957
2154.000000	0.332357
2155.000000	0.333213
2156.000000	0.333172
2157.000000	0.332722
2158.000000	0.332518
2159.000000	0.331800
2160.000000	0.331557
2161.000000	0.331570
2162.000000	0.331729
2163.000000	0.331483
2164.000000	0.331858
2165.000000	0.332778
2166.000000	0.334117
2167.000000	0.335859
2168.000000	0.336774
2169.000000	0.336193
2170.000000	0.335588
2171.000000	0.334688
2172.000000	0.332569
2173.000000	0.331667
2174.000000	0.330875
2175.000000	0.330789
2176.000000	0.331500
2177.000000	0.331872
2178.000000	0.333183
2179.000000	0.333642
2180.000000	0.333307
2181.000000	0.333455
2182.000000	0.332270
2183.000000	0.332740
2184.000000	0.333096
2185.000000	0.333143
2186.000000	0.334691
2187.000000	0.334816
2188.000000	0.334395
2189.000000	0.334638
2190.000000	0.334573
2191.000000	0.334407
2192.000000	0.333880
2193.000000	0.333756
2194.000000	0.332876
2195.000000	0.330444
2196.000000	0.329446
2197.000000	0.328488
2198.000000	0.327937
2199.000000	0.328665
2200.000000	0.329264
2201.000000	0.331118
2202.000000	0.331537
2203.000000	0.330980
2204.000000	0.330034
2205.000000	0.328775
2206.000000	0.327753
2207.000000	0.328005
2208.000000	0.329170
2209.000000	0.329033
2210.000000	0.328977
2211.000000	0.328802
2212.000000	0.325946
2213.000000	0.324474
2214.000000	0.322110
2215.000000	0.322208
2216.000000	0.324269
2217.000000	0.326000
2218.000000	0.329508
2219.000000	0.330657
2220.000000	0.329936
2221.000000	0.329991
2222.000000	0.330461
2223.000000	0.330050
2224.000000	0.329241
2225.000000	0.328794
2226.000000	0.326569
2227.000000	0.324839
2228.000000	0.325742
2229.000000	0.325416
2230.000000	0.326168
2231.000000	0.326201
2232.000000	0.324006
2233.000000	0.324042
2234.000000	0.323200
2235.000000	0.321568
2236.000000	0.321543
2237.000000	0.322242
2238.000000	0.322959
2239.000000	0.325431
2240.000000	0.325877
2241.000000	0.325227
2242.000000	0.324547
2243.000000	0.322074
2244.000000	0.321947
2245.000000	0.323565
2246.000000	0.324378
2247.000000	0.325860
2248.000000	0.326526
2249.000000	0.327408
2250.000000	0.325844
2251.000000	0.323632
2252.000000	0.323336
2253.000000	0.322707
2254.000000	0.322200
2255.000000	0.324184
2256.000000	0.326788
2257.000000	0.329383
2258.000000	0.331652
2259.000000	0.331238
2260.000000	0.331112
2261.000000	0.330219
2262.000000	0.328218
2263.000000	0.325689
2264.000000	0.321609
2265.000000	0.319909
2266.000000	0.318846
2267.000000	0.317452
2268.000000	0.318087
2269.000000	0.317204
2270.000000	0.313130
2271.000000	0.312037
2272.000000	0.313048
2273.000000	0.313175
2274.000000	0.315354
2275.000000	0.315441
2276.000000	0.313986
2277.000000	0.312127
2278.000000	0.309513
2279.000000	0.309313
2280.000000	0.308989
2281.000000	0.307765
2282.000000	0.308422
2283.000000	0.305720
2284.000000	0.302901
2285.000000	0.301802
2286.000000	0.299255
2287.000000	0.297404
2288.000000	0.296918
2289.000000	0.294736
2290.000000	0.292084
2291.000000	0.290302
2292.000000	0.288026
2293.000000	0.286668
2294.000000	0.285692
2295.000000	0.285662
2296.000000	0.285519
2297.000000	0.285713
2298.000000	0.285488
2299.000000	0.286046
2300.000000	0.284493
2301.000000	0.281284
2302.000000	0.278612
2303.000000	0.275338
2304.000000	0.272665
2305.000000	0.269937
2306.000000	0.267952
2307.000000	0.266504
2308.000000	0.263976
2309.000000	0.262627
2310.000000	0.263303
2311.000000	0.264451
2312.000000	0.262148
2313.000000	0.260911
2314.000000	0.260819
2315.000000	0.259085
2316.000000	0.262359
2317.000000	0.267603
2318.000000	0.269389
2319.000000	0.272390
2320.000000	0.274813
2321.000000	0.273375
2322.000000	0.271318
2323.000000	0.269023
2324.000000	0.268168
2325.000000	0.267669
2326.000000	0.268357
2327.000000	0.272085
2328.000000	0.272496
2329.000000	0.275006
2330.000000	0.278779
2331.000000	0.278908
2332.000000	0.278985
2333.000000	0.274463
2334.000000	0.270962
2335.000000	0.268458
2336.000000	0.264038
2337.000000	0.262093
2338.000000	0.262028
2339.000000	0.262774
2340.000000	0.265007
2341.000000	0.267707
2342.000000	0.274163
2343.000000	0.276224
2344.000000	0.277068
2345.000000	0.275932
2346.000000	0.269637
2347.000000	0.267060
2348.000000	0.264733
2349.000000	0.263683
2350.000000	0.262783
2351.000000	0.262242
2352.000000	0.262067
2353.000000	0.260834
2354.000000	0.258821
2355.000000	0.257046
2356.000000	0.253300
2357.000000	0.248137
2358.000000	0.245086
2359.000000	0.244810
2360.000000	0.241833
2361.000000	0.241109
2362.000000	0.244354
2363.000000	0.242715
2364.000000	0.239587
2365.000000	0.238475
2366.000000	0.234669
2367.000000	0.234267
2368.000000	0.238468
2369.000000	0.239169
2370.000000	0.240801
2371.000000	0.242431
2372.000000	0.241257
2373.000000	0.241557
2374.000000	0.239575
2375.000000	0.236396
2376.000000	0.233359
2377.000000	0.228441
2378.000000	0.227961
2379.000000	0.225910
2380.000000	0.223804
2381.000000	0.225957
2382.000000	0.224577
2383.000000	0.221797
2384.000000	0.216813
2385.000000	0.215582
2386.000000	0.213103
2387.000000	0.209311
2388.000000	0.213254
2389.000000	0.213176
2390.000000	0.210167
2391.000000	0.204865
2392.000000	0.201143
2393.000000	0.200774
2394.000000	0.202933
2395.000000	0.213090
2396.000000	0.219584
2397.000000	0.221153
2398.000000	0.218621
2399.000000	0.210720
2400.000000	0.210570
2401.000000	0.213871
2402.000000	0.213929
2403.000000	0.218240
2404.000000	0.216690
2405.000000	0.210673
2406.000000	0.210816
2407.000000	0.213500
2408.000000	0.214167
2409.000000	0.210767
2410.000000	0.206623
2411.000000	0.198499
2412.000000	0.192503
2413.000000	0.192403
2414.000000	0.193504
2415.000000	0.197173
2416.000000	0.202527
2417.000000	0.205832
2418.000000	0.208785
2419.000000	0.213399
2420.000000	0.211666
2421.000000	0.210235
2422.000000	0.207372
2423.000000	0.205723
2424.000000	0.215184
2425.000000	0.214742
2426.000000	0.220437
2427.000000	0.229424
2428.000000	0.215270
2429.000000	0.212413
2430.000000	0.209091
2431.000000	0.193211
2432.000000	0.187366
2433.000000	0.178913
2434.000000	0.175120
2435.000000	0.187175
2436.000000	0.205004
2437.000000	0.212910
2438.000000	0.219182
2439.000000	0.216261
2440.000000	0.199745
2441.000000	0.200738
2442.000000	0.203862
2443.000000	0.198685
2444.000000	0.196799
2445.000000	0.188275
2446.000000	0.174109
2447.000000	0.178455
2448.000000	0.183453
2449.000000	0.174423
2450.000000	0.170155
2451.000000	0.153129
2452.000000	0.144288
2453.000000	0.152872
2454.000000	0.160601
2455.000000	0.158266
2456.000000	0.146836
2457.000000	0.155513
2458.000000	0.162977
2459.000000	0.172817
2460.000000	0.191152
2461.000000	0.178662
2462.000000	0.157311
2463.000000	0.153339
2464.000000	0.153811
2465.000000	0.162418
2466.000000	0.177569
2467.000000	0.180149
2468.000000	0.180513
2469.000000	0.171180
2470.000000	0.167838
2471.000000	0.182105
2472.000000	0.188087
2473.000000	0.181022
2474.000000	0.157624
2475.000000	0.114760
2476.000000	0.091180
2477.000000	0.087411
2478.000000	0.112084
2479.000000	0.177543
2480.000000	0.182425
2481.000000	0.187520
2482.000000	0.181470
2483.000000	0.109540
2484.000000	0.091652
2485.000000	0.071046
2486.000000	0.054075
2487.000000	0.078707
2488.000000	0.090895
2489.000000	0.093479
2490.000000	0.061233
2491.000000	0.033481
2492.000000	0.008231
2493.000000	0.010322
2494.000000	0.009384
2495.000000	-0.021371
2496.000000	-0.015934
2497.000000	0.025500
2498.000000	0.029417
2499.000000	0.022338
2500.000000	0.038286
