# Wavelength	SM1200H-30_FV7-70_00002.asd.rts.txt
350.000000	0.243462
351.000000	0.247617
352.000000	0.247820
353.000000	0.246231
354.000000	0.246130
355.000000	0.243048
356.000000	0.246121
357.000000	0.253091
358.000000	0.249448
359.000000	0.249403
360.000000	0.250755
361.000000	0.248389
362.000000	0.247844
363.000000	0.249379
364.000000	0.251342
365.000000	0.250748
366.000000	0.251377
367.000000	0.252783
368.000000	0.251571
369.000000	0.251496
370.000000	0.252211
371.000000	0.252300
372.000000	0.252217
373.000000	0.252043
374.000000	0.252381
375.000000	0.253105
376.000000	0.255390
377.000000	0.258088
378.000000	0.258050
379.000000	0.256468
380.000000	0.254824
381.000000	0.255396
382.000000	0.256942
383.000000	0.257727
384.000000	0.257238
385.000000	0.257000
386.000000	0.257651
387.000000	0.259050
388.000000	0.259859
389.000000	0.260267
390.000000	0.260707
391.000000	0.261393
392.000000	0.262101
393.000000	0.262983
394.000000	0.263935
395.000000	0.263825
396.000000	0.263537
397.000000	0.263669
398.000000	0.264739
399.000000	0.265499
400.000000	0.265766
401.000000	0.265676
402.000000	0.265541
403.000000	0.265854
404.000000	0.266837
405.000000	0.266770
406.000000	0.266925
407.000000	0.267702
408.000000	0.267707
409.000000	0.268001
410.000000	0.268688
411.000000	0.269320
412.000000	0.269376
413.000000	0.269447
414.000000	0.270143
415.000000	0.270412
416.000000	0.270513
417.000000	0.270682
418.000000	0.270889
419.000000	0.271157
420.000000	0.271485
421.000000	0.271845
422.000000	0.272042
423.000000	0.272170
424.000000	0.272489
425.000000	0.272883
426.000000	0.273232
427.000000	0.273448
428.000000	0.273608
429.000000	0.273817
430.000000	0.274096
431.000000	0.274335
432.000000	0.274619
433.000000	0.274900
434.000000	0.275175
435.000000	0.275162
436.000000	0.275278
437.000000	0.275803
438.000000	0.275911
439.000000	0.275891
440.000000	0.276049
441.000000	0.276294
442.000000	0.276373
443.000000	0.276332
444.000000	0.276628
445.000000	0.276878
446.000000	0.277124
447.000000	0.277322
448.000000	0.277655
449.000000	0.277968
450.000000	0.278150
451.000000	0.278215
452.000000	0.278434
453.000000	0.278752
454.000000	0.278985
455.000000	0.279180
456.000000	0.279488
457.000000	0.279882
458.000000	0.280014
459.000000	0.280139
460.000000	0.280533
461.000000	0.280818
462.000000	0.281010
463.000000	0.281070
464.000000	0.281459
465.000000	0.281712
466.000000	0.281757
467.000000	0.281910
468.000000	0.282201
469.000000	0.282417
470.000000	0.282521
471.000000	0.282699
472.000000	0.282873
473.000000	0.283019
474.000000	0.283206
475.000000	0.283318
476.000000	0.283490
477.000000	0.283755
478.000000	0.283907
479.000000	0.284143
480.000000	0.284424
481.000000	0.284603
482.000000	0.284902
483.000000	0.285249
484.000000	0.285477
485.000000	0.285631
486.000000	0.285898
487.000000	0.286050
488.000000	0.286205
489.000000	0.286411
490.000000	0.286648
491.000000	0.286885
492.000000	0.287174
493.000000	0.287434
494.000000	0.287729
495.000000	0.287980
496.000000	0.288124
497.000000	0.288377
498.000000	0.288700
499.000000	0.289068
500.000000	0.289228
501.000000	0.289389
502.000000	0.289638
503.000000	0.289916
504.000000	0.290183
505.000000	0.290441
506.000000	0.290691
507.000000	0.290832
508.000000	0.291035
509.000000	0.291336
510.000000	0.291645
511.000000	0.291947
512.000000	0.292258
513.000000	0.292557
514.000000	0.292879
515.000000	0.293233
516.000000	0.293551
517.000000	0.293875
518.000000	0.294188
519.000000	0.294407
520.000000	0.294714
521.000000	0.295008
522.000000	0.295250
523.000000	0.295462
524.000000	0.295746
525.000000	0.296047
526.000000	0.296271
527.000000	0.296492
528.000000	0.296701
529.000000	0.296932
530.000000	0.297135
531.000000	0.297397
532.000000	0.297666
533.000000	0.297915
534.000000	0.298144
535.000000	0.298353
536.000000	0.298586
537.000000	0.298821
538.000000	0.299061
539.000000	0.299307
540.000000	0.299581
541.000000	0.299868
542.000000	0.300177
543.000000	0.300417
544.000000	0.300664
545.000000	0.300898
546.000000	0.301184
547.000000	0.301476
548.000000	0.301766
549.000000	0.301961
550.000000	0.302230
551.000000	0.302568
552.000000	0.302859
553.000000	0.303108
554.000000	0.303375
555.000000	0.303705
556.000000	0.304073
557.000000	0.304351
558.000000	0.304638
559.000000	0.304923
560.000000	0.305174
561.000000	0.305496
562.000000	0.305879
563.000000	0.306146
564.000000	0.306387
565.000000	0.306624
566.000000	0.306970
567.000000	0.307330
568.000000	0.307621
569.000000	0.307902
570.000000	0.308197
571.000000	0.308482
572.000000	0.308711
573.000000	0.308954
574.000000	0.309192
575.000000	0.309444
576.000000	0.309728
577.000000	0.309978
578.000000	0.310214
579.000000	0.310478
580.000000	0.310789
581.000000	0.311130
582.000000	0.311431
583.000000	0.311702
584.000000	0.311961
585.000000	0.312244
586.000000	0.312457
587.000000	0.312652
588.000000	0.312907
589.000000	0.313189
590.000000	0.313456
591.000000	0.313685
592.000000	0.313891
593.000000	0.314110
594.000000	0.314326
595.000000	0.314473
596.000000	0.314672
597.000000	0.314950
598.000000	0.315184
599.000000	0.315362
600.000000	0.315549
601.000000	0.315728
602.000000	0.315967
603.000000	0.316206
604.000000	0.316432
605.000000	0.316683
606.000000	0.316878
607.000000	0.317052
608.000000	0.317312
609.000000	0.317552
610.000000	0.317749
611.000000	0.317907
612.000000	0.318051
613.000000	0.318182
614.000000	0.318325
615.000000	0.318411
616.000000	0.318482
617.000000	0.318527
618.000000	0.318596
619.000000	0.318759
620.000000	0.318903
621.000000	0.318920
622.000000	0.318943
623.000000	0.318977
624.000000	0.319023
625.000000	0.319193
626.000000	0.319364
627.000000	0.319478
628.000000	0.319589
629.000000	0.319701
630.000000	0.319718
631.000000	0.319794
632.000000	0.319910
633.000000	0.320022
634.000000	0.320088
635.000000	0.320202
636.000000	0.320390
637.000000	0.320626
638.000000	0.320865
639.000000	0.321024
640.000000	0.321163
641.000000	0.321296
642.000000	0.321436
643.000000	0.321610
644.000000	0.321841
645.000000	0.322038
646.000000	0.322210
647.000000	0.322342
648.000000	0.322450
649.000000	0.322555
650.000000	0.322634
651.000000	0.322667
652.000000	0.322736
653.000000	0.322867
654.000000	0.322968
655.000000	0.323094
656.000000	0.323281
657.000000	0.323474
658.000000	0.323595
659.000000	0.323712
660.000000	0.323855
661.000000	0.324040
662.000000	0.324150
663.000000	0.324249
664.000000	0.324395
665.000000	0.324574
666.000000	0.324755
667.000000	0.324876
668.000000	0.324978
669.000000	0.325085
670.000000	0.325218
671.000000	0.325379
672.000000	0.325572
673.000000	0.325760
674.000000	0.325887
675.000000	0.325987
676.000000	0.326107
677.000000	0.326298
678.000000	0.326433
679.000000	0.326519
680.000000	0.326594
681.000000	0.326703
682.000000	0.326855
683.000000	0.326987
684.000000	0.327201
685.000000	0.327363
686.000000	0.327483
687.000000	0.327568
688.000000	0.327660
689.000000	0.327774
690.000000	0.327943
691.000000	0.328118
692.000000	0.328244
693.000000	0.328374
694.000000	0.328502
695.000000	0.328631
696.000000	0.328757
697.000000	0.328878
698.000000	0.329022
699.000000	0.329196
700.000000	0.329392
701.000000	0.329528
702.000000	0.329710
703.000000	0.329933
704.000000	0.330096
705.000000	0.330226
706.000000	0.330298
707.000000	0.330374
708.000000	0.330420
709.000000	0.330464
710.000000	0.330552
711.000000	0.330654
712.000000	0.330754
713.000000	0.330885
714.000000	0.331100
715.000000	0.331284
716.000000	0.331430
717.000000	0.331558
718.000000	0.331681
719.000000	0.331804
720.000000	0.331940
721.000000	0.332056
722.000000	0.332108
723.000000	0.332151
724.000000	0.332167
725.000000	0.332196
726.000000	0.332303
727.000000	0.332373
728.000000	0.332386
729.000000	0.332439
730.000000	0.332550
731.000000	0.332704
732.000000	0.332830
733.000000	0.332939
734.000000	0.333020
735.000000	0.333060
736.000000	0.333185
737.000000	0.333289
738.000000	0.333317
739.000000	0.333446
740.000000	0.333594
741.000000	0.333659
742.000000	0.333708
743.000000	0.333763
744.000000	0.333888
745.000000	0.333982
746.000000	0.334093
747.000000	0.334203
748.000000	0.334300
749.000000	0.334382
750.000000	0.334419
751.000000	0.334441
752.000000	0.334440
753.000000	0.334445
754.000000	0.334484
755.000000	0.334504
756.000000	0.334516
757.000000	0.334501
758.000000	0.334526
759.000000	0.334624
760.000000	0.334715
761.000000	0.334781
762.000000	0.334836
763.000000	0.334874
764.000000	0.334963
765.000000	0.335031
766.000000	0.335110
767.000000	0.335219
768.000000	0.335263
769.000000	0.335266
770.000000	0.335260
771.000000	0.335266
772.000000	0.335265
773.000000	0.335241
774.000000	0.335317
775.000000	0.335361
776.000000	0.335380
777.000000	0.335384
778.000000	0.335404
779.000000	0.335436
780.000000	0.335496
781.000000	0.335589
782.000000	0.335695
783.000000	0.335876
784.000000	0.335994
785.000000	0.335953
786.000000	0.335885
787.000000	0.335857
788.000000	0.335789
789.000000	0.335752
790.000000	0.335745
791.000000	0.335789
792.000000	0.335919
793.000000	0.336052
794.000000	0.336128
795.000000	0.336217
796.000000	0.336227
797.000000	0.336137
798.000000	0.336012
799.000000	0.335932
800.000000	0.335937
801.000000	0.336019
802.000000	0.336015
803.000000	0.335907
804.000000	0.335767
805.000000	0.335668
806.000000	0.335572
807.000000	0.335576
808.000000	0.335663
809.000000	0.335760
810.000000	0.335849
811.000000	0.335918
812.000000	0.336015
813.000000	0.336071
814.000000	0.336073
815.000000	0.336079
816.000000	0.336022
817.000000	0.335966
818.000000	0.335892
819.000000	0.335831
820.000000	0.335801
821.000000	0.335742
822.000000	0.335641
823.000000	0.335662
824.000000	0.335688
825.000000	0.335654
826.000000	0.335632
827.000000	0.335638
828.000000	0.335705
829.000000	0.335739
830.000000	0.335746
831.000000	0.335777
832.000000	0.335736
833.000000	0.335737
834.000000	0.335697
835.000000	0.335578
836.000000	0.335394
837.000000	0.335231
838.000000	0.335129
839.000000	0.335036
840.000000	0.335026
841.000000	0.335046
842.000000	0.334999
843.000000	0.334958
844.000000	0.334912
845.000000	0.334845
846.000000	0.334817
847.000000	0.334822
848.000000	0.334807
849.000000	0.334742
850.000000	0.334557
851.000000	0.334376
852.000000	0.334314
853.000000	0.334345
854.000000	0.334270
855.000000	0.334196
856.000000	0.334107
857.000000	0.333941
858.000000	0.333888
859.000000	0.333895
860.000000	0.333753
861.000000	0.333690
862.000000	0.333722
863.000000	0.333698
864.000000	0.333658
865.000000	0.333522
866.000000	0.333303
867.000000	0.333109
868.000000	0.332983
869.000000	0.332839
870.000000	0.332674
871.000000	0.332535
872.000000	0.332454
873.000000	0.332346
874.000000	0.332136
875.000000	0.331880
876.000000	0.331654
877.000000	0.331470
878.000000	0.331369
879.000000	0.331275
880.000000	0.331022
881.000000	0.330835
882.000000	0.330689
883.000000	0.330605
884.000000	0.330529
885.000000	0.330436
886.000000	0.330321
887.000000	0.330182
888.000000	0.329916
889.000000	0.329688
890.000000	0.329430
891.000000	0.329251
892.000000	0.329262
893.000000	0.329197
894.000000	0.329059
895.000000	0.328912
896.000000	0.328616
897.000000	0.328310
898.000000	0.328168
899.000000	0.327936
900.000000	0.327669
901.000000	0.327417
902.000000	0.327346
903.000000	0.327224
904.000000	0.327086
905.000000	0.326919
906.000000	0.326793
907.000000	0.326611
908.000000	0.326402
909.000000	0.326148
910.000000	0.325884
911.000000	0.325599
912.000000	0.325293
913.000000	0.324952
914.000000	0.324647
915.000000	0.324440
916.000000	0.324209
917.000000	0.324010
918.000000	0.323927
919.000000	0.323927
920.000000	0.323744
921.000000	0.323551
922.000000	0.323382
923.000000	0.323168
924.000000	0.322869
925.000000	0.322596
926.000000	0.322407
927.000000	0.322104
928.000000	0.321781
929.000000	0.321476
930.000000	0.321217
931.000000	0.321039
932.000000	0.320854
933.000000	0.320630
934.000000	0.320295
935.000000	0.319883
936.000000	0.319531
937.000000	0.319250
938.000000	0.319092
939.000000	0.318911
940.000000	0.318642
941.000000	0.318436
942.000000	0.318125
943.000000	0.317809
944.000000	0.317478
945.000000	0.317338
946.000000	0.317121
947.000000	0.316808
948.000000	0.316417
949.000000	0.316133
950.000000	0.315936
951.000000	0.315797
952.000000	0.315791
953.000000	0.315611
954.000000	0.315325
955.000000	0.315004
956.000000	0.314820
957.000000	0.314690
958.000000	0.314521
959.000000	0.314350
960.000000	0.314095
961.000000	0.313873
962.000000	0.313696
963.000000	0.313507
964.000000	0.313097
965.000000	0.312732
966.000000	0.312524
967.000000	0.312381
968.000000	0.312239
969.000000	0.311976
970.000000	0.311619
971.000000	0.311260
972.000000	0.311002
973.000000	0.310804
974.000000	0.310657
975.000000	0.310466
976.000000	0.310248
977.000000	0.310024
978.000000	0.309756
979.000000	0.309643
980.000000	0.309344
981.000000	0.308892
982.000000	0.308748
983.000000	0.308541
984.000000	0.308254
985.000000	0.308119
986.000000	0.307900
987.000000	0.307718
988.000000	0.307540
989.000000	0.307281
990.000000	0.306943
991.000000	0.306652
992.000000	0.306563
993.000000	0.306438
994.000000	0.306255
995.000000	0.306151
996.000000	0.305972
997.000000	0.305862
998.000000	0.305664
999.000000	0.305513
1000.000000	0.305752
1001.000000	0.305873
1002.000000	0.305874
1003.000000	0.305182
1004.000000	0.304947
1005.000000	0.304786
1006.000000	0.304437
1007.000000	0.304126
1008.000000	0.304074
1009.000000	0.303828
1010.000000	0.303227
1011.000000	0.303178
1012.000000	0.303699
1013.000000	0.303935
1014.000000	0.303817
1015.000000	0.303487
1016.000000	0.303103
1017.000000	0.302715
1018.000000	0.302811
1019.000000	0.302848
1020.000000	0.303288
1021.000000	0.303163
1022.000000	0.303023
1023.000000	0.303011
1024.000000	0.302808
1025.000000	0.302642
1026.000000	0.302467
1027.000000	0.302252
1028.000000	0.302409
1029.000000	0.302841
1030.000000	0.302969
1031.000000	0.302881
1032.000000	0.302784
1033.000000	0.302547
1034.000000	0.302433
1035.000000	0.302558
1036.000000	0.302534
1037.000000	0.302392
1038.000000	0.302358
1039.000000	0.302439
1040.000000	0.302572
1041.000000	0.302899
1042.000000	0.302833
1043.000000	0.302738
1044.000000	0.302662
1045.000000	0.302533
1046.000000	0.302428
1047.000000	0.302503
1048.000000	0.302764
1049.000000	0.302877
1050.000000	0.303079
1051.000000	0.303105
1052.000000	0.302753
1053.000000	0.302699
1054.000000	0.302939
1055.000000	0.303193
1056.000000	0.303647
1057.000000	0.304136
1058.000000	0.304242
1059.000000	0.304006
1060.000000	0.304273
1061.000000	0.304790
1062.000000	0.305113
1063.000000	0.305384
1064.000000	0.305542
1065.000000	0.305089
1066.000000	0.305231
1067.000000	0.305823
1068.000000	0.306009
1069.000000	0.306030
1070.000000	0.306187
1071.000000	0.306295
1072.000000	0.306389
1073.000000	0.306555
1074.000000	0.307001
1075.000000	0.307154
1076.000000	0.307297
1077.000000	0.307435
1078.000000	0.307245
1079.000000	0.307426
1080.000000	0.307712
1081.000000	0.307894
1082.000000	0.308448
1083.000000	0.308688
1084.000000	0.308430
1085.000000	0.308676
1086.000000	0.309337
1087.000000	0.309595
1088.000000	0.309768
1089.000000	0.309950
1090.000000	0.309899
1091.000000	0.309688
1092.000000	0.309838
1093.000000	0.310166
1094.000000	0.310383
1095.000000	0.310511
1096.000000	0.310777
1097.000000	0.311110
1098.000000	0.311418
1099.000000	0.311776
1100.000000	0.312088
1101.000000	0.312352
1102.000000	0.312522
1103.000000	0.312512
1104.000000	0.312693
1105.000000	0.312860
1106.000000	0.313099
1107.000000	0.313535
1108.000000	0.313788
1109.000000	0.314076
1110.000000	0.314234
1111.000000	0.314290
1112.000000	0.314151
1113.000000	0.314255
1114.000000	0.314303
1115.000000	0.314530
1116.000000	0.315044
1117.000000	0.315321
1118.000000	0.315605
1119.000000	0.315711
1120.000000	0.315604
1121.000000	0.315626
1122.000000	0.315651
1123.000000	0.315917
1124.000000	0.316143
1125.000000	0.316375
1126.000000	0.316612
1127.000000	0.316779
1128.000000	0.316907
1129.000000	0.317011
1130.000000	0.317190
1131.000000	0.317422
1132.000000	0.317510
1133.000000	0.317569
1134.000000	0.317766
1135.000000	0.317912
1136.000000	0.318027
1137.000000	0.318309
1138.000000	0.318366
1139.000000	0.318163
1140.000000	0.318317
1141.000000	0.318635
1142.000000	0.318810
1143.000000	0.319050
1144.000000	0.319298
1145.000000	0.319249
1146.000000	0.319086
1147.000000	0.319156
1148.000000	0.319237
1149.000000	0.319321
1150.000000	0.319548
1151.000000	0.319647
1152.000000	0.319589
1153.000000	0.319651
1154.000000	0.319721
1155.000000	0.319740
1156.000000	0.319743
1157.000000	0.319802
1158.000000	0.319801
1159.000000	0.319819
1160.000000	0.319911
1161.000000	0.319960
1162.000000	0.320020
1163.000000	0.320165
1164.000000	0.320333
1165.000000	0.320387
1166.000000	0.320457
1167.000000	0.320476
1168.000000	0.320458
1169.000000	0.320461
1170.000000	0.320391
1171.000000	0.320231
1172.000000	0.320253
1173.000000	0.320318
1174.000000	0.320277
1175.000000	0.320284
1176.000000	0.320209
1177.000000	0.320028
1178.000000	0.319933
1179.000000	0.319880
1180.000000	0.319782
1181.000000	0.319715
1182.000000	0.319728
1183.000000	0.319804
1184.000000	0.319950
1185.000000	0.320006
1186.000000	0.320066
1187.000000	0.320087
1188.000000	0.320027
1189.000000	0.320019
1190.000000	0.320104
1191.000000	0.320139
1192.000000	0.320254
1193.000000	0.320394
1194.000000	0.320401
1195.000000	0.320463
1196.000000	0.320500
1197.000000	0.320544
1198.000000	0.320641
1199.000000	0.320694
1200.000000	0.320710
1201.000000	0.320723
1202.000000	0.320659
1203.000000	0.320636
1204.000000	0.320694
1205.000000	0.320707
1206.000000	0.320652
1207.000000	0.320726
1208.000000	0.320655
1209.000000	0.320441
1210.000000	0.320414
1211.000000	0.320470
1212.000000	0.320461
1213.000000	0.320568
1214.000000	0.320614
1215.000000	0.320565
1216.000000	0.320535
1217.000000	0.320453
1218.000000	0.320427
1219.000000	0.320450
1220.000000	0.320467
1221.000000	0.320604
1222.000000	0.320667
1223.000000	0.320641
1224.000000	0.320692
1225.000000	0.320611
1226.000000	0.320554
1227.000000	0.320513
1228.000000	0.320465
1229.000000	0.320401
1230.000000	0.320321
1231.000000	0.320187
1232.000000	0.320144
1233.000000	0.320159
1234.000000	0.320152
1235.000000	0.320133
1236.000000	0.320053
1237.000000	0.320022
1238.000000	0.319922
1239.000000	0.319884
1240.000000	0.319874
1241.000000	0.319919
1242.000000	0.320019
1243.000000	0.320017
1244.000000	0.319965
1245.000000	0.319949
1246.000000	0.319800
1247.000000	0.319770
1248.000000	0.319851
1249.000000	0.319913
1250.000000	0.319963
1251.000000	0.319975
1252.000000	0.319946
1253.000000	0.319846
1254.000000	0.319818
1255.000000	0.319816
1256.000000	0.319801
1257.000000	0.319809
1258.000000	0.319883
1259.000000	0.319910
1260.000000	0.319979
1261.000000	0.320092
1262.000000	0.320118
1263.000000	0.320096
1264.000000	0.320088
1265.000000	0.320090
1266.000000	0.320075
1267.000000	0.320097
1268.000000	0.320051
1269.000000	0.319909
1270.000000	0.319822
1271.000000	0.319674
1272.000000	0.319584
1273.000000	0.319545
1274.000000	0.319441
1275.000000	0.319363
1276.000000	0.319321
1277.000000	0.319330
1278.000000	0.319288
1279.000000	0.319238
1280.000000	0.319134
1281.000000	0.319048
1282.000000	0.318979
1283.000000	0.319017
1284.000000	0.319087
1285.000000	0.319103
1286.000000	0.319089
1287.000000	0.319093
1288.000000	0.319127
1289.000000	0.319183
1290.000000	0.319220
1291.000000	0.319260
1292.000000	0.319316
1293.000000	0.319299
1294.000000	0.319286
1295.000000	0.319321
1296.000000	0.319288
1297.000000	0.319272
1298.000000	0.319232
1299.000000	0.319167
1300.000000	0.319181
1301.000000	0.319073
1302.000000	0.318952
1303.000000	0.318936
1304.000000	0.318881
1305.000000	0.318882
1306.000000	0.318869
1307.000000	0.318924
1308.000000	0.318982
1309.000000	0.318991
1310.000000	0.319027
1311.000000	0.319166
1312.000000	0.319175
1313.000000	0.319138
1314.000000	0.319141
1315.000000	0.318968
1316.000000	0.318866
1317.000000	0.318877
1318.000000	0.318848
1319.000000	0.318795
1320.000000	0.318846
1321.000000	0.318794
1322.000000	0.318609
1323.000000	0.318570
1324.000000	0.318584
1325.000000	0.318447
1326.000000	0.318338
1327.000000	0.318297
1328.000000	0.318157
1329.000000	0.318007
1330.000000	0.317919
1331.000000	0.317846
1332.000000	0.317805
1333.000000	0.317706
1334.000000	0.317632
1335.000000	0.317599
1336.000000	0.317469
1337.000000	0.317462
1338.000000	0.317522
1339.000000	0.317614
1340.000000	0.317634
1341.000000	0.317699
1342.000000	0.317645
1343.000000	0.317507
1344.000000	0.317524
1345.000000	0.317484
1346.000000	0.317456
1347.000000	0.317494
1348.000000	0.317481
1349.000000	0.317372
1350.000000	0.317390
1351.000000	0.317392
1352.000000	0.317329
1353.000000	0.317302
1354.000000	0.317396
1355.000000	0.317441
1356.000000	0.317436
1357.000000	0.317400
1358.000000	0.317243
1359.000000	0.317037
1360.000000	0.316939
1361.000000	0.316987
1362.000000	0.316900
1363.000000	0.316786
1364.000000	0.316699
1365.000000	0.316503
1366.000000	0.316378
1367.000000	0.316309
1368.000000	0.316221
1369.000000	0.316162
1370.000000	0.315990
1371.000000	0.315814
1372.000000	0.315660
1373.000000	0.315469
1374.000000	0.315370
1375.000000	0.315234
1376.000000	0.315069
1377.000000	0.314907
1378.000000	0.314619
1379.000000	0.314160
1380.000000	0.313730
1381.000000	0.313244
1382.000000	0.312598
1383.000000	0.311945
1384.000000	0.311134
1385.000000	0.310249
1386.000000	0.309528
1387.000000	0.308915
1388.000000	0.308324
1389.000000	0.307813
1390.000000	0.307431
1391.000000	0.307093
1392.000000	0.306966
1393.000000	0.306975
1394.000000	0.307242
1395.000000	0.307489
1396.000000	0.307930
1397.000000	0.308172
1398.000000	0.308353
1399.000000	0.308488
1400.000000	0.308490
1401.000000	0.308485
1402.000000	0.308516
1403.000000	0.308481
1404.000000	0.308396
1405.000000	0.308244
1406.000000	0.308120
1407.000000	0.308095
1408.000000	0.308013
1409.000000	0.308001
1410.000000	0.308038
1411.000000	0.307973
1412.000000	0.307925
1413.000000	0.308008
1414.000000	0.308059
1415.000000	0.308087
1416.000000	0.308195
1417.000000	0.308296
1418.000000	0.308310
1419.000000	0.308386
1420.000000	0.308342
1421.000000	0.308294
1422.000000	0.308382
1423.000000	0.308551
1424.000000	0.308647
1425.000000	0.308804
1426.000000	0.308853
1427.000000	0.308869
1428.000000	0.308980
1429.000000	0.309112
1430.000000	0.309285
1431.000000	0.309443
1432.000000	0.309544
1433.000000	0.309639
1434.000000	0.309720
1435.000000	0.309874
1436.000000	0.309924
1437.000000	0.309883
1438.000000	0.309853
1439.000000	0.309808
1440.000000	0.309805
1441.000000	0.309880
1442.000000	0.309908
1443.000000	0.309855
1444.000000	0.309800
1445.000000	0.309756
1446.000000	0.309722
1447.000000	0.309734
1448.000000	0.309801
1449.000000	0.309854
1450.000000	0.309918
1451.000000	0.309968
1452.000000	0.309881
1453.000000	0.309834
1454.000000	0.309830
1455.000000	0.309876
1456.000000	0.310060
1457.000000	0.310163
1458.000000	0.310234
1459.000000	0.310379
1460.000000	0.310423
1461.000000	0.310470
1462.000000	0.310587
1463.000000	0.310606
1464.000000	0.310710
1465.000000	0.310902
1466.000000	0.310957
1467.000000	0.311019
1468.000000	0.311073
1469.000000	0.311142
1470.000000	0.311182
1471.000000	0.311243
1472.000000	0.311330
1473.000000	0.311408
1474.000000	0.311448
1475.000000	0.311539
1476.000000	0.311624
1477.000000	0.311699
1478.000000	0.311764
1479.000000	0.311774
1480.000000	0.311764
1481.000000	0.311759
1482.000000	0.311787
1483.000000	0.311833
1484.000000	0.311910
1485.000000	0.311972
1486.000000	0.311991
1487.000000	0.312066
1488.000000	0.312243
1489.000000	0.312311
1490.000000	0.312221
1491.000000	0.312240
1492.000000	0.312168
1493.000000	0.312179
1494.000000	0.312259
1495.000000	0.312268
1496.000000	0.312247
1497.000000	0.312249
1498.000000	0.312269
1499.000000	0.312261
1500.000000	0.312272
1501.000000	0.312261
1502.000000	0.312228
1503.000000	0.312292
1504.000000	0.312357
1505.000000	0.312387
1506.000000	0.312384
1507.000000	0.312296
1508.000000	0.312323
1509.000000	0.312418
1510.000000	0.312480
1511.000000	0.312620
1512.000000	0.312668
1513.000000	0.312640
1514.000000	0.312704
1515.000000	0.312724
1516.000000	0.312777
1517.000000	0.312788
1518.000000	0.312756
1519.000000	0.312711
1520.000000	0.312646
1521.000000	0.312590
1522.000000	0.312646
1523.000000	0.312732
1524.000000	0.312744
1525.000000	0.312813
1526.000000	0.312808
1527.000000	0.312747
1528.000000	0.312789
1529.000000	0.312815
1530.000000	0.312764
1531.000000	0.312791
1532.000000	0.312798
1533.000000	0.312727
1534.000000	0.312682
1535.000000	0.312683
1536.000000	0.312639
1537.000000	0.312658
1538.000000	0.312701
1539.000000	0.312648
1540.000000	0.312627
1541.000000	0.312736
1542.000000	0.312849
1543.000000	0.312916
1544.000000	0.312975
1545.000000	0.313058
1546.000000	0.313166
1547.000000	0.313285
1548.000000	0.313386
1549.000000	0.313430
1550.000000	0.313345
1551.000000	0.313308
1552.000000	0.313404
1553.000000	0.313422
1554.000000	0.313475
1555.000000	0.313578
1556.000000	0.313588
1557.000000	0.313559
1558.000000	0.313570
1559.000000	0.313533
1560.000000	0.313508
1561.000000	0.313565
1562.000000	0.313535
1563.000000	0.313507
1564.000000	0.313444
1565.000000	0.313287
1566.000000	0.313160
1567.000000	0.313127
1568.000000	0.313110
1569.000000	0.313220
1570.000000	0.313218
1571.000000	0.313151
1572.000000	0.313137
1573.000000	0.313098
1574.000000	0.313098
1575.000000	0.313204
1576.000000	0.313229
1577.000000	0.313211
1578.000000	0.313155
1579.000000	0.313092
1580.000000	0.313063
1581.000000	0.313084
1582.000000	0.313101
1583.000000	0.313159
1584.000000	0.313118
1585.000000	0.313079
1586.000000	0.313108
1587.000000	0.313126
1588.000000	0.313186
1589.000000	0.313372
1590.000000	0.313413
1591.000000	0.313399
1592.000000	0.313423
1593.000000	0.313462
1594.000000	0.313428
1595.000000	0.313438
1596.000000	0.313398
1597.000000	0.313269
1598.000000	0.313190
1599.000000	0.313174
1600.000000	0.313089
1601.000000	0.313037
1602.000000	0.313000
1603.000000	0.313005
1604.000000	0.312955
1605.000000	0.312912
1606.000000	0.312875
1607.000000	0.312872
1608.000000	0.312810
1609.000000	0.312799
1610.000000	0.312736
1611.000000	0.312599
1612.000000	0.312535
1613.000000	0.312598
1614.000000	0.312592
1615.000000	0.312671
1616.000000	0.312695
1617.000000	0.312626
1618.000000	0.312591
1619.000000	0.312509
1620.000000	0.312446
1621.000000	0.312418
1622.000000	0.312453
1623.000000	0.312484
1624.000000	0.312501
1625.000000	0.312420
1626.000000	0.312366
1627.000000	0.312331
1628.000000	0.312316
1629.000000	0.312306
1630.000000	0.312327
1631.000000	0.312280
1632.000000	0.312248
1633.000000	0.312312
1634.000000	0.312297
1635.000000	0.312248
1636.000000	0.312213
1637.000000	0.312172
1638.000000	0.312117
1639.000000	0.312135
1640.000000	0.312104
1641.000000	0.312072
1642.000000	0.312105
1643.000000	0.312243
1644.000000	0.312243
1645.000000	0.312232
1646.000000	0.312135
1647.000000	0.311913
1648.000000	0.311750
1649.000000	0.311699
1650.000000	0.311634
1651.000000	0.311598
1652.000000	0.311581
1653.000000	0.311510
1654.000000	0.311494
1655.000000	0.311452
1656.000000	0.311348
1657.000000	0.311352
1658.000000	0.311264
1659.000000	0.311199
1660.000000	0.311159
1661.000000	0.310980
1662.000000	0.310928
1663.000000	0.310928
1664.000000	0.310875
1665.000000	0.310844
1666.000000	0.310894
1667.000000	0.310861
1668.000000	0.310857
1669.000000	0.310903
1670.000000	0.310845
1671.000000	0.310802
1672.000000	0.310872
1673.000000	0.310952
1674.000000	0.311118
1675.000000	0.311256
1676.000000	0.311301
1677.000000	0.311245
1678.000000	0.311152
1679.000000	0.311101
1680.000000	0.310986
1681.000000	0.310880
1682.000000	0.310784
1683.000000	0.310690
1684.000000	0.310681
1685.000000	0.310708
1686.000000	0.310683
1687.000000	0.310694
1688.000000	0.310650
1689.000000	0.310584
1690.000000	0.310480
1691.000000	0.310421
1692.000000	0.310361
1693.000000	0.310348
1694.000000	0.310362
1695.000000	0.310427
1696.000000	0.310480
1697.000000	0.310437
1698.000000	0.310411
1699.000000	0.310400
1700.000000	0.310331
1701.000000	0.310346
1702.000000	0.310222
1703.000000	0.310123
1704.000000	0.310154
1705.000000	0.310109
1706.000000	0.310085
1707.000000	0.310069
1708.000000	0.309949
1709.000000	0.309852
1710.000000	0.309862
1711.000000	0.309935
1712.000000	0.310107
1713.000000	0.310200
1714.000000	0.310405
1715.000000	0.310497
1716.000000	0.310467
1717.000000	0.310490
1718.000000	0.310492
1719.000000	0.310438
1720.000000	0.310432
1721.000000	0.310366
1722.000000	0.310233
1723.000000	0.310112
1724.000000	0.310015
1725.000000	0.309890
1726.000000	0.309633
1727.000000	0.309454
1728.000000	0.309154
1729.000000	0.309011
1730.000000	0.309133
1731.000000	0.309133
1732.000000	0.309204
1733.000000	0.309289
1734.000000	0.309159
1735.000000	0.309215
1736.000000	0.309379
1737.000000	0.309456
1738.000000	0.309592
1739.000000	0.309617
1740.000000	0.309551
1741.000000	0.309480
1742.000000	0.309340
1743.000000	0.309351
1744.000000	0.309412
1745.000000	0.309331
1746.000000	0.309238
1747.000000	0.309163
1748.000000	0.309026
1749.000000	0.308989
1750.000000	0.308883
1751.000000	0.308779
1752.000000	0.308757
1753.000000	0.308609
1754.000000	0.308536
1755.000000	0.308441
1756.000000	0.308379
1757.000000	0.308408
1758.000000	0.308421
1759.000000	0.308404
1760.000000	0.308420
1761.000000	0.308353
1762.000000	0.308420
1763.000000	0.308634
1764.000000	0.308797
1765.000000	0.309009
1766.000000	0.309188
1767.000000	0.309246
1768.000000	0.309293
1769.000000	0.309438
1770.000000	0.309566
1771.000000	0.309650
1772.000000	0.309654
1773.000000	0.309543
1774.000000	0.309518
1775.000000	0.309494
1776.000000	0.309524
1777.000000	0.309659
1778.000000	0.309601
1779.000000	0.309431
1780.000000	0.309331
1781.000000	0.309112
1782.000000	0.309020
1783.000000	0.309088
1784.000000	0.308959
1785.000000	0.308833
1786.000000	0.308786
1787.000000	0.308770
1788.000000	0.308775
1789.000000	0.308732
1790.000000	0.308588
1791.000000	0.308476
1792.000000	0.308501
1793.000000	0.308515
1794.000000	0.308629
1795.000000	0.308664
1796.000000	0.308581
1797.000000	0.308600
1798.000000	0.308593
1799.000000	0.308601
1800.000000	0.308769
1801.000000	0.308900
1802.000000	0.308768
1803.000000	0.308295
1804.000000	0.308230
1805.000000	0.308141
1806.000000	0.308071
1807.000000	0.308375
1808.000000	0.308340
1809.000000	0.308058
1810.000000	0.307742
1811.000000	0.307546
1812.000000	0.307324
1813.000000	0.307142
1814.000000	0.306831
1815.000000	0.307048
1816.000000	0.307699
1817.000000	0.307923
1818.000000	0.308524
1819.000000	0.309000
1820.000000	0.308935
1821.000000	0.308265
1822.000000	0.307810
1823.000000	0.306921
1824.000000	0.306502
1825.000000	0.305902
1826.000000	0.305923
1827.000000	0.306324
1828.000000	0.306800
1829.000000	0.307575
1830.000000	0.308228
1831.000000	0.308510
1832.000000	0.308692
1833.000000	0.308575
1834.000000	0.307841
1835.000000	0.307652
1836.000000	0.307184
1837.000000	0.307055
1838.000000	0.307328
1839.000000	0.307633
1840.000000	0.307324
1841.000000	0.307098
1842.000000	0.306891
1843.000000	0.306151
1844.000000	0.306079
1845.000000	0.306483
1846.000000	0.306726
1847.000000	0.306983
1848.000000	0.307252
1849.000000	0.307337
1850.000000	0.307168
1851.000000	0.307177
1852.000000	0.307087
1853.000000	0.307037
1854.000000	0.306732
1855.000000	0.306732
1856.000000	0.306671
1857.000000	0.306964
1858.000000	0.307218
1859.000000	0.307386
1860.000000	0.307572
1861.000000	0.307210
1862.000000	0.306916
1863.000000	0.306745
1864.000000	0.306447
1865.000000	0.305840
1866.000000	0.305410
1867.000000	0.305099
1868.000000	0.304397
1869.000000	0.303614
1870.000000	0.303344
1871.000000	0.303246
1872.000000	0.302865
1873.000000	0.302483
1874.000000	0.302064
1875.000000	0.301733
1876.000000	0.301073
1877.000000	0.300385
1878.000000	0.299827
1879.000000	0.299442
1880.000000	0.298959
1881.000000	0.298237
1882.000000	0.297247
1883.000000	0.296035
1884.000000	0.295153
1885.000000	0.294099
1886.000000	0.292972
1887.000000	0.291940
1888.000000	0.291043
1889.000000	0.289653
1890.000000	0.288461
1891.000000	0.287712
1892.000000	0.286597
1893.000000	0.285286
1894.000000	0.283809
1895.000000	0.282241
1896.000000	0.280390
1897.000000	0.279093
1898.000000	0.278179
1899.000000	0.277401
1900.000000	0.277059
1901.000000	0.276431
1902.000000	0.275612
1903.000000	0.275360
1904.000000	0.275327
1905.000000	0.275511
1906.000000	0.275451
1907.000000	0.275434
1908.000000	0.275220
1909.000000	0.275359
1910.000000	0.275549
1911.000000	0.275857
1912.000000	0.276575
1913.000000	0.277073
1914.000000	0.277397
1915.000000	0.277768
1916.000000	0.277992
1917.000000	0.278248
1918.000000	0.278596
1919.000000	0.278968
1920.000000	0.279213
1921.000000	0.279589
1922.000000	0.279828
1923.000000	0.280044
1924.000000	0.280415
1925.000000	0.280890
1926.000000	0.281504
1927.000000	0.282073
1928.000000	0.282431
1929.000000	0.282803
1930.000000	0.282929
1931.000000	0.282818
1932.000000	0.283088
1933.000000	0.283387
1934.000000	0.283988
1935.000000	0.284642
1936.000000	0.284684
1937.000000	0.284786
1938.000000	0.284593
1939.000000	0.284544
1940.000000	0.284421
1941.000000	0.284756
1942.000000	0.284999
1943.000000	0.285286
1944.000000	0.285354
1945.000000	0.285189
1946.000000	0.285489
1947.000000	0.285770
1948.000000	0.286207
1949.000000	0.287052
1950.000000	0.287372
1951.000000	0.287403
1952.000000	0.287168
1953.000000	0.286808
1954.000000	0.286785
1955.000000	0.287025
1956.000000	0.287482
1957.000000	0.288400
1958.000000	0.288645
1959.000000	0.288569
1960.000000	0.288494
1961.000000	0.288159
1962.000000	0.287995
1963.000000	0.287868
1964.000000	0.288024
1965.000000	0.288234
1966.000000	0.288359
1967.000000	0.288671
1968.000000	0.289233
1969.000000	0.289796
1970.000000	0.290390
1971.000000	0.290548
1972.000000	0.290268
1973.000000	0.290129
1974.000000	0.289904
1975.000000	0.289817
1976.000000	0.289913
1977.000000	0.290089
1978.000000	0.289935
1979.000000	0.289696
1980.000000	0.289585
1981.000000	0.289534
1982.000000	0.289663
1983.000000	0.290141
1984.000000	0.290238
1985.000000	0.290192
1986.000000	0.290214
1987.000000	0.290304
1988.000000	0.290046
1989.000000	0.290022
1990.000000	0.290507
1991.000000	0.290607
1992.000000	0.290668
1993.000000	0.290721
1994.000000	0.290722
1995.000000	0.290638
1996.000000	0.290630
1997.000000	0.290989
1998.000000	0.291871
1999.000000	0.292367
2000.000000	0.292971
2001.000000	0.293602
2002.000000	0.293810
2003.000000	0.293992
2004.000000	0.294438
2005.000000	0.294579
2006.000000	0.294540
2007.000000	0.294462
2008.000000	0.294503
2009.000000	0.294501
2010.000000	0.294659
2011.000000	0.294836
2012.000000	0.294891
2013.000000	0.294873
2014.000000	0.294591
2015.000000	0.294749
2016.000000	0.295107
2017.000000	0.295306
2018.000000	0.295341
2019.000000	0.295135
2020.000000	0.294690
2021.000000	0.294415
2022.000000	0.294232
2023.000000	0.294050
2024.000000	0.293771
2025.000000	0.293858
2026.000000	0.294178
2027.000000	0.293951
2028.000000	0.294273
2029.000000	0.294428
2030.000000	0.294059
2031.000000	0.294095
2032.000000	0.294282
2033.000000	0.294385
2034.000000	0.294489
2035.000000	0.295039
2036.000000	0.294999
2037.000000	0.294589
2038.000000	0.294590
2039.000000	0.294666
2040.000000	0.294837
2041.000000	0.295165
2042.000000	0.295235
2043.000000	0.295115
2044.000000	0.294837
2045.000000	0.294495
2046.000000	0.294450
2047.000000	0.294633
2048.000000	0.295104
2049.000000	0.295463
2050.000000	0.295813
2051.000000	0.295850
2052.000000	0.295130
2053.000000	0.295050
2054.000000	0.295508
2055.000000	0.295892
2056.000000	0.296263
2057.000000	0.297104
2058.000000	0.297185
2059.000000	0.297155
2060.000000	0.297002
2061.000000	0.296432
2062.000000	0.296215
2063.000000	0.296214
2064.000000	0.295974
2065.000000	0.296086
2066.000000	0.296055
2067.000000	0.296276
2068.000000	0.295936
2069.000000	0.295792
2070.000000	0.296007
2071.000000	0.295831
2072.000000	0.295196
2073.000000	0.294865
2074.000000	0.294893
2075.000000	0.294945
2076.000000	0.295522
2077.000000	0.295510
2078.000000	0.295194
2079.000000	0.294849
2080.000000	0.293900
2081.000000	0.293742
2082.000000	0.293972
2083.000000	0.294451
2084.000000	0.295021
2085.000000	0.295344
2086.000000	0.295405
2087.000000	0.295349
2088.000000	0.295266
2089.000000	0.295196
2090.000000	0.295130
2091.000000	0.295003
2092.000000	0.294975
2093.000000	0.295012
2094.000000	0.295154
2095.000000	0.295564
2096.000000	0.295792
2097.000000	0.296119
2098.000000	0.295941
2099.000000	0.295801
2100.000000	0.295480
2101.000000	0.295299
2102.000000	0.295417
2103.000000	0.295242
2104.000000	0.295178
2105.000000	0.295306
2106.000000	0.295581
2107.000000	0.295652
2108.000000	0.295749
2109.000000	0.296014
2110.000000	0.295970
2111.000000	0.296085
2112.000000	0.296420
2113.000000	0.296593
2114.000000	0.296840
2115.000000	0.296716
2116.000000	0.296462
2117.000000	0.296359
2118.000000	0.295815
2119.000000	0.295610
2120.000000	0.295644
2121.000000	0.296065
2122.000000	0.296101
2123.000000	0.296200
2124.000000	0.296135
2125.000000	0.295869
2126.000000	0.295642
2127.000000	0.295155
2128.000000	0.295324
2129.000000	0.295883
2130.000000	0.296094
2131.000000	0.296344
2132.000000	0.296565
2133.000000	0.296021
2134.000000	0.295589
2135.000000	0.296323
2136.000000	0.296989
2137.000000	0.297419
2138.000000	0.298401
2139.000000	0.298674
2140.000000	0.298279
2141.000000	0.298084
2142.000000	0.297470
2143.000000	0.297017
2144.000000	0.296705
2145.000000	0.296547
2146.000000	0.296337
2147.000000	0.297426
2148.000000	0.297659
2149.000000	0.297582
2150.000000	0.297616
2151.000000	0.296796
2152.000000	0.296546
2153.000000	0.296644
2154.000000	0.296521
2155.000000	0.296539
2156.000000	0.296569
2157.000000	0.296603
2158.000000	0.296456
2159.000000	0.296424
2160.000000	0.296215
2161.000000	0.295280
2162.000000	0.295333
2163.000000	0.296054
2164.000000	0.296270
2165.000000	0.296780
2166.000000	0.297236
2167.000000	0.296772
2168.000000	0.296519
2169.000000	0.296477
2170.000000	0.295835
2171.000000	0.295773
2172.000000	0.295852
2173.000000	0.295882
2174.000000	0.296440
2175.000000	0.296364
2176.000000	0.295672
2177.000000	0.295796
2178.000000	0.296207
2179.000000	0.296448
2180.000000	0.296934
2181.000000	0.297509
2182.000000	0.297245
2183.000000	0.297428
2184.000000	0.297675
2185.000000	0.298078
2186.000000	0.298012
2187.000000	0.297297
2188.000000	0.297099
2189.000000	0.296541
2190.000000	0.295828
2191.000000	0.296302
2192.000000	0.296520
2193.000000	0.296996
2194.000000	0.297324
2195.000000	0.298080
2196.000000	0.298311
2197.000000	0.298058
2198.000000	0.297874
2199.000000	0.297639
2200.000000	0.297092
2201.000000	0.296139
2202.000000	0.295384
2203.000000	0.293859
2204.000000	0.293162
2205.000000	0.292749
2206.000000	0.293591
2207.000000	0.295262
2208.000000	0.296810
2209.000000	0.297813
2210.000000	0.298456
2211.000000	0.297681
2212.000000	0.298097
2213.000000	0.298188
2214.000000	0.298512
2215.000000	0.298046
2216.000000	0.296959
2217.000000	0.296065
2218.000000	0.293813
2219.000000	0.294271
2220.000000	0.297455
2221.000000	0.298325
2222.000000	0.299859
2223.000000	0.300070
2224.000000	0.297992
2225.000000	0.296557
2226.000000	0.296381
2227.000000	0.295760
2228.000000	0.295443
2229.000000	0.294390
2230.000000	0.293961
2231.000000	0.294854
2232.000000	0.294167
2233.000000	0.294623
2234.000000	0.294302
2235.000000	0.293331
2236.000000	0.292785
2237.000000	0.292605
2238.000000	0.291797
2239.000000	0.290187
2240.000000	0.289757
2241.000000	0.289643
2242.000000	0.289971
2243.000000	0.291968
2244.000000	0.292193
2245.000000	0.291297
2246.000000	0.291268
2247.000000	0.290489
2248.000000	0.290268
2249.000000	0.290694
2250.000000	0.291530
2251.000000	0.292323
2252.000000	0.292614
2253.000000	0.293555
2254.000000	0.294657
2255.000000	0.294208
2256.000000	0.294655
2257.000000	0.296405
2258.000000	0.296453
2259.000000	0.296193
2260.000000	0.296118
2261.000000	0.295624
2262.000000	0.293773
2263.000000	0.292829
2264.000000	0.292141
2265.000000	0.292272
2266.000000	0.293632
2267.000000	0.293460
2268.000000	0.293260
2269.000000	0.292999
2270.000000	0.290632
2271.000000	0.289509
2272.000000	0.290019
2273.000000	0.290041
2274.000000	0.289809
2275.000000	0.289822
2276.000000	0.290665
2277.000000	0.289737
2278.000000	0.288746
2279.000000	0.288449
2280.000000	0.287291
2281.000000	0.286945
2282.000000	0.286621
2283.000000	0.287807
2284.000000	0.289153
2285.000000	0.289022
2286.000000	0.289073
2287.000000	0.287329
2288.000000	0.286123
2289.000000	0.284810
2290.000000	0.282865
2291.000000	0.283254
2292.000000	0.283235
2293.000000	0.283263
2294.000000	0.283300
2295.000000	0.283900
2296.000000	0.282998
2297.000000	0.280637
2298.000000	0.279787
2299.000000	0.279484
2300.000000	0.278315
2301.000000	0.277037
2302.000000	0.277019
2303.000000	0.276687
2304.000000	0.276496
2305.000000	0.278912
2306.000000	0.278516
2307.000000	0.275875
2308.000000	0.273458
2309.000000	0.272905
2310.000000	0.272543
2311.000000	0.273587
2312.000000	0.275462
2313.000000	0.275017
2314.000000	0.274186
2315.000000	0.273859
2316.000000	0.273375
2317.000000	0.272882
2318.000000	0.272801
2319.000000	0.273098
2320.000000	0.273058
2321.000000	0.274783
2322.000000	0.276497
2323.000000	0.277382
2324.000000	0.279510
2325.000000	0.281782
2326.000000	0.283694
2327.000000	0.286009
2328.000000	0.288617
2329.000000	0.289566
2330.000000	0.288955
2331.000000	0.288367
2332.000000	0.287453
2333.000000	0.286298
2334.000000	0.285718
2335.000000	0.285479
2336.000000	0.284830
2337.000000	0.284209
2338.000000	0.284072
2339.000000	0.283979
2340.000000	0.283530
2341.000000	0.283247
2342.000000	0.283294
2343.000000	0.283692
2344.000000	0.284044
2345.000000	0.284694
2346.000000	0.286413
2347.000000	0.286945
2348.000000	0.286555
2349.000000	0.287328
2350.000000	0.287961
2351.000000	0.287400
2352.000000	0.286010
2353.000000	0.285177
2354.000000	0.282282
2355.000000	0.280608
2356.000000	0.280073
2357.000000	0.279355
2358.000000	0.281607
2359.000000	0.282121
2360.000000	0.282282
2361.000000	0.282528
2362.000000	0.280933
2363.000000	0.280539
2364.000000	0.279155
2365.000000	0.278549
2366.000000	0.279490
2367.000000	0.279390
2368.000000	0.280251
2369.000000	0.281197
2370.000000	0.280274
2371.000000	0.280787
2372.000000	0.281975
2373.000000	0.283010
2374.000000	0.283561
2375.000000	0.281604
2376.000000	0.278725
2377.000000	0.275233
2378.000000	0.271800
2379.000000	0.268958
2380.000000	0.268243
2381.000000	0.268164
2382.000000	0.267149
2383.000000	0.269203
2384.000000	0.271765
2385.000000	0.273589
2386.000000	0.277813
2387.000000	0.282572
2388.000000	0.282123
2389.000000	0.278230
2390.000000	0.275250
2391.000000	0.269925
2392.000000	0.268588
2393.000000	0.272194
2394.000000	0.274935
2395.000000	0.279298
2396.000000	0.280428
2397.000000	0.279348
2398.000000	0.277429
2399.000000	0.270286
2400.000000	0.264316
2401.000000	0.260863
2402.000000	0.261755
2403.000000	0.268830
2404.000000	0.273627
2405.000000	0.273947
2406.000000	0.270693
2407.000000	0.265341
2408.000000	0.260399
2409.000000	0.259710
2410.000000	0.263221
2411.000000	0.264224
2412.000000	0.268632
2413.000000	0.272125
2414.000000	0.272560
2415.000000	0.275607
2416.000000	0.276444
2417.000000	0.278624
2418.000000	0.277887
2419.000000	0.277617
2420.000000	0.276642
2421.000000	0.273007
2422.000000	0.272405
2423.000000	0.270296
2424.000000	0.271111
2425.000000	0.266868
2426.000000	0.264093
2427.000000	0.268511
2428.000000	0.268410
2429.000000	0.271083
2430.000000	0.271883
2431.000000	0.265686
2432.000000	0.262939
2433.000000	0.263465
2434.000000	0.264813
2435.000000	0.263900
2436.000000	0.260659
2437.000000	0.262324
2438.000000	0.266794
2439.000000	0.276337
2440.000000	0.283049
2441.000000	0.282884
2442.000000	0.284967
2443.000000	0.283428
2444.000000	0.282510
2445.000000	0.281828
2446.000000	0.278755
2447.000000	0.271597
2448.000000	0.262598
2449.000000	0.257502
2450.000000	0.248340
2451.000000	0.249352
2452.000000	0.253498
2453.000000	0.254953
2454.000000	0.260511
2455.000000	0.255244
2456.000000	0.261752
2457.000000	0.267875
2458.000000	0.263237
2459.000000	0.262650
2460.000000	0.254145
2461.000000	0.247221
2462.000000	0.238349
2463.000000	0.232946
2464.000000	0.227321
2465.000000	0.216995
2466.000000	0.226778
2467.000000	0.242055
2468.000000	0.252893
2469.000000	0.257105
2470.000000	0.242803
2471.000000	0.233380
2472.000000	0.231094
2473.000000	0.236221
2474.000000	0.257791
2475.000000	0.277431
2476.000000	0.284381
2477.000000	0.277086
2478.000000	0.259682
2479.000000	0.233375
2480.000000	0.215958
2481.000000	0.224470
2482.000000	0.251092
2483.000000	0.276198
2484.000000	0.271229
2485.000000	0.257218
2486.000000	0.254719
2487.000000	0.252537
2488.000000	0.276947
2489.000000	0.291448
2490.000000	0.275694
2491.000000	0.277074
2492.000000	0.266010
2493.000000	0.263866
2494.000000	0.261755
2495.000000	0.235167
2496.000000	0.217374
2497.000000	0.202180
2498.000000	0.195538
2499.000000	0.214081
2500.000000	0.212444
