# Wavelength	SM1200H-50_HEX-20_FV7-30_00001.asd.rts.txt
350.000000	0.251885
351.000000	0.262504
352.000000	0.274502
353.000000	0.278993
354.000000	0.277688
355.000000	0.280985
356.000000	0.279885
357.000000	0.280075
358.000000	0.293314
359.000000	0.303569
360.000000	0.304621
361.000000	0.295886
362.000000	0.294399
363.000000	0.293523
364.000000	0.289575
365.000000	0.293902
366.000000	0.300075
367.000000	0.300636
368.000000	0.286251
369.000000	0.289130
370.000000	0.298173
371.000000	0.293080
372.000000	0.293755
373.000000	0.295659
374.000000	0.295727
375.000000	0.299433
376.000000	0.301955
377.000000	0.302022
378.000000	0.301661
379.000000	0.306110
380.000000	0.309109
381.000000	0.303894
382.000000	0.303172
383.000000	0.303806
384.000000	0.303125
385.000000	0.303856
386.000000	0.306203
387.000000	0.308737
388.000000	0.307408
389.000000	0.307090
390.000000	0.306739
391.000000	0.303593
392.000000	0.304263
393.000000	0.305976
394.000000	0.306031
395.000000	0.306052
396.000000	0.307206
397.000000	0.308923
398.000000	0.308282
399.000000	0.308434
400.000000	0.309513
401.000000	0.310264
402.000000	0.310695
403.000000	0.310725
404.000000	0.310685
405.000000	0.311698
406.000000	0.312187
407.000000	0.311799
408.000000	0.312099
409.000000	0.312362
410.000000	0.312588
411.000000	0.313088
412.000000	0.313745
413.000000	0.314323
414.000000	0.314614
415.000000	0.314449
416.000000	0.314357
417.000000	0.314702
418.000000	0.315477
419.000000	0.316385
420.000000	0.317166
421.000000	0.317548
422.000000	0.317514
423.000000	0.317496
424.000000	0.318043
425.000000	0.318053
426.000000	0.318166
427.000000	0.318776
428.000000	0.318913
429.000000	0.319294
430.000000	0.319995
431.000000	0.320200
432.000000	0.320407
433.000000	0.320671
434.000000	0.321006
435.000000	0.321138
436.000000	0.321235
437.000000	0.321447
438.000000	0.321525
439.000000	0.321907
440.000000	0.322635
441.000000	0.322414
442.000000	0.322464
443.000000	0.322801
444.000000	0.322859
445.000000	0.322989
446.000000	0.323333
447.000000	0.323724
448.000000	0.324134
449.000000	0.324543
450.000000	0.324978
451.000000	0.325570
452.000000	0.325993
453.000000	0.326015
454.000000	0.325731
455.000000	0.325729
456.000000	0.326065
457.000000	0.326322
458.000000	0.326700
459.000000	0.327125
460.000000	0.327546
461.000000	0.327832
462.000000	0.328098
463.000000	0.328234
464.000000	0.328378
465.000000	0.328777
466.000000	0.329194
467.000000	0.329227
468.000000	0.329278
469.000000	0.329411
470.000000	0.329785
471.000000	0.330101
472.000000	0.330261
473.000000	0.330311
474.000000	0.330437
475.000000	0.330497
476.000000	0.330668
477.000000	0.331048
478.000000	0.331087
479.000000	0.331139
480.000000	0.331444
481.000000	0.331805
482.000000	0.332173
483.000000	0.332298
484.000000	0.332605
485.000000	0.332809
486.000000	0.333028
487.000000	0.333409
488.000000	0.333684
489.000000	0.333854
490.000000	0.334063
491.000000	0.334249
492.000000	0.334510
493.000000	0.334796
494.000000	0.335269
495.000000	0.335694
496.000000	0.335885
497.000000	0.336133
498.000000	0.336325
499.000000	0.336548
500.000000	0.336884
501.000000	0.337287
502.000000	0.337722
503.000000	0.338035
504.000000	0.338283
505.000000	0.338432
506.000000	0.338487
507.000000	0.338657
508.000000	0.338949
509.000000	0.339291
510.000000	0.339691
511.000000	0.339986
512.000000	0.340207
513.000000	0.340464
514.000000	0.340892
515.000000	0.341380
516.000000	0.341665
517.000000	0.341861
518.000000	0.342100
519.000000	0.342379
520.000000	0.342819
521.000000	0.343096
522.000000	0.343187
523.000000	0.343512
524.000000	0.343819
525.000000	0.344061
526.000000	0.344337
527.000000	0.344687
528.000000	0.344975
529.000000	0.345150
530.000000	0.345451
531.000000	0.345721
532.000000	0.345826
533.000000	0.346242
534.000000	0.346627
535.000000	0.346883
536.000000	0.347192
537.000000	0.347442
538.000000	0.347702
539.000000	0.348068
540.000000	0.348327
541.000000	0.348501
542.000000	0.348714
543.000000	0.349075
544.000000	0.349432
545.000000	0.349667
546.000000	0.350046
547.000000	0.350316
548.000000	0.350522
549.000000	0.350788
550.000000	0.351107
551.000000	0.351459
552.000000	0.351749
553.000000	0.351997
554.000000	0.352329
555.000000	0.352783
556.000000	0.353066
557.000000	0.353308
558.000000	0.353704
559.000000	0.354066
560.000000	0.354323
561.000000	0.354591
562.000000	0.354889
563.000000	0.355163
564.000000	0.355436
565.000000	0.355634
566.000000	0.356003
567.000000	0.356401
568.000000	0.356696
569.000000	0.356922
570.000000	0.357166
571.000000	0.357436
572.000000	0.357696
573.000000	0.358051
574.000000	0.358402
575.000000	0.358677
576.000000	0.359075
577.000000	0.359409
578.000000	0.359624
579.000000	0.359949
580.000000	0.360214
581.000000	0.360393
582.000000	0.360715
583.000000	0.361025
584.000000	0.361325
585.000000	0.361690
586.000000	0.361974
587.000000	0.362222
588.000000	0.362523
589.000000	0.362904
590.000000	0.363228
591.000000	0.363435
592.000000	0.363676
593.000000	0.363903
594.000000	0.364113
595.000000	0.364354
596.000000	0.364639
597.000000	0.364916
598.000000	0.364999
599.000000	0.365126
600.000000	0.365345
601.000000	0.365562
602.000000	0.365809
603.000000	0.366003
604.000000	0.366143
605.000000	0.366351
606.000000	0.366467
607.000000	0.366503
608.000000	0.366577
609.000000	0.366733
610.000000	0.366925
611.000000	0.367086
612.000000	0.367264
613.000000	0.367383
614.000000	0.367472
615.000000	0.367679
616.000000	0.367878
617.000000	0.367987
618.000000	0.368083
619.000000	0.368205
620.000000	0.368321
621.000000	0.368451
622.000000	0.368570
623.000000	0.368700
624.000000	0.368853
625.000000	0.369006
626.000000	0.369211
627.000000	0.369454
628.000000	0.369594
629.000000	0.369798
630.000000	0.369936
631.000000	0.370081
632.000000	0.370240
633.000000	0.370380
634.000000	0.370448
635.000000	0.370514
636.000000	0.370614
637.000000	0.370753
638.000000	0.370985
639.000000	0.371156
640.000000	0.371314
641.000000	0.371478
642.000000	0.371560
643.000000	0.371627
644.000000	0.371780
645.000000	0.371937
646.000000	0.372071
647.000000	0.372156
648.000000	0.372293
649.000000	0.372414
650.000000	0.372513
651.000000	0.372751
652.000000	0.372876
653.000000	0.372961
654.000000	0.373103
655.000000	0.373194
656.000000	0.373335
657.000000	0.373529
658.000000	0.373614
659.000000	0.373731
660.000000	0.373930
661.000000	0.374192
662.000000	0.374328
663.000000	0.374414
664.000000	0.374558
665.000000	0.374740
666.000000	0.374919
667.000000	0.375023
668.000000	0.375103
669.000000	0.375249
670.000000	0.375464
671.000000	0.375511
672.000000	0.375644
673.000000	0.375867
674.000000	0.376025
675.000000	0.376090
676.000000	0.376141
677.000000	0.376298
678.000000	0.376480
679.000000	0.376665
680.000000	0.376835
681.000000	0.376905
682.000000	0.377046
683.000000	0.377211
684.000000	0.377428
685.000000	0.377610
686.000000	0.377799
687.000000	0.378004
688.000000	0.378159
689.000000	0.378294
690.000000	0.378482
691.000000	0.378704
692.000000	0.378875
693.000000	0.379053
694.000000	0.379244
695.000000	0.379404
696.000000	0.379532
697.000000	0.379645
698.000000	0.379755
699.000000	0.379868
700.000000	0.379996
701.000000	0.380132
702.000000	0.380284
703.000000	0.380426
704.000000	0.380557
705.000000	0.380672
706.000000	0.380802
707.000000	0.381090
708.000000	0.381199
709.000000	0.381250
710.000000	0.381402
711.000000	0.381519
712.000000	0.381664
713.000000	0.381891
714.000000	0.382172
715.000000	0.382364
716.000000	0.382449
717.000000	0.382448
718.000000	0.382530
719.000000	0.382622
720.000000	0.382681
721.000000	0.382854
722.000000	0.382948
723.000000	0.383008
724.000000	0.383183
725.000000	0.383304
726.000000	0.383427
727.000000	0.383491
728.000000	0.383556
729.000000	0.383635
730.000000	0.383683
731.000000	0.383840
732.000000	0.383992
733.000000	0.384151
734.000000	0.384352
735.000000	0.384488
736.000000	0.384618
737.000000	0.384565
738.000000	0.384561
739.000000	0.384668
740.000000	0.384694
741.000000	0.384771
742.000000	0.384896
743.000000	0.385021
744.000000	0.385163
745.000000	0.385187
746.000000	0.385213
747.000000	0.385304
748.000000	0.385471
749.000000	0.385632
750.000000	0.385681
751.000000	0.385630
752.000000	0.385644
753.000000	0.385733
754.000000	0.385737
755.000000	0.385823
756.000000	0.385968
757.000000	0.386038
758.000000	0.386023
759.000000	0.386064
760.000000	0.386148
761.000000	0.386274
762.000000	0.386441
763.000000	0.386549
764.000000	0.386548
765.000000	0.386555
766.000000	0.386604
767.000000	0.386690
768.000000	0.386793
769.000000	0.386832
770.000000	0.386824
771.000000	0.386930
772.000000	0.387021
773.000000	0.387045
774.000000	0.387146
775.000000	0.387222
776.000000	0.387283
777.000000	0.387318
778.000000	0.387318
779.000000	0.387296
780.000000	0.387301
781.000000	0.387390
782.000000	0.387455
783.000000	0.387596
784.000000	0.387714
785.000000	0.387786
786.000000	0.387770
787.000000	0.387688
788.000000	0.387711
789.000000	0.387785
790.000000	0.387837
791.000000	0.387837
792.000000	0.387831
793.000000	0.387868
794.000000	0.387962
795.000000	0.387987
796.000000	0.387999
797.000000	0.388019
798.000000	0.388044
799.000000	0.388061
800.000000	0.388100
801.000000	0.388168
802.000000	0.388016
803.000000	0.387909
804.000000	0.388001
805.000000	0.388021
806.000000	0.387916
807.000000	0.387829
808.000000	0.387825
809.000000	0.388047
810.000000	0.388178
811.000000	0.388007
812.000000	0.387901
813.000000	0.387866
814.000000	0.387879
815.000000	0.387907
816.000000	0.387907
817.000000	0.387897
818.000000	0.387815
819.000000	0.387804
820.000000	0.387844
821.000000	0.387875
822.000000	0.387978
823.000000	0.388030
824.000000	0.387947
825.000000	0.387838
826.000000	0.387747
827.000000	0.387639
828.000000	0.387578
829.000000	0.387665
830.000000	0.387728
831.000000	0.387779
832.000000	0.387718
833.000000	0.387610
834.000000	0.387473
835.000000	0.387374
836.000000	0.387381
837.000000	0.387388
838.000000	0.387373
839.000000	0.387319
840.000000	0.387211
841.000000	0.387095
842.000000	0.386978
843.000000	0.386942
844.000000	0.387013
845.000000	0.387076
846.000000	0.386968
847.000000	0.386828
848.000000	0.386724
849.000000	0.386710
850.000000	0.386605
851.000000	0.386534
852.000000	0.386569
853.000000	0.386547
854.000000	0.386444
855.000000	0.386376
856.000000	0.386264
857.000000	0.386141
858.000000	0.386031
859.000000	0.385872
860.000000	0.385784
861.000000	0.385790
862.000000	0.385808
863.000000	0.385642
864.000000	0.385534
865.000000	0.385494
866.000000	0.385481
867.000000	0.385265
868.000000	0.385224
869.000000	0.385173
870.000000	0.384902
871.000000	0.384764
872.000000	0.384720
873.000000	0.384631
874.000000	0.384532
875.000000	0.384294
876.000000	0.384066
877.000000	0.383995
878.000000	0.383960
879.000000	0.383894
880.000000	0.383641
881.000000	0.383484
882.000000	0.383305
883.000000	0.383156
884.000000	0.383052
885.000000	0.382960
886.000000	0.382836
887.000000	0.382711
888.000000	0.382659
889.000000	0.382521
890.000000	0.382215
891.000000	0.381987
892.000000	0.381806
893.000000	0.381648
894.000000	0.381599
895.000000	0.381420
896.000000	0.381316
897.000000	0.381233
898.000000	0.381061
899.000000	0.380964
900.000000	0.380775
901.000000	0.380419
902.000000	0.380141
903.000000	0.379880
904.000000	0.379687
905.000000	0.379509
906.000000	0.379503
907.000000	0.379447
908.000000	0.379278
909.000000	0.378909
910.000000	0.378523
911.000000	0.378282
912.000000	0.378237
913.000000	0.377969
914.000000	0.377683
915.000000	0.377509
916.000000	0.377310
917.000000	0.377243
918.000000	0.377168
919.000000	0.376954
920.000000	0.376727
921.000000	0.376484
922.000000	0.376225
923.000000	0.375913
924.000000	0.375541
925.000000	0.375313
926.000000	0.375272
927.000000	0.374992
928.000000	0.374786
929.000000	0.374570
930.000000	0.374215
931.000000	0.374089
932.000000	0.373811
933.000000	0.373379
934.000000	0.373101
935.000000	0.372959
936.000000	0.372841
937.000000	0.372571
938.000000	0.372460
939.000000	0.372295
940.000000	0.372000
941.000000	0.371769
942.000000	0.371345
943.000000	0.371053
944.000000	0.370837
945.000000	0.370366
946.000000	0.369926
947.000000	0.369629
948.000000	0.369418
949.000000	0.369223
950.000000	0.369144
951.000000	0.369058
952.000000	0.368800
953.000000	0.368537
954.000000	0.368292
955.000000	0.367999
956.000000	0.367795
957.000000	0.367618
958.000000	0.367441
959.000000	0.367375
960.000000	0.367174
961.000000	0.366946
962.000000	0.366682
963.000000	0.366293
964.000000	0.366076
965.000000	0.366028
966.000000	0.365885
967.000000	0.365503
968.000000	0.365051
969.000000	0.364611
970.000000	0.364381
971.000000	0.364461
972.000000	0.364358
973.000000	0.363984
974.000000	0.364020
975.000000	0.363637
976.000000	0.363449
977.000000	0.363789
978.000000	0.363296
979.000000	0.362920
980.000000	0.362557
981.000000	0.362280
982.000000	0.362196
983.000000	0.362123
984.000000	0.361985
985.000000	0.361670
986.000000	0.361448
987.000000	0.361110
988.000000	0.360559
989.000000	0.360711
990.000000	0.360604
991.000000	0.360245
992.000000	0.360029
993.000000	0.360074
994.000000	0.359826
995.000000	0.359546
996.000000	0.359586
997.000000	0.359887
998.000000	0.359777
999.000000	0.359333
1000.000000	0.359498
1001.000000	0.359424
1002.000000	0.359598
1003.000000	0.359585
1004.000000	0.359523
1005.000000	0.360093
1006.000000	0.359890
1007.000000	0.359025
1008.000000	0.358558
1009.000000	0.358641
1010.000000	0.358279
1011.000000	0.358067
1012.000000	0.357752
1013.000000	0.356924
1014.000000	0.356385
1015.000000	0.356620
1016.000000	0.356895
1017.000000	0.356991
1018.000000	0.357164
1019.000000	0.357215
1020.000000	0.356951
1021.000000	0.356862
1022.000000	0.357559
1023.000000	0.357657
1024.000000	0.357098
1025.000000	0.356946
1026.000000	0.357462
1027.000000	0.357500
1028.000000	0.357190
1029.000000	0.357097
1030.000000	0.356867
1031.000000	0.356111
1032.000000	0.356145
1033.000000	0.356941
1034.000000	0.357400
1035.000000	0.357833
1036.000000	0.358225
1037.000000	0.358802
1038.000000	0.358832
1039.000000	0.358662
1040.000000	0.358421
1041.000000	0.358027
1042.000000	0.357957
1043.000000	0.358150
1044.000000	0.358090
1045.000000	0.358197
1046.000000	0.358300
1047.000000	0.358298
1048.000000	0.358269
1049.000000	0.358204
1050.000000	0.357738
1051.000000	0.357809
1052.000000	0.358233
1053.000000	0.358317
1054.000000	0.358875
1055.000000	0.359263
1056.000000	0.359529
1057.000000	0.359365
1058.000000	0.359860
1059.000000	0.359977
1060.000000	0.359817
1061.000000	0.360111
1062.000000	0.360559
1063.000000	0.360952
1064.000000	0.361214
1065.000000	0.361776
1066.000000	0.361791
1067.000000	0.361059
1068.000000	0.360926
1069.000000	0.360696
1070.000000	0.360776
1071.000000	0.361414
1072.000000	0.361760
1073.000000	0.362203
1074.000000	0.362610
1075.000000	0.362716
1076.000000	0.363050
1077.000000	0.363320
1078.000000	0.363605
1079.000000	0.363843
1080.000000	0.364253
1081.000000	0.364359
1082.000000	0.364259
1083.000000	0.364365
1084.000000	0.364498
1085.000000	0.364698
1086.000000	0.364915
1087.000000	0.365274
1088.000000	0.365742
1089.000000	0.365953
1090.000000	0.365912
1091.000000	0.366381
1092.000000	0.366187
1093.000000	0.366053
1094.000000	0.365947
1095.000000	0.365601
1096.000000	0.365613
1097.000000	0.365759
1098.000000	0.366074
1099.000000	0.366637
1100.000000	0.367086
1101.000000	0.367607
1102.000000	0.367941
1103.000000	0.368181
1104.000000	0.368386
1105.000000	0.368395
1106.000000	0.368549
1107.000000	0.368642
1108.000000	0.368763
1109.000000	0.369092
1110.000000	0.369327
1111.000000	0.369519
1112.000000	0.369634
1113.000000	0.369889
1114.000000	0.370225
1115.000000	0.370435
1116.000000	0.370726
1117.000000	0.370863
1118.000000	0.370744
1119.000000	0.370757
1120.000000	0.370809
1121.000000	0.370850
1122.000000	0.370964
1123.000000	0.371326
1124.000000	0.371725
1125.000000	0.371860
1126.000000	0.371730
1127.000000	0.371724
1128.000000	0.371675
1129.000000	0.371436
1130.000000	0.371423
1131.000000	0.371586
1132.000000	0.371733
1133.000000	0.371930
1134.000000	0.372178
1135.000000	0.372504
1136.000000	0.372747
1137.000000	0.373081
1138.000000	0.373115
1139.000000	0.373065
1140.000000	0.373127
1141.000000	0.372921
1142.000000	0.372869
1143.000000	0.372785
1144.000000	0.372984
1145.000000	0.373279
1146.000000	0.373348
1147.000000	0.373354
1148.000000	0.373288
1149.000000	0.373285
1150.000000	0.373131
1151.000000	0.373123
1152.000000	0.373206
1153.000000	0.373248
1154.000000	0.373256
1155.000000	0.373177
1156.000000	0.372972
1157.000000	0.372992
1158.000000	0.372993
1159.000000	0.373011
1160.000000	0.373271
1161.000000	0.373345
1162.000000	0.373300
1163.000000	0.373431
1164.000000	0.373384
1165.000000	0.373478
1166.000000	0.373602
1167.000000	0.373773
1168.000000	0.373792
1169.000000	0.373840
1170.000000	0.373842
1171.000000	0.373806
1172.000000	0.373742
1173.000000	0.373557
1174.000000	0.373527
1175.000000	0.373483
1176.000000	0.373423
1177.000000	0.373548
1178.000000	0.373608
1179.000000	0.373656
1180.000000	0.373581
1181.000000	0.373499
1182.000000	0.373481
1183.000000	0.373588
1184.000000	0.373602
1185.000000	0.373714
1186.000000	0.374046
1187.000000	0.374092
1188.000000	0.374020
1189.000000	0.373918
1190.000000	0.373684
1191.000000	0.373632
1192.000000	0.373753
1193.000000	0.373898
1194.000000	0.374052
1195.000000	0.374104
1196.000000	0.373999
1197.000000	0.373964
1198.000000	0.373908
1199.000000	0.373898
1200.000000	0.373897
1201.000000	0.373978
1202.000000	0.374004
1203.000000	0.373951
1204.000000	0.373928
1205.000000	0.373837
1206.000000	0.373764
1207.000000	0.373814
1208.000000	0.373800
1209.000000	0.373881
1210.000000	0.373834
1211.000000	0.373685
1212.000000	0.373620
1213.000000	0.373546
1214.000000	0.373549
1215.000000	0.373625
1216.000000	0.373667
1217.000000	0.373691
1218.000000	0.373696
1219.000000	0.373706
1220.000000	0.373829
1221.000000	0.373845
1222.000000	0.373663
1223.000000	0.373539
1224.000000	0.373453
1225.000000	0.373426
1226.000000	0.373568
1227.000000	0.373473
1228.000000	0.373454
1229.000000	0.373481
1230.000000	0.373480
1231.000000	0.373389
1232.000000	0.373492
1233.000000	0.373587
1234.000000	0.373550
1235.000000	0.373577
1236.000000	0.373632
1237.000000	0.373711
1238.000000	0.373692
1239.000000	0.373655
1240.000000	0.373677
1241.000000	0.373610
1242.000000	0.373416
1243.000000	0.373339
1244.000000	0.373270
1245.000000	0.373374
1246.000000	0.373461
1247.000000	0.373555
1248.000000	0.373610
1249.000000	0.373521
1250.000000	0.373487
1251.000000	0.373408
1252.000000	0.373305
1253.000000	0.373226
1254.000000	0.373170
1255.000000	0.373023
1256.000000	0.372998
1257.000000	0.373106
1258.000000	0.373191
1259.000000	0.373291
1260.000000	0.373374
1261.000000	0.373320
1262.000000	0.373337
1263.000000	0.373349
1264.000000	0.373404
1265.000000	0.373643
1266.000000	0.373844
1267.000000	0.373858
1268.000000	0.373962
1269.000000	0.373919
1270.000000	0.373742
1271.000000	0.373739
1272.000000	0.373697
1273.000000	0.373587
1274.000000	0.373570
1275.000000	0.373487
1276.000000	0.373399
1277.000000	0.373400
1278.000000	0.373269
1279.000000	0.373237
1280.000000	0.373202
1281.000000	0.373161
1282.000000	0.373279
1283.000000	0.373372
1284.000000	0.373386
1285.000000	0.373412
1286.000000	0.373405
1287.000000	0.373317
1288.000000	0.373368
1289.000000	0.373293
1290.000000	0.372940
1291.000000	0.372724
1292.000000	0.372651
1293.000000	0.372626
1294.000000	0.372716
1295.000000	0.372908
1296.000000	0.372869
1297.000000	0.372606
1298.000000	0.372511
1299.000000	0.372388
1300.000000	0.372348
1301.000000	0.372482
1302.000000	0.372380
1303.000000	0.372290
1304.000000	0.372181
1305.000000	0.372015
1306.000000	0.371931
1307.000000	0.372097
1308.000000	0.372162
1309.000000	0.372162
1310.000000	0.372149
1311.000000	0.372186
1312.000000	0.372023
1313.000000	0.371826
1314.000000	0.371649
1315.000000	0.371453
1316.000000	0.371378
1317.000000	0.371338
1318.000000	0.371317
1319.000000	0.371360
1320.000000	0.371301
1321.000000	0.371239
1322.000000	0.371297
1323.000000	0.371246
1324.000000	0.371183
1325.000000	0.371004
1326.000000	0.370680
1327.000000	0.370485
1328.000000	0.370425
1329.000000	0.370258
1330.000000	0.370236
1331.000000	0.370068
1332.000000	0.369770
1333.000000	0.369560
1334.000000	0.369414
1335.000000	0.369318
1336.000000	0.369271
1337.000000	0.369178
1338.000000	0.369063
1339.000000	0.368885
1340.000000	0.368613
1341.000000	0.368481
1342.000000	0.368222
1343.000000	0.368061
1344.000000	0.368092
1345.000000	0.367845
1346.000000	0.367696
1347.000000	0.367603
1348.000000	0.367392
1349.000000	0.367217
1350.000000	0.367243
1351.000000	0.367062
1352.000000	0.366815
1353.000000	0.366779
1354.000000	0.366742
1355.000000	0.366619
1356.000000	0.366640
1357.000000	0.366514
1358.000000	0.366302
1359.000000	0.366136
1360.000000	0.365946
1361.000000	0.365785
1362.000000	0.365622
1363.000000	0.365446
1364.000000	0.365252
1365.000000	0.365012
1366.000000	0.364782
1367.000000	0.364547
1368.000000	0.364210
1369.000000	0.364054
1370.000000	0.363774
1371.000000	0.363207
1372.000000	0.362798
1373.000000	0.362366
1374.000000	0.361680
1375.000000	0.361156
1376.000000	0.360577
1377.000000	0.359597
1378.000000	0.358443
1379.000000	0.357043
1380.000000	0.355404
1381.000000	0.353551
1382.000000	0.351565
1383.000000	0.349461
1384.000000	0.347082
1385.000000	0.344738
1386.000000	0.342613
1387.000000	0.340585
1388.000000	0.338838
1389.000000	0.337665
1390.000000	0.336824
1391.000000	0.336159
1392.000000	0.336103
1393.000000	0.336119
1394.000000	0.336361
1395.000000	0.336681
1396.000000	0.337435
1397.000000	0.337646
1398.000000	0.337678
1399.000000	0.337627
1400.000000	0.337434
1401.000000	0.337051
1402.000000	0.336575
1403.000000	0.335932
1404.000000	0.335299
1405.000000	0.334425
1406.000000	0.333676
1407.000000	0.333106
1408.000000	0.332333
1409.000000	0.331611
1410.000000	0.330957
1411.000000	0.330245
1412.000000	0.329824
1413.000000	0.329578
1414.000000	0.329208
1415.000000	0.328919
1416.000000	0.328560
1417.000000	0.328225
1418.000000	0.327963
1419.000000	0.327850
1420.000000	0.327800
1421.000000	0.327690
1422.000000	0.327604
1423.000000	0.327598
1424.000000	0.327407
1425.000000	0.327300
1426.000000	0.327192
1427.000000	0.327071
1428.000000	0.327070
1429.000000	0.327004
1430.000000	0.326976
1431.000000	0.327036
1432.000000	0.327047
1433.000000	0.327121
1434.000000	0.327095
1435.000000	0.327114
1436.000000	0.327090
1437.000000	0.326942
1438.000000	0.326814
1439.000000	0.326762
1440.000000	0.326672
1441.000000	0.326569
1442.000000	0.326580
1443.000000	0.326615
1444.000000	0.326485
1445.000000	0.326420
1446.000000	0.326211
1447.000000	0.325978
1448.000000	0.325885
1449.000000	0.325762
1450.000000	0.325737
1451.000000	0.325741
1452.000000	0.325626
1453.000000	0.325579
1454.000000	0.325505
1455.000000	0.325394
1456.000000	0.325422
1457.000000	0.325475
1458.000000	0.325473
1459.000000	0.325354
1460.000000	0.325149
1461.000000	0.325014
1462.000000	0.324957
1463.000000	0.324872
1464.000000	0.324807
1465.000000	0.324792
1466.000000	0.324756
1467.000000	0.324867
1468.000000	0.325205
1469.000000	0.325534
1470.000000	0.325632
1471.000000	0.325871
1472.000000	0.326014
1473.000000	0.326163
1474.000000	0.326507
1475.000000	0.326725
1476.000000	0.327044
1477.000000	0.327426
1478.000000	0.327707
1479.000000	0.328093
1480.000000	0.328339
1481.000000	0.328563
1482.000000	0.328735
1483.000000	0.329075
1484.000000	0.329465
1485.000000	0.329840
1486.000000	0.330338
1487.000000	0.330743
1488.000000	0.331035
1489.000000	0.331477
1490.000000	0.331860
1491.000000	0.332245
1492.000000	0.332671
1493.000000	0.333053
1494.000000	0.333346
1495.000000	0.333606
1496.000000	0.333835
1497.000000	0.334102
1498.000000	0.334353
1499.000000	0.334627
1500.000000	0.335005
1501.000000	0.335236
1502.000000	0.335458
1503.000000	0.335844
1504.000000	0.336170
1505.000000	0.336404
1506.000000	0.336637
1507.000000	0.336761
1508.000000	0.336917
1509.000000	0.337146
1510.000000	0.337301
1511.000000	0.337530
1512.000000	0.337800
1513.000000	0.338014
1514.000000	0.338251
1515.000000	0.338417
1516.000000	0.338542
1517.000000	0.338632
1518.000000	0.338744
1519.000000	0.338912
1520.000000	0.339215
1521.000000	0.339371
1522.000000	0.339504
1523.000000	0.339741
1524.000000	0.339684
1525.000000	0.339765
1526.000000	0.340116
1527.000000	0.340398
1528.000000	0.340669
1529.000000	0.340771
1530.000000	0.340652
1531.000000	0.340652
1532.000000	0.340771
1533.000000	0.340910
1534.000000	0.341052
1535.000000	0.341099
1536.000000	0.341057
1537.000000	0.341250
1538.000000	0.341555
1539.000000	0.341705
1540.000000	0.341830
1541.000000	0.341940
1542.000000	0.341969
1543.000000	0.342020
1544.000000	0.342190
1545.000000	0.342435
1546.000000	0.342544
1547.000000	0.342664
1548.000000	0.342905
1549.000000	0.343057
1550.000000	0.343184
1551.000000	0.343377
1552.000000	0.343417
1553.000000	0.343320
1554.000000	0.343318
1555.000000	0.343348
1556.000000	0.343328
1557.000000	0.343349
1558.000000	0.343417
1559.000000	0.343470
1560.000000	0.343451
1561.000000	0.343485
1562.000000	0.343434
1563.000000	0.343297
1564.000000	0.343291
1565.000000	0.343343
1566.000000	0.343328
1567.000000	0.343474
1568.000000	0.343451
1569.000000	0.343341
1570.000000	0.343378
1571.000000	0.343399
1572.000000	0.343451
1573.000000	0.343675
1574.000000	0.343747
1575.000000	0.343780
1576.000000	0.343812
1577.000000	0.343756
1578.000000	0.343673
1579.000000	0.343575
1580.000000	0.343588
1581.000000	0.343761
1582.000000	0.343821
1583.000000	0.343893
1584.000000	0.343857
1585.000000	0.343824
1586.000000	0.343787
1587.000000	0.343712
1588.000000	0.343648
1589.000000	0.343541
1590.000000	0.343428
1591.000000	0.343320
1592.000000	0.343334
1593.000000	0.343412
1594.000000	0.343468
1595.000000	0.343729
1596.000000	0.343849
1597.000000	0.343858
1598.000000	0.343923
1599.000000	0.343994
1600.000000	0.344082
1601.000000	0.344382
1602.000000	0.344438
1603.000000	0.344350
1604.000000	0.344421
1605.000000	0.344454
1606.000000	0.344508
1607.000000	0.344799
1608.000000	0.344923
1609.000000	0.344960
1610.000000	0.345030
1611.000000	0.345132
1612.000000	0.345187
1613.000000	0.345335
1614.000000	0.345348
1615.000000	0.345353
1616.000000	0.345431
1617.000000	0.345427
1618.000000	0.345388
1619.000000	0.345337
1620.000000	0.345314
1621.000000	0.345252
1622.000000	0.345330
1623.000000	0.345487
1624.000000	0.345591
1625.000000	0.345600
1626.000000	0.345531
1627.000000	0.345423
1628.000000	0.345445
1629.000000	0.345372
1630.000000	0.345457
1631.000000	0.345678
1632.000000	0.345747
1633.000000	0.345841
1634.000000	0.345923
1635.000000	0.345989
1636.000000	0.346033
1637.000000	0.346082
1638.000000	0.346084
1639.000000	0.346092
1640.000000	0.346053
1641.000000	0.346031
1642.000000	0.346107
1643.000000	0.346242
1644.000000	0.346366
1645.000000	0.346534
1646.000000	0.346620
1647.000000	0.346722
1648.000000	0.346772
1649.000000	0.346985
1650.000000	0.347034
1651.000000	0.346947
1652.000000	0.346955
1653.000000	0.346842
1654.000000	0.346822
1655.000000	0.346793
1656.000000	0.346807
1657.000000	0.346942
1658.000000	0.347030
1659.000000	0.347329
1660.000000	0.347474
1661.000000	0.347410
1662.000000	0.347404
1663.000000	0.347346
1664.000000	0.347335
1665.000000	0.347341
1666.000000	0.347455
1667.000000	0.347495
1668.000000	0.347624
1669.000000	0.347820
1670.000000	0.347895
1671.000000	0.348117
1672.000000	0.348280
1673.000000	0.348301
1674.000000	0.348521
1675.000000	0.348715
1676.000000	0.348751
1677.000000	0.348845
1678.000000	0.348889
1679.000000	0.348848
1680.000000	0.348735
1681.000000	0.348641
1682.000000	0.348463
1683.000000	0.348292
1684.000000	0.348332
1685.000000	0.348338
1686.000000	0.348403
1687.000000	0.348645
1688.000000	0.348699
1689.000000	0.348717
1690.000000	0.348670
1691.000000	0.348609
1692.000000	0.348640
1693.000000	0.348738
1694.000000	0.348649
1695.000000	0.348451
1696.000000	0.348209
1697.000000	0.348095
1698.000000	0.348307
1699.000000	0.348424
1700.000000	0.348518
1701.000000	0.348694
1702.000000	0.348652
1703.000000	0.348679
1704.000000	0.348946
1705.000000	0.349050
1706.000000	0.349192
1707.000000	0.349198
1708.000000	0.348900
1709.000000	0.348783
1710.000000	0.348809
1711.000000	0.348832
1712.000000	0.349006
1713.000000	0.349083
1714.000000	0.349179
1715.000000	0.349212
1716.000000	0.349234
1717.000000	0.349198
1718.000000	0.348927
1719.000000	0.348891
1720.000000	0.349124
1721.000000	0.349115
1722.000000	0.349052
1723.000000	0.349090
1724.000000	0.349034
1725.000000	0.349061
1726.000000	0.349180
1727.000000	0.349262
1728.000000	0.349250
1729.000000	0.349120
1730.000000	0.349085
1731.000000	0.349087
1732.000000	0.349056
1733.000000	0.348998
1734.000000	0.348848
1735.000000	0.348791
1736.000000	0.348559
1737.000000	0.348528
1738.000000	0.348737
1739.000000	0.348859
1740.000000	0.348942
1741.000000	0.349046
1742.000000	0.349282
1743.000000	0.349295
1744.000000	0.349135
1745.000000	0.349127
1746.000000	0.349085
1747.000000	0.348914
1748.000000	0.348820
1749.000000	0.348629
1750.000000	0.348470
1751.000000	0.348650
1752.000000	0.348825
1753.000000	0.348746
1754.000000	0.348793
1755.000000	0.348930
1756.000000	0.348972
1757.000000	0.349008
1758.000000	0.349062
1759.000000	0.349091
1760.000000	0.349040
1761.000000	0.348898
1762.000000	0.348791
1763.000000	0.348634
1764.000000	0.348505
1765.000000	0.348374
1766.000000	0.348302
1767.000000	0.348124
1768.000000	0.348009
1769.000000	0.348151
1770.000000	0.348137
1771.000000	0.347996
1772.000000	0.347907
1773.000000	0.347589
1774.000000	0.347663
1775.000000	0.348122
1776.000000	0.348243
1777.000000	0.348441
1778.000000	0.348400
1779.000000	0.347991
1780.000000	0.347857
1781.000000	0.347740
1782.000000	0.347660
1783.000000	0.347664
1784.000000	0.347739
1785.000000	0.347830
1786.000000	0.348213
1787.000000	0.348391
1788.000000	0.348367
1789.000000	0.348395
1790.000000	0.348285
1791.000000	0.348199
1792.000000	0.348282
1793.000000	0.348404
1794.000000	0.348667
1795.000000	0.348746
1796.000000	0.348721
1797.000000	0.348781
1798.000000	0.348729
1799.000000	0.348688
1800.000000	0.348884
1801.000000	0.349298
1802.000000	0.349061
1803.000000	0.347942
1804.000000	0.347738
1805.000000	0.347372
1806.000000	0.347250
1807.000000	0.347947
1808.000000	0.347994
1809.000000	0.347193
1810.000000	0.347397
1811.000000	0.347372
1812.000000	0.347039
1813.000000	0.347401
1814.000000	0.348788
1815.000000	0.349022
1816.000000	0.348995
1817.000000	0.348862
1818.000000	0.347797
1819.000000	0.347779
1820.000000	0.347565
1821.000000	0.347232
1822.000000	0.347138
1823.000000	0.346747
1824.000000	0.346604
1825.000000	0.347006
1826.000000	0.347211
1827.000000	0.347310
1828.000000	0.347133
1829.000000	0.347536
1830.000000	0.347121
1831.000000	0.347337
1832.000000	0.348164
1833.000000	0.348379
1834.000000	0.348705
1835.000000	0.348580
1836.000000	0.347420
1837.000000	0.346691
1838.000000	0.345945
1839.000000	0.345133
1840.000000	0.343651
1841.000000	0.343911
1842.000000	0.343837
1843.000000	0.343865
1844.000000	0.343922
1845.000000	0.344344
1846.000000	0.344391
1847.000000	0.344146
1848.000000	0.343688
1849.000000	0.343483
1850.000000	0.343251
1851.000000	0.342719
1852.000000	0.341924
1853.000000	0.341440
1854.000000	0.340097
1855.000000	0.339792
1856.000000	0.340138
1857.000000	0.340435
1858.000000	0.340441
1859.000000	0.340748
1860.000000	0.340649
1861.000000	0.339625
1862.000000	0.338695
1863.000000	0.337775
1864.000000	0.336725
1865.000000	0.335109
1866.000000	0.333996
1867.000000	0.333216
1868.000000	0.332206
1869.000000	0.330687
1870.000000	0.328995
1871.000000	0.326438
1872.000000	0.323635
1873.000000	0.321849
1874.000000	0.320921
1875.000000	0.319332
1876.000000	0.318112
1877.000000	0.315867
1878.000000	0.313146
1879.000000	0.310027
1880.000000	0.306028
1881.000000	0.303289
1882.000000	0.300434
1883.000000	0.296551
1884.000000	0.293300
1885.000000	0.290395
1886.000000	0.286984
1887.000000	0.283325
1888.000000	0.279819
1889.000000	0.275697
1890.000000	0.271733
1891.000000	0.267427
1892.000000	0.263021
1893.000000	0.258910
1894.000000	0.254827
1895.000000	0.251420
1896.000000	0.248872
1897.000000	0.246052
1898.000000	0.242953
1899.000000	0.240098
1900.000000	0.236029
1901.000000	0.232400
1902.000000	0.229967
1903.000000	0.228105
1904.000000	0.226639
1905.000000	0.225162
1906.000000	0.223836
1907.000000	0.222571
1908.000000	0.221360
1909.000000	0.220778
1910.000000	0.220543
1911.000000	0.219863
1912.000000	0.219446
1913.000000	0.219146
1914.000000	0.219219
1915.000000	0.219988
1916.000000	0.220165
1917.000000	0.220315
1918.000000	0.220309
1919.000000	0.220749
1920.000000	0.220933
1921.000000	0.221549
1922.000000	0.222415
1923.000000	0.222666
1924.000000	0.222297
1925.000000	0.221762
1926.000000	0.221735
1927.000000	0.221832
1928.000000	0.222062
1929.000000	0.222710
1930.000000	0.223749
1931.000000	0.224297
1932.000000	0.224656
1933.000000	0.225040
1934.000000	0.225317
1935.000000	0.225411
1936.000000	0.225926
1937.000000	0.226522
1938.000000	0.226748
1939.000000	0.227050
1940.000000	0.227638
1941.000000	0.227328
1942.000000	0.227012
1943.000000	0.227447
1944.000000	0.227030
1945.000000	0.227400
1946.000000	0.228096
1947.000000	0.227833
1948.000000	0.228419
1949.000000	0.228817
1950.000000	0.228827
1951.000000	0.228933
1952.000000	0.229332
1953.000000	0.229108
1954.000000	0.229106
1955.000000	0.229215
1956.000000	0.229103
1957.000000	0.228940
1958.000000	0.228785
1959.000000	0.229269
1960.000000	0.229673
1961.000000	0.229954
1962.000000	0.230196
1963.000000	0.230610
1964.000000	0.230313
1965.000000	0.229897
1966.000000	0.230161
1967.000000	0.230702
1968.000000	0.231080
1969.000000	0.231557
1970.000000	0.231924
1971.000000	0.232036
1972.000000	0.232195
1973.000000	0.232397
1974.000000	0.233092
1975.000000	0.233509
1976.000000	0.233800
1977.000000	0.234040
1978.000000	0.234368
1979.000000	0.233955
1980.000000	0.234212
1981.000000	0.234730
1982.000000	0.235288
1983.000000	0.236382
1984.000000	0.236867
1985.000000	0.236943
1986.000000	0.237527
1987.000000	0.238236
1988.000000	0.238520
1989.000000	0.239705
1990.000000	0.240290
1991.000000	0.240646
1992.000000	0.241578
1993.000000	0.242265
1994.000000	0.243112
1995.000000	0.243997
1996.000000	0.244760
1997.000000	0.245256
1998.000000	0.245344
1999.000000	0.246046
2000.000000	0.246968
2001.000000	0.247557
2002.000000	0.248322
2003.000000	0.249063
2004.000000	0.249304
2005.000000	0.249582
2006.000000	0.250444
2007.000000	0.251683
2008.000000	0.252814
2009.000000	0.254284
2010.000000	0.255068
2011.000000	0.255548
2012.000000	0.255967
2013.000000	0.255729
2014.000000	0.255790
2015.000000	0.256381
2016.000000	0.256570
2017.000000	0.257148
2018.000000	0.258317
2019.000000	0.260035
2020.000000	0.261483
2021.000000	0.262548
2022.000000	0.263635
2023.000000	0.264213
2024.000000	0.263925
2025.000000	0.264379
2026.000000	0.264757
2027.000000	0.265417
2028.000000	0.266302
2029.000000	0.266513
2030.000000	0.267036
2031.000000	0.267783
2032.000000	0.267847
2033.000000	0.268550
2034.000000	0.269503
2035.000000	0.270798
2036.000000	0.271479
2037.000000	0.272711
2038.000000	0.273380
2039.000000	0.273366
2040.000000	0.273698
2041.000000	0.273794
2042.000000	0.274010
2043.000000	0.274360
2044.000000	0.273834
2045.000000	0.274065
2046.000000	0.275149
2047.000000	0.275995
2048.000000	0.277529
2049.000000	0.278426
2050.000000	0.278264
2051.000000	0.278652
2052.000000	0.278808
2053.000000	0.279108
2054.000000	0.279827
2055.000000	0.281289
2056.000000	0.281775
2057.000000	0.282257
2058.000000	0.283044
2059.000000	0.283916
2060.000000	0.284519
2061.000000	0.285487
2062.000000	0.285760
2063.000000	0.285271
2064.000000	0.285064
2065.000000	0.284712
2066.000000	0.284927
2067.000000	0.285912
2068.000000	0.286479
2069.000000	0.287256
2070.000000	0.287837
2071.000000	0.287683
2072.000000	0.287963
2073.000000	0.288449
2074.000000	0.288833
2075.000000	0.289255
2076.000000	0.289948
2077.000000	0.290151
2078.000000	0.289929
2079.000000	0.289864
2080.000000	0.289614
2081.000000	0.289661
2082.000000	0.289734
2083.000000	0.290247
2084.000000	0.291131
2085.000000	0.291502
2086.000000	0.292337
2087.000000	0.293403
2088.000000	0.293742
2089.000000	0.293999
2090.000000	0.294547
2091.000000	0.295292
2092.000000	0.295552
2093.000000	0.295811
2094.000000	0.296065
2095.000000	0.295748
2096.000000	0.295816
2097.000000	0.296102
2098.000000	0.296615
2099.000000	0.296957
2100.000000	0.297037
2101.000000	0.297013
2102.000000	0.297131
2103.000000	0.297773
2104.000000	0.298493
2105.000000	0.298943
2106.000000	0.299626
2107.000000	0.300229
2108.000000	0.300379
2109.000000	0.300697
2110.000000	0.301231
2111.000000	0.301564
2112.000000	0.301540
2113.000000	0.301401
2114.000000	0.301421
2115.000000	0.301707
2116.000000	0.302393
2117.000000	0.302956
2118.000000	0.303846
2119.000000	0.304513
2120.000000	0.304874
2121.000000	0.304644
2122.000000	0.304812
2123.000000	0.305212
2124.000000	0.305260
2125.000000	0.305164
2126.000000	0.305208
2127.000000	0.304665
2128.000000	0.304780
2129.000000	0.304977
2130.000000	0.306230
2131.000000	0.307107
2132.000000	0.307326
2133.000000	0.307248
2134.000000	0.306664
2135.000000	0.306557
2136.000000	0.307167
2137.000000	0.307326
2138.000000	0.308107
2139.000000	0.308005
2140.000000	0.306828
2141.000000	0.306401
2142.000000	0.305569
2143.000000	0.305543
2144.000000	0.307194
2145.000000	0.307564
2146.000000	0.307918
2147.000000	0.308197
2148.000000	0.307490
2149.000000	0.306445
2150.000000	0.306631
2151.000000	0.306935
2152.000000	0.307715
2153.000000	0.308617
2154.000000	0.308673
2155.000000	0.308259
2156.000000	0.308040
2157.000000	0.307128
2158.000000	0.306964
2159.000000	0.307334
2160.000000	0.307845
2161.000000	0.308818
2162.000000	0.309291
2163.000000	0.309692
2164.000000	0.309970
2165.000000	0.309880
2166.000000	0.309714
2167.000000	0.310059
2168.000000	0.309966
2169.000000	0.309812
2170.000000	0.309427
2171.000000	0.308745
2172.000000	0.307503
2173.000000	0.306894
2174.000000	0.305902
2175.000000	0.305927
2176.000000	0.307111
2177.000000	0.307697
2178.000000	0.308682
2179.000000	0.309425
2180.000000	0.309835
2181.000000	0.310402
2182.000000	0.310277
2183.000000	0.310629
2184.000000	0.311617
2185.000000	0.310147
2186.000000	0.308852
2187.000000	0.308916
2188.000000	0.308286
2189.000000	0.308397
2190.000000	0.309411
2191.000000	0.310283
2192.000000	0.310051
2193.000000	0.308717
2194.000000	0.308101
2195.000000	0.307087
2196.000000	0.305932
2197.000000	0.305055
2198.000000	0.304378
2199.000000	0.302559
2200.000000	0.302321
2201.000000	0.303736
2202.000000	0.304450
2203.000000	0.305531
2204.000000	0.307152
2205.000000	0.306175
2206.000000	0.306314
2207.000000	0.307175
2208.000000	0.306931
2209.000000	0.307441
2210.000000	0.307665
2211.000000	0.305699
2212.000000	0.303708
2213.000000	0.302596
2214.000000	0.300596
2215.000000	0.301317
2216.000000	0.305494
2217.000000	0.306358
2218.000000	0.306907
2219.000000	0.307573
2220.000000	0.306415
2221.000000	0.305838
2222.000000	0.306745
2223.000000	0.306322
2224.000000	0.304258
2225.000000	0.303154
2226.000000	0.302618
2227.000000	0.302810
2228.000000	0.305538
2229.000000	0.305776
2230.000000	0.306744
2231.000000	0.309459
2232.000000	0.308343
2233.000000	0.308579
2234.000000	0.307530
2235.000000	0.306244
2236.000000	0.305636
2237.000000	0.305679
2238.000000	0.304756
2239.000000	0.303176
2240.000000	0.302381
2241.000000	0.301900
2242.000000	0.301938
2243.000000	0.302171
2244.000000	0.303253
2245.000000	0.305671
2246.000000	0.306053
2247.000000	0.306482
2248.000000	0.306230
2249.000000	0.303861
2250.000000	0.302602
2251.000000	0.302181
2252.000000	0.301229
2253.000000	0.300952
2254.000000	0.302712
2255.000000	0.303382
2256.000000	0.307828
2257.000000	0.312272
2258.000000	0.311365
2259.000000	0.312077
2260.000000	0.310439
2261.000000	0.308015
2262.000000	0.304336
2263.000000	0.301775
2264.000000	0.297386
2265.000000	0.296238
2266.000000	0.296654
2267.000000	0.297138
2268.000000	0.300100
2269.000000	0.300758
2270.000000	0.301630
2271.000000	0.300715
2272.000000	0.296848
2273.000000	0.295223
2274.000000	0.292814
2275.000000	0.291617
2276.000000	0.292363
2277.000000	0.293298
2278.000000	0.291231
2279.000000	0.290450
2280.000000	0.288455
2281.000000	0.285290
2282.000000	0.284504
2283.000000	0.282419
2284.000000	0.280454
2285.000000	0.280529
2286.000000	0.279443
2287.000000	0.279631
2288.000000	0.280911
2289.000000	0.280500
2290.000000	0.280295
2291.000000	0.280020
2292.000000	0.278449
2293.000000	0.275047
2294.000000	0.272671
2295.000000	0.269943
2296.000000	0.268448
2297.000000	0.267449
2298.000000	0.267119
2299.000000	0.267697
2300.000000	0.267740
2301.000000	0.268897
2302.000000	0.268362
2303.000000	0.266049
2304.000000	0.265114
2305.000000	0.263788
2306.000000	0.262778
2307.000000	0.262573
2308.000000	0.263173
2309.000000	0.262081
2310.000000	0.262291
2311.000000	0.263267
2312.000000	0.262996
2313.000000	0.262901
2314.000000	0.260657
2315.000000	0.257546
2316.000000	0.256251
2317.000000	0.254820
2318.000000	0.256512
2319.000000	0.258741
2320.000000	0.257561
2321.000000	0.257690
2322.000000	0.256312
2323.000000	0.255068
2324.000000	0.258305
2325.000000	0.259519
2326.000000	0.260077
2327.000000	0.261862
2328.000000	0.261796
2329.000000	0.263037
2330.000000	0.264376
2331.000000	0.264031
2332.000000	0.266114
2333.000000	0.268031
2334.000000	0.267080
2335.000000	0.267040
2336.000000	0.265910
2337.000000	0.265372
2338.000000	0.265555
2339.000000	0.265518
2340.000000	0.265952
2341.000000	0.265330
2342.000000	0.262920
2343.000000	0.261785
2344.000000	0.261269
2345.000000	0.260168
2346.000000	0.260011
2347.000000	0.258911
2348.000000	0.256835
2349.000000	0.254481
2350.000000	0.253221
2351.000000	0.253251
2352.000000	0.254268
2353.000000	0.255410
2354.000000	0.256756
2355.000000	0.254743
2356.000000	0.251753
2357.000000	0.252295
2358.000000	0.250897
2359.000000	0.250894
2360.000000	0.251415
2361.000000	0.247782
2362.000000	0.247858
2363.000000	0.249032
2364.000000	0.247740
2365.000000	0.248633
2366.000000	0.249997
2367.000000	0.247304
2368.000000	0.245685
2369.000000	0.247731
2370.000000	0.247849
2371.000000	0.249816
2372.000000	0.250080
2373.000000	0.246133
2374.000000	0.241148
2375.000000	0.236223
2376.000000	0.238191
2377.000000	0.242687
2378.000000	0.246752
2379.000000	0.248593
2380.000000	0.241670
2381.000000	0.232732
2382.000000	0.226770
2383.000000	0.223615
2384.000000	0.223011
2385.000000	0.224154
2386.000000	0.224894
2387.000000	0.220914
2388.000000	0.220155
2389.000000	0.225766
2390.000000	0.226736
2391.000000	0.232932
2392.000000	0.238167
2393.000000	0.228032
2394.000000	0.225997
2395.000000	0.221429
2396.000000	0.214543
2397.000000	0.226283
2398.000000	0.231608
2399.000000	0.228698
2400.000000	0.226821
2401.000000	0.222568
2402.000000	0.221135
2403.000000	0.222845
2404.000000	0.224630
2405.000000	0.224579
2406.000000	0.225473
2407.000000	0.227599
2408.000000	0.229912
2409.000000	0.231732
2410.000000	0.232568
2411.000000	0.233736
2412.000000	0.234345
2413.000000	0.225064
2414.000000	0.215010
2415.000000	0.210345
2416.000000	0.203610
2417.000000	0.211056
2418.000000	0.221167
2419.000000	0.220525
2420.000000	0.230731
2421.000000	0.236968
2422.000000	0.236197
2423.000000	0.242702
2424.000000	0.236573
2425.000000	0.222751
2426.000000	0.206531
2427.000000	0.190258
2428.000000	0.179937
2429.000000	0.179323
2430.000000	0.190678
2431.000000	0.195794
2432.000000	0.202858
2433.000000	0.214944
2434.000000	0.222445
2435.000000	0.228818
2436.000000	0.240354
2437.000000	0.240963
2438.000000	0.226983
2439.000000	0.225021
2440.000000	0.216995
2441.000000	0.209729
2442.000000	0.216436
2443.000000	0.208570
2444.000000	0.206864
2445.000000	0.210297
2446.000000	0.211838
2447.000000	0.230218
2448.000000	0.243817
2449.000000	0.252976
2450.000000	0.251713
2451.000000	0.235223
2452.000000	0.224062
2453.000000	0.218569
2454.000000	0.220955
2455.000000	0.222237
2456.000000	0.217779
2457.000000	0.221471
2458.000000	0.211867
2459.000000	0.196116
2460.000000	0.198290
2461.000000	0.182560
2462.000000	0.180431
2463.000000	0.196128
2464.000000	0.187581
2465.000000	0.193249
2466.000000	0.187503
2467.000000	0.174008
2468.000000	0.188528
2469.000000	0.201404
2470.000000	0.221353
2471.000000	0.229434
2472.000000	0.236195
2473.000000	0.222242
2474.000000	0.190109
2475.000000	0.208431
2476.000000	0.215356
2477.000000	0.221860
2478.000000	0.255203
2479.000000	0.247236
2480.000000	0.221380
2481.000000	0.218260
2482.000000	0.224782
2483.000000	0.224398
2484.000000	0.228072
2485.000000	0.215489
2486.000000	0.188847
2487.000000	0.170838
2488.000000	0.175886
2489.000000	0.208799
2490.000000	0.200740
2491.000000	0.188661
2492.000000	0.179306
2493.000000	0.172665
2494.000000	0.172916
2495.000000	0.168786
2496.000000	0.169177
2497.000000	0.159513
2498.000000	0.145615
2499.000000	0.165231
2500.000000	0.159783
