# Wavelength	SM1200H-80_HEX-10_FV7-10_00000.asd.rts.txt
350.000000	0.401686
351.000000	0.417769
352.000000	0.425185
353.000000	0.433331
354.000000	0.446703
355.000000	0.435124
356.000000	0.428949
357.000000	0.433394
358.000000	0.430502
359.000000	0.432749
360.000000	0.436947
361.000000	0.436614
362.000000	0.435001
363.000000	0.438055
364.000000	0.444958
365.000000	0.441895
366.000000	0.441197
367.000000	0.443655
368.000000	0.441452
369.000000	0.441028
370.000000	0.443177
371.000000	0.446435
372.000000	0.444226
373.000000	0.443774
374.000000	0.449313
375.000000	0.450506
376.000000	0.451638
377.000000	0.452941
378.000000	0.451199
379.000000	0.452611
380.000000	0.456607
381.000000	0.461486
382.000000	0.462333
383.000000	0.459162
384.000000	0.454681
385.000000	0.455219
386.000000	0.457649
387.000000	0.460258
388.000000	0.462108
389.000000	0.462289
390.000000	0.461654
391.000000	0.461195
392.000000	0.461749
393.000000	0.462555
394.000000	0.463165
395.000000	0.465120
396.000000	0.467089
397.000000	0.468374
398.000000	0.469290
399.000000	0.469471
400.000000	0.468910
401.000000	0.467631
402.000000	0.468638
403.000000	0.470105
404.000000	0.470407
405.000000	0.470966
406.000000	0.471556
407.000000	0.472206
408.000000	0.473314
409.000000	0.474018
410.000000	0.474485
411.000000	0.475367
412.000000	0.474937
413.000000	0.474282
414.000000	0.474818
415.000000	0.475728
416.000000	0.476199
417.000000	0.476231
418.000000	0.477796
419.000000	0.477893
420.000000	0.476763
421.000000	0.477347
422.000000	0.478273
423.000000	0.479084
424.000000	0.479721
425.000000	0.480126
426.000000	0.480606
427.000000	0.481327
428.000000	0.482151
429.000000	0.482356
430.000000	0.482208
431.000000	0.483372
432.000000	0.484234
433.000000	0.484635
434.000000	0.485206
435.000000	0.485138
436.000000	0.485247
437.000000	0.486161
438.000000	0.486490
439.000000	0.486621
440.000000	0.487013
441.000000	0.487502
442.000000	0.487807
443.000000	0.487907
444.000000	0.488304
445.000000	0.488222
446.000000	0.488343
447.000000	0.489133
448.000000	0.489310
449.000000	0.489296
450.000000	0.489577
451.000000	0.490279
452.000000	0.490818
453.000000	0.491014
454.000000	0.491587
455.000000	0.491924
456.000000	0.492230
457.000000	0.492665
458.000000	0.493192
459.000000	0.493647
460.000000	0.493970
461.000000	0.494066
462.000000	0.494500
463.000000	0.495109
464.000000	0.495447
465.000000	0.495681
466.000000	0.495887
467.000000	0.496383
468.000000	0.496463
469.000000	0.496530
470.000000	0.497345
471.000000	0.497292
472.000000	0.497180
473.000000	0.497616
474.000000	0.497897
475.000000	0.497929
476.000000	0.498080
477.000000	0.498612
478.000000	0.498784
479.000000	0.498829
480.000000	0.498711
481.000000	0.498840
482.000000	0.499225
483.000000	0.499405
484.000000	0.499778
485.000000	0.500029
486.000000	0.500356
487.000000	0.500813
488.000000	0.501117
489.000000	0.501314
490.000000	0.501623
491.000000	0.502078
492.000000	0.502593
493.000000	0.502819
494.000000	0.503118
495.000000	0.503504
496.000000	0.503874
497.000000	0.504273
498.000000	0.504683
499.000000	0.505173
500.000000	0.505533
501.000000	0.505823
502.000000	0.506168
503.000000	0.506553
504.000000	0.506982
505.000000	0.507323
506.000000	0.507522
507.000000	0.507918
508.000000	0.508375
509.000000	0.508741
510.000000	0.509146
511.000000	0.509529
512.000000	0.509940
513.000000	0.510412
514.000000	0.510778
515.000000	0.511162
516.000000	0.511609
517.000000	0.511796
518.000000	0.511929
519.000000	0.512061
520.000000	0.512279
521.000000	0.512652
522.000000	0.513128
523.000000	0.513434
524.000000	0.513746
525.000000	0.514040
526.000000	0.514290
527.000000	0.514578
528.000000	0.514847
529.000000	0.515125
530.000000	0.515410
531.000000	0.515708
532.000000	0.515907
533.000000	0.516296
534.000000	0.516519
535.000000	0.516590
536.000000	0.516992
537.000000	0.517428
538.000000	0.517773
539.000000	0.517957
540.000000	0.518311
541.000000	0.518675
542.000000	0.518955
543.000000	0.519326
544.000000	0.519755
545.000000	0.520103
546.000000	0.520494
547.000000	0.520885
548.000000	0.521277
549.000000	0.521522
550.000000	0.521920
551.000000	0.522383
552.000000	0.522647
553.000000	0.522951
554.000000	0.523316
555.000000	0.523729
556.000000	0.524138
557.000000	0.524449
558.000000	0.524856
559.000000	0.525235
560.000000	0.525538
561.000000	0.525899
562.000000	0.526258
563.000000	0.526514
564.000000	0.526766
565.000000	0.526949
566.000000	0.527242
567.000000	0.527578
568.000000	0.527863
569.000000	0.528103
570.000000	0.528415
571.000000	0.528774
572.000000	0.529067
573.000000	0.529394
574.000000	0.529688
575.000000	0.529937
576.000000	0.530129
577.000000	0.530292
578.000000	0.530566
579.000000	0.530867
580.000000	0.531164
581.000000	0.531440
582.000000	0.531699
583.000000	0.531958
584.000000	0.532237
585.000000	0.532560
586.000000	0.532828
587.000000	0.533075
588.000000	0.533362
589.000000	0.533693
590.000000	0.533977
591.000000	0.534168
592.000000	0.534337
593.000000	0.534545
594.000000	0.534766
595.000000	0.534884
596.000000	0.535153
597.000000	0.535545
598.000000	0.535739
599.000000	0.535785
600.000000	0.535938
601.000000	0.536232
602.000000	0.536479
603.000000	0.536669
604.000000	0.536856
605.000000	0.537167
606.000000	0.537342
607.000000	0.537424
608.000000	0.537646
609.000000	0.537884
610.000000	0.538067
611.000000	0.538157
612.000000	0.538277
613.000000	0.538421
614.000000	0.538616
615.000000	0.538714
616.000000	0.538804
617.000000	0.538910
618.000000	0.539187
619.000000	0.539416
620.000000	0.539519
621.000000	0.539598
622.000000	0.539725
623.000000	0.539822
624.000000	0.539832
625.000000	0.539914
626.000000	0.539993
627.000000	0.540028
628.000000	0.540003
629.000000	0.540149
630.000000	0.540223
631.000000	0.540239
632.000000	0.540296
633.000000	0.540442
634.000000	0.540655
635.000000	0.540851
636.000000	0.541057
637.000000	0.541246
638.000000	0.541367
639.000000	0.541499
640.000000	0.541698
641.000000	0.541696
642.000000	0.541753
643.000000	0.541878
644.000000	0.542001
645.000000	0.542054
646.000000	0.542135
647.000000	0.542263
648.000000	0.542384
649.000000	0.542498
650.000000	0.542612
651.000000	0.542862
652.000000	0.542994
653.000000	0.543081
654.000000	0.543181
655.000000	0.543237
656.000000	0.543305
657.000000	0.543354
658.000000	0.543505
659.000000	0.543667
660.000000	0.543769
661.000000	0.543897
662.000000	0.543946
663.000000	0.544032
664.000000	0.544211
665.000000	0.544396
666.000000	0.544559
667.000000	0.544647
668.000000	0.544761
669.000000	0.544861
670.000000	0.544938
671.000000	0.545023
672.000000	0.545158
673.000000	0.545303
674.000000	0.545383
675.000000	0.545468
676.000000	0.545594
677.000000	0.545808
678.000000	0.546040
679.000000	0.546227
680.000000	0.546346
681.000000	0.546377
682.000000	0.546500
683.000000	0.546636
684.000000	0.546850
685.000000	0.546988
686.000000	0.547093
687.000000	0.547179
688.000000	0.547242
689.000000	0.547349
690.000000	0.547579
691.000000	0.547766
692.000000	0.547851
693.000000	0.547960
694.000000	0.548118
695.000000	0.548284
696.000000	0.548460
697.000000	0.548661
698.000000	0.548829
699.000000	0.548999
700.000000	0.549197
701.000000	0.549311
702.000000	0.549403
703.000000	0.549463
704.000000	0.549470
705.000000	0.549546
706.000000	0.549625
707.000000	0.549727
708.000000	0.549842
709.000000	0.549976
710.000000	0.550163
711.000000	0.550327
712.000000	0.550482
713.000000	0.550677
714.000000	0.550918
715.000000	0.551069
716.000000	0.551171
717.000000	0.551292
718.000000	0.551326
719.000000	0.551279
720.000000	0.551224
721.000000	0.551266
722.000000	0.551270
723.000000	0.551284
724.000000	0.551272
725.000000	0.551327
726.000000	0.551538
727.000000	0.551683
728.000000	0.551826
729.000000	0.551971
730.000000	0.552029
731.000000	0.552119
732.000000	0.552160
733.000000	0.552192
734.000000	0.552192
735.000000	0.552176
736.000000	0.552301
737.000000	0.552328
738.000000	0.552311
739.000000	0.552380
740.000000	0.552332
741.000000	0.552347
742.000000	0.552364
743.000000	0.552340
744.000000	0.552401
745.000000	0.552470
746.000000	0.552550
747.000000	0.552508
748.000000	0.552549
749.000000	0.552645
750.000000	0.552700
751.000000	0.552750
752.000000	0.552767
753.000000	0.552784
754.000000	0.552838
755.000000	0.552962
756.000000	0.553105
757.000000	0.553141
758.000000	0.553265
759.000000	0.553411
760.000000	0.553439
761.000000	0.553594
762.000000	0.553706
763.000000	0.553718
764.000000	0.553781
765.000000	0.553812
766.000000	0.553844
767.000000	0.553910
768.000000	0.554046
769.000000	0.554169
770.000000	0.554260
771.000000	0.554371
772.000000	0.554500
773.000000	0.554515
774.000000	0.554495
775.000000	0.554593
776.000000	0.554653
777.000000	0.554568
778.000000	0.554621
779.000000	0.554728
780.000000	0.554847
781.000000	0.554927
782.000000	0.555000
783.000000	0.555138
784.000000	0.555111
785.000000	0.555117
786.000000	0.555131
787.000000	0.555123
788.000000	0.555116
789.000000	0.555133
790.000000	0.555118
791.000000	0.555069
792.000000	0.555060
793.000000	0.555107
794.000000	0.555187
795.000000	0.555151
796.000000	0.555153
797.000000	0.555207
798.000000	0.555198
799.000000	0.555289
800.000000	0.555379
801.000000	0.555334
802.000000	0.555269
803.000000	0.555266
804.000000	0.555356
805.000000	0.555245
806.000000	0.555029
807.000000	0.554918
808.000000	0.554891
809.000000	0.554764
810.000000	0.554672
811.000000	0.554695
812.000000	0.554698
813.000000	0.554738
814.000000	0.554818
815.000000	0.554933
816.000000	0.554926
817.000000	0.554903
818.000000	0.554853
819.000000	0.554832
820.000000	0.554843
821.000000	0.554781
822.000000	0.554645
823.000000	0.554674
824.000000	0.554712
825.000000	0.554696
826.000000	0.554641
827.000000	0.554563
828.000000	0.554540
829.000000	0.554506
830.000000	0.554412
831.000000	0.554373
832.000000	0.554291
833.000000	0.554263
834.000000	0.554253
835.000000	0.554258
836.000000	0.554195
837.000000	0.554136
838.000000	0.554103
839.000000	0.554000
840.000000	0.553899
841.000000	0.553839
842.000000	0.553774
843.000000	0.553755
844.000000	0.553709
845.000000	0.553617
846.000000	0.553662
847.000000	0.553666
848.000000	0.553600
849.000000	0.553541
850.000000	0.553468
851.000000	0.553401
852.000000	0.553414
853.000000	0.553460
854.000000	0.553355
855.000000	0.553299
856.000000	0.553229
857.000000	0.552930
858.000000	0.552844
859.000000	0.552920
860.000000	0.552664
861.000000	0.552475
862.000000	0.552468
863.000000	0.552479
864.000000	0.552293
865.000000	0.552168
866.000000	0.552214
867.000000	0.552037
868.000000	0.551951
869.000000	0.551862
870.000000	0.551743
871.000000	0.551589
872.000000	0.551584
873.000000	0.551679
874.000000	0.551741
875.000000	0.551720
876.000000	0.551680
877.000000	0.551598
878.000000	0.551403
879.000000	0.551162
880.000000	0.550755
881.000000	0.550604
882.000000	0.550422
883.000000	0.550231
884.000000	0.550042
885.000000	0.549875
886.000000	0.549574
887.000000	0.549173
888.000000	0.548921
889.000000	0.548727
890.000000	0.548460
891.000000	0.548363
892.000000	0.548264
893.000000	0.548108
894.000000	0.548089
895.000000	0.548085
896.000000	0.547845
897.000000	0.547498
898.000000	0.547296
899.000000	0.547227
900.000000	0.547203
901.000000	0.547107
902.000000	0.547032
903.000000	0.546727
904.000000	0.546444
905.000000	0.546332
906.000000	0.546514
907.000000	0.546524
908.000000	0.546377
909.000000	0.546302
910.000000	0.546138
911.000000	0.545917
912.000000	0.545740
913.000000	0.545652
914.000000	0.545590
915.000000	0.545565
916.000000	0.545363
917.000000	0.545162
918.000000	0.544994
919.000000	0.544803
920.000000	0.544548
921.000000	0.544270
922.000000	0.544047
923.000000	0.543911
924.000000	0.543846
925.000000	0.543635
926.000000	0.543279
927.000000	0.542967
928.000000	0.542635
929.000000	0.542323
930.000000	0.542082
931.000000	0.541826
932.000000	0.541575
933.000000	0.541387
934.000000	0.541163
935.000000	0.540729
936.000000	0.540394
937.000000	0.540210
938.000000	0.539888
939.000000	0.539694
940.000000	0.539410
941.000000	0.538861
942.000000	0.538322
943.000000	0.537973
944.000000	0.537550
945.000000	0.536793
946.000000	0.535917
947.000000	0.535256
948.000000	0.534964
949.000000	0.534869
950.000000	0.534885
951.000000	0.534878
952.000000	0.534888
953.000000	0.534868
954.000000	0.534867
955.000000	0.534793
956.000000	0.534661
957.000000	0.534527
958.000000	0.534255
959.000000	0.533915
960.000000	0.533786
961.000000	0.533504
962.000000	0.533132
963.000000	0.533361
964.000000	0.533322
965.000000	0.533066
966.000000	0.532614
967.000000	0.532152
968.000000	0.531889
969.000000	0.531725
970.000000	0.531619
971.000000	0.531443
972.000000	0.531207
973.000000	0.530906
974.000000	0.530829
975.000000	0.530803
976.000000	0.530667
977.000000	0.530399
978.000000	0.530418
979.000000	0.530264
980.000000	0.529893
981.000000	0.530146
982.000000	0.529943
983.000000	0.529650
984.000000	0.529505
985.000000	0.529237
986.000000	0.529192
987.000000	0.529218
988.000000	0.528944
989.000000	0.528454
990.000000	0.528313
991.000000	0.528233
992.000000	0.527907
993.000000	0.528125
994.000000	0.527781
995.000000	0.527294
996.000000	0.527422
997.000000	0.527535
998.000000	0.527430
999.000000	0.527335
1000.000000	0.527549
1001.000000	0.527655
1002.000000	0.527736
1003.000000	0.526924
1004.000000	0.526389
1005.000000	0.525558
1006.000000	0.525207
1007.000000	0.524918
1008.000000	0.525383
1009.000000	0.525582
1010.000000	0.524354
1011.000000	0.524333
1012.000000	0.524994
1013.000000	0.524894
1014.000000	0.525943
1015.000000	0.526191
1016.000000	0.525158
1017.000000	0.524701
1018.000000	0.524611
1019.000000	0.524699
1020.000000	0.525614
1021.000000	0.525007
1022.000000	0.523871
1023.000000	0.523896
1024.000000	0.523321
1025.000000	0.523576
1026.000000	0.524451
1027.000000	0.525170
1028.000000	0.525248
1029.000000	0.524622
1030.000000	0.523948
1031.000000	0.523435
1032.000000	0.523086
1033.000000	0.523068
1034.000000	0.523298
1035.000000	0.524494
1036.000000	0.524739
1037.000000	0.524595
1038.000000	0.524453
1039.000000	0.524029
1040.000000	0.523918
1041.000000	0.524639
1042.000000	0.525074
1043.000000	0.525441
1044.000000	0.525741
1045.000000	0.524969
1046.000000	0.524764
1047.000000	0.524985
1048.000000	0.525445
1049.000000	0.525651
1050.000000	0.526455
1051.000000	0.526643
1052.000000	0.526028
1053.000000	0.525882
1054.000000	0.526086
1055.000000	0.526264
1056.000000	0.526446
1057.000000	0.527352
1058.000000	0.527355
1059.000000	0.526793
1060.000000	0.526586
1061.000000	0.526551
1062.000000	0.526877
1063.000000	0.527324
1064.000000	0.527686
1065.000000	0.527898
1066.000000	0.528165
1067.000000	0.528405
1068.000000	0.528670
1069.000000	0.528978
1070.000000	0.529024
1071.000000	0.528985
1072.000000	0.529026
1073.000000	0.528931
1074.000000	0.529078
1075.000000	0.529166
1076.000000	0.529150
1077.000000	0.529189
1078.000000	0.529195
1079.000000	0.529352
1080.000000	0.529792
1081.000000	0.530183
1082.000000	0.531023
1083.000000	0.531056
1084.000000	0.530643
1085.000000	0.530685
1086.000000	0.530145
1087.000000	0.530267
1088.000000	0.531271
1089.000000	0.531599
1090.000000	0.531619
1091.000000	0.531720
1092.000000	0.531627
1093.000000	0.531937
1094.000000	0.532134
1095.000000	0.532459
1096.000000	0.532619
1097.000000	0.532680
1098.000000	0.532790
1099.000000	0.532769
1100.000000	0.532929
1101.000000	0.533013
1102.000000	0.533143
1103.000000	0.533308
1104.000000	0.533617
1105.000000	0.534238
1106.000000	0.534471
1107.000000	0.534354
1108.000000	0.534409
1109.000000	0.534469
1110.000000	0.534372
1111.000000	0.534513
1112.000000	0.535039
1113.000000	0.535171
1114.000000	0.535034
1115.000000	0.535245
1116.000000	0.535592
1117.000000	0.535772
1118.000000	0.536095
1119.000000	0.536169
1120.000000	0.535889
1121.000000	0.535852
1122.000000	0.536199
1123.000000	0.536496
1124.000000	0.536380
1125.000000	0.536400
1126.000000	0.536064
1127.000000	0.535932
1128.000000	0.535907
1129.000000	0.536131
1130.000000	0.536238
1131.000000	0.536527
1132.000000	0.536463
1133.000000	0.536381
1134.000000	0.536194
1135.000000	0.535562
1136.000000	0.535313
1137.000000	0.535219
1138.000000	0.534961
1139.000000	0.535008
1140.000000	0.534951
1141.000000	0.534457
1142.000000	0.534337
1143.000000	0.534443
1144.000000	0.534497
1145.000000	0.534453
1146.000000	0.534138
1147.000000	0.533940
1148.000000	0.533321
1149.000000	0.533170
1150.000000	0.533352
1151.000000	0.533380
1152.000000	0.533303
1153.000000	0.533394
1154.000000	0.533465
1155.000000	0.533521
1156.000000	0.533800
1157.000000	0.533865
1158.000000	0.533589
1159.000000	0.533560
1160.000000	0.533573
1161.000000	0.533553
1162.000000	0.533665
1163.000000	0.534066
1164.000000	0.534258
1165.000000	0.534223
1166.000000	0.534332
1167.000000	0.534444
1168.000000	0.534390
1169.000000	0.534247
1170.000000	0.534263
1171.000000	0.534357
1172.000000	0.534424
1173.000000	0.534570
1174.000000	0.534605
1175.000000	0.534506
1176.000000	0.534310
1177.000000	0.534027
1178.000000	0.533966
1179.000000	0.534001
1180.000000	0.533869
1181.000000	0.533961
1182.000000	0.534054
1183.000000	0.533836
1184.000000	0.533803
1185.000000	0.533722
1186.000000	0.533636
1187.000000	0.533552
1188.000000	0.533460
1189.000000	0.533360
1190.000000	0.533366
1191.000000	0.533277
1192.000000	0.533241
1193.000000	0.533457
1194.000000	0.533584
1195.000000	0.533714
1196.000000	0.533975
1197.000000	0.534026
1198.000000	0.533856
1199.000000	0.533848
1200.000000	0.533868
1201.000000	0.533829
1202.000000	0.533772
1203.000000	0.533751
1204.000000	0.533761
1205.000000	0.533755
1206.000000	0.533732
1207.000000	0.533959
1208.000000	0.534024
1209.000000	0.534138
1210.000000	0.534127
1211.000000	0.534053
1212.000000	0.533968
1213.000000	0.533792
1214.000000	0.533795
1215.000000	0.533860
1216.000000	0.533907
1217.000000	0.533985
1218.000000	0.534004
1219.000000	0.533992
1220.000000	0.534172
1221.000000	0.534248
1222.000000	0.534173
1223.000000	0.534092
1224.000000	0.534039
1225.000000	0.533938
1226.000000	0.533814
1227.000000	0.533746
1228.000000	0.533787
1229.000000	0.533804
1230.000000	0.533940
1231.000000	0.533856
1232.000000	0.533864
1233.000000	0.533989
1234.000000	0.534002
1235.000000	0.534069
1236.000000	0.534070
1237.000000	0.534197
1238.000000	0.534354
1239.000000	0.534398
1240.000000	0.534470
1241.000000	0.534516
1242.000000	0.534344
1243.000000	0.534199
1244.000000	0.534121
1245.000000	0.533996
1246.000000	0.533875
1247.000000	0.533958
1248.000000	0.533913
1249.000000	0.533670
1250.000000	0.533619
1251.000000	0.533673
1252.000000	0.533592
1253.000000	0.533610
1254.000000	0.533639
1255.000000	0.533553
1256.000000	0.533451
1257.000000	0.533508
1258.000000	0.533523
1259.000000	0.533217
1260.000000	0.533238
1261.000000	0.533407
1262.000000	0.533419
1263.000000	0.533533
1264.000000	0.533523
1265.000000	0.533379
1266.000000	0.533257
1267.000000	0.533186
1268.000000	0.533059
1269.000000	0.532838
1270.000000	0.532763
1271.000000	0.532689
1272.000000	0.532712
1273.000000	0.532800
1274.000000	0.532693
1275.000000	0.532657
1276.000000	0.532669
1277.000000	0.532743
1278.000000	0.532760
1279.000000	0.532684
1280.000000	0.532382
1281.000000	0.532169
1282.000000	0.531976
1283.000000	0.532008
1284.000000	0.532158
1285.000000	0.532178
1286.000000	0.532149
1287.000000	0.532192
1288.000000	0.532128
1289.000000	0.531893
1290.000000	0.531716
1291.000000	0.531520
1292.000000	0.531315
1293.000000	0.531243
1294.000000	0.531247
1295.000000	0.531189
1296.000000	0.531052
1297.000000	0.531001
1298.000000	0.530997
1299.000000	0.530934
1300.000000	0.530947
1301.000000	0.530903
1302.000000	0.530701
1303.000000	0.530457
1304.000000	0.530317
1305.000000	0.530333
1306.000000	0.530252
1307.000000	0.530334
1308.000000	0.530352
1309.000000	0.530239
1310.000000	0.530183
1311.000000	0.530283
1312.000000	0.530095
1313.000000	0.529829
1314.000000	0.529797
1315.000000	0.529630
1316.000000	0.529533
1317.000000	0.529402
1318.000000	0.529190
1319.000000	0.528870
1320.000000	0.528373
1321.000000	0.528079
1322.000000	0.527828
1323.000000	0.527493
1324.000000	0.527437
1325.000000	0.527233
1326.000000	0.526852
1327.000000	0.526594
1328.000000	0.526310
1329.000000	0.525872
1330.000000	0.525358
1331.000000	0.525027
1332.000000	0.524745
1333.000000	0.524383
1334.000000	0.524214
1335.000000	0.523974
1336.000000	0.523649
1337.000000	0.523334
1338.000000	0.522979
1339.000000	0.522601
1340.000000	0.522097
1341.000000	0.521596
1342.000000	0.521196
1343.000000	0.520772
1344.000000	0.520546
1345.000000	0.520313
1346.000000	0.520108
1347.000000	0.519869
1348.000000	0.519631
1349.000000	0.519197
1350.000000	0.518891
1351.000000	0.518589
1352.000000	0.518136
1353.000000	0.517777
1354.000000	0.517544
1355.000000	0.517172
1356.000000	0.516813
1357.000000	0.516408
1358.000000	0.515848
1359.000000	0.515329
1360.000000	0.514889
1361.000000	0.514649
1362.000000	0.514178
1363.000000	0.513644
1364.000000	0.513104
1365.000000	0.512423
1366.000000	0.511777
1367.000000	0.511163
1368.000000	0.510399
1369.000000	0.509719
1370.000000	0.508632
1371.000000	0.507409
1372.000000	0.506071
1373.000000	0.504369
1374.000000	0.502612
1375.000000	0.500586
1376.000000	0.498205
1377.000000	0.495486
1378.000000	0.492028
1379.000000	0.487613
1380.000000	0.482465
1381.000000	0.476531
1382.000000	0.470118
1383.000000	0.463516
1384.000000	0.456706
1385.000000	0.450248
1386.000000	0.444102
1387.000000	0.438519
1388.000000	0.434090
1389.000000	0.430545
1390.000000	0.428132
1391.000000	0.426896
1392.000000	0.426485
1393.000000	0.426614
1394.000000	0.427964
1395.000000	0.428956
1396.000000	0.430550
1397.000000	0.431381
1398.000000	0.432091
1399.000000	0.432249
1400.000000	0.431975
1401.000000	0.431311
1402.000000	0.430309
1403.000000	0.428894
1404.000000	0.427348
1405.000000	0.425741
1406.000000	0.424250
1407.000000	0.422893
1408.000000	0.421467
1409.000000	0.420278
1410.000000	0.419338
1411.000000	0.418322
1412.000000	0.417580
1413.000000	0.417101
1414.000000	0.416632
1415.000000	0.416453
1416.000000	0.416473
1417.000000	0.416595
1418.000000	0.416709
1419.000000	0.416918
1420.000000	0.417055
1421.000000	0.417322
1422.000000	0.417757
1423.000000	0.418353
1424.000000	0.418965
1425.000000	0.419606
1426.000000	0.420189
1427.000000	0.420756
1428.000000	0.421312
1429.000000	0.421817
1430.000000	0.422365
1431.000000	0.423031
1432.000000	0.423626
1433.000000	0.424336
1434.000000	0.424875
1435.000000	0.425420
1436.000000	0.425854
1437.000000	0.426137
1438.000000	0.426490
1439.000000	0.426939
1440.000000	0.427290
1441.000000	0.427649
1442.000000	0.427935
1443.000000	0.428018
1444.000000	0.428170
1445.000000	0.428385
1446.000000	0.428529
1447.000000	0.428660
1448.000000	0.428746
1449.000000	0.428635
1450.000000	0.428519
1451.000000	0.428507
1452.000000	0.428393
1453.000000	0.428306
1454.000000	0.428257
1455.000000	0.428195
1456.000000	0.428177
1457.000000	0.428237
1458.000000	0.428387
1459.000000	0.428501
1460.000000	0.428467
1461.000000	0.428411
1462.000000	0.428509
1463.000000	0.428597
1464.000000	0.428850
1465.000000	0.429404
1466.000000	0.429867
1467.000000	0.430279
1468.000000	0.430878
1469.000000	0.431570
1470.000000	0.432131
1471.000000	0.432843
1472.000000	0.433599
1473.000000	0.434345
1474.000000	0.435006
1475.000000	0.435698
1476.000000	0.436446
1477.000000	0.437177
1478.000000	0.437981
1479.000000	0.438806
1480.000000	0.439686
1481.000000	0.440510
1482.000000	0.441385
1483.000000	0.442216
1484.000000	0.443002
1485.000000	0.443827
1486.000000	0.444645
1487.000000	0.445459
1488.000000	0.446371
1489.000000	0.447174
1490.000000	0.447642
1491.000000	0.448374
1492.000000	0.449094
1493.000000	0.449872
1494.000000	0.450849
1495.000000	0.451562
1496.000000	0.452105
1497.000000	0.452716
1498.000000	0.453272
1499.000000	0.453797
1500.000000	0.454411
1501.000000	0.455083
1502.000000	0.455709
1503.000000	0.456352
1504.000000	0.456999
1505.000000	0.457657
1506.000000	0.458250
1507.000000	0.458850
1508.000000	0.459559
1509.000000	0.460104
1510.000000	0.460504
1511.000000	0.460953
1512.000000	0.461322
1513.000000	0.461740
1514.000000	0.462453
1515.000000	0.463042
1516.000000	0.463491
1517.000000	0.463988
1518.000000	0.464334
1519.000000	0.464546
1520.000000	0.465003
1521.000000	0.465338
1522.000000	0.465673
1523.000000	0.466197
1524.000000	0.466556
1525.000000	0.467029
1526.000000	0.467514
1527.000000	0.467858
1528.000000	0.468262
1529.000000	0.468599
1530.000000	0.468897
1531.000000	0.469372
1532.000000	0.469705
1533.000000	0.469903
1534.000000	0.470191
1535.000000	0.470486
1536.000000	0.470749
1537.000000	0.471272
1538.000000	0.471708
1539.000000	0.471864
1540.000000	0.472180
1541.000000	0.472618
1542.000000	0.473053
1543.000000	0.473421
1544.000000	0.473674
1545.000000	0.473967
1546.000000	0.474139
1547.000000	0.474326
1548.000000	0.474658
1549.000000	0.474798
1550.000000	0.474897
1551.000000	0.475113
1552.000000	0.475273
1553.000000	0.475481
1554.000000	0.475704
1555.000000	0.475869
1556.000000	0.476093
1557.000000	0.476259
1558.000000	0.476411
1559.000000	0.476463
1560.000000	0.476550
1561.000000	0.476651
1562.000000	0.476730
1563.000000	0.476869
1564.000000	0.477020
1565.000000	0.477186
1566.000000	0.477165
1567.000000	0.477214
1568.000000	0.477337
1569.000000	0.477491
1570.000000	0.477636
1571.000000	0.477872
1572.000000	0.477957
1573.000000	0.477924
1574.000000	0.477993
1575.000000	0.478123
1576.000000	0.478249
1577.000000	0.478386
1578.000000	0.478417
1579.000000	0.478444
1580.000000	0.478526
1581.000000	0.478657
1582.000000	0.478815
1583.000000	0.479105
1584.000000	0.479131
1585.000000	0.479198
1586.000000	0.479228
1587.000000	0.479026
1588.000000	0.479033
1589.000000	0.479184
1590.000000	0.479232
1591.000000	0.479263
1592.000000	0.479441
1593.000000	0.479769
1594.000000	0.479916
1595.000000	0.480223
1596.000000	0.480364
1597.000000	0.480257
1598.000000	0.480297
1599.000000	0.480482
1600.000000	0.480513
1601.000000	0.480592
1602.000000	0.480691
1603.000000	0.480784
1604.000000	0.480807
1605.000000	0.480920
1606.000000	0.480951
1607.000000	0.480881
1608.000000	0.480958
1609.000000	0.481230
1610.000000	0.481319
1611.000000	0.481442
1612.000000	0.481505
1613.000000	0.481544
1614.000000	0.481643
1615.000000	0.481880
1616.000000	0.482121
1617.000000	0.482417
1618.000000	0.482521
1619.000000	0.482419
1620.000000	0.482489
1621.000000	0.482516
1622.000000	0.482756
1623.000000	0.483233
1624.000000	0.483487
1625.000000	0.483466
1626.000000	0.483527
1627.000000	0.483555
1628.000000	0.483718
1629.000000	0.483973
1630.000000	0.484233
1631.000000	0.484440
1632.000000	0.484618
1633.000000	0.484852
1634.000000	0.484985
1635.000000	0.485119
1636.000000	0.485196
1637.000000	0.485227
1638.000000	0.485249
1639.000000	0.485274
1640.000000	0.485367
1641.000000	0.485608
1642.000000	0.485755
1643.000000	0.485939
1644.000000	0.486187
1645.000000	0.486424
1646.000000	0.486535
1647.000000	0.486814
1648.000000	0.486819
1649.000000	0.486696
1650.000000	0.486728
1651.000000	0.486765
1652.000000	0.486843
1653.000000	0.486882
1654.000000	0.487029
1655.000000	0.487210
1656.000000	0.487122
1657.000000	0.487062
1658.000000	0.487075
1659.000000	0.487104
1660.000000	0.487222
1661.000000	0.487338
1662.000000	0.487531
1663.000000	0.487715
1664.000000	0.487819
1665.000000	0.487981
1666.000000	0.488260
1667.000000	0.488284
1668.000000	0.488523
1669.000000	0.489074
1670.000000	0.489148
1671.000000	0.489177
1672.000000	0.489312
1673.000000	0.489218
1674.000000	0.489391
1675.000000	0.489626
1676.000000	0.489703
1677.000000	0.489783
1678.000000	0.489781
1679.000000	0.489697
1680.000000	0.489680
1681.000000	0.489801
1682.000000	0.489923
1683.000000	0.490075
1684.000000	0.490203
1685.000000	0.490237
1686.000000	0.490159
1687.000000	0.490164
1688.000000	0.490110
1689.000000	0.490029
1690.000000	0.490127
1691.000000	0.490314
1692.000000	0.490267
1693.000000	0.490213
1694.000000	0.489968
1695.000000	0.489744
1696.000000	0.489841
1697.000000	0.489717
1698.000000	0.489639
1699.000000	0.489631
1700.000000	0.489502
1701.000000	0.489540
1702.000000	0.489450
1703.000000	0.489392
1704.000000	0.489626
1705.000000	0.489584
1706.000000	0.489398
1707.000000	0.489403
1708.000000	0.489251
1709.000000	0.489115
1710.000000	0.489377
1711.000000	0.489509
1712.000000	0.489566
1713.000000	0.489583
1714.000000	0.489653
1715.000000	0.489723
1716.000000	0.489847
1717.000000	0.489763
1718.000000	0.489417
1719.000000	0.489347
1720.000000	0.489330
1721.000000	0.489329
1722.000000	0.489717
1723.000000	0.489721
1724.000000	0.489378
1725.000000	0.489343
1726.000000	0.489252
1727.000000	0.489122
1728.000000	0.488938
1729.000000	0.488814
1730.000000	0.488882
1731.000000	0.488809
1732.000000	0.488893
1733.000000	0.488850
1734.000000	0.488280
1735.000000	0.488204
1736.000000	0.488341
1737.000000	0.488278
1738.000000	0.488316
1739.000000	0.488349
1740.000000	0.488304
1741.000000	0.488077
1742.000000	0.487863
1743.000000	0.487757
1744.000000	0.487423
1745.000000	0.487234
1746.000000	0.487276
1747.000000	0.487095
1748.000000	0.486814
1749.000000	0.486518
1750.000000	0.486256
1751.000000	0.486082
1752.000000	0.486093
1753.000000	0.486176
1754.000000	0.486110
1755.000000	0.485937
1756.000000	0.485711
1757.000000	0.485273
1758.000000	0.485032
1759.000000	0.484862
1760.000000	0.484676
1761.000000	0.484505
1762.000000	0.484348
1763.000000	0.484214
1764.000000	0.484079
1765.000000	0.483922
1766.000000	0.483836
1767.000000	0.483644
1768.000000	0.483443
1769.000000	0.483469
1770.000000	0.483411
1771.000000	0.483212
1772.000000	0.483054
1773.000000	0.482758
1774.000000	0.482651
1775.000000	0.482766
1776.000000	0.482719
1777.000000	0.482602
1778.000000	0.482561
1779.000000	0.482436
1780.000000	0.482415
1781.000000	0.482543
1782.000000	0.482484
1783.000000	0.482373
1784.000000	0.482325
1785.000000	0.482096
1786.000000	0.482130
1787.000000	0.482361
1788.000000	0.482402
1789.000000	0.482571
1790.000000	0.482425
1791.000000	0.482256
1792.000000	0.482164
1793.000000	0.482109
1794.000000	0.482107
1795.000000	0.482140
1796.000000	0.482221
1797.000000	0.482238
1798.000000	0.482235
1799.000000	0.482210
1800.000000	0.482154
1801.000000	0.482169
1802.000000	0.482335
1803.000000	0.482095
1804.000000	0.482185
1805.000000	0.482686
1806.000000	0.482830
1807.000000	0.482991
1808.000000	0.482806
1809.000000	0.482244
1810.000000	0.481841
1811.000000	0.481400
1812.000000	0.480660
1813.000000	0.480085
1814.000000	0.479548
1815.000000	0.479390
1816.000000	0.479233
1817.000000	0.479146
1818.000000	0.479643
1819.000000	0.480302
1820.000000	0.480229
1821.000000	0.479781
1822.000000	0.479371
1823.000000	0.478114
1824.000000	0.477616
1825.000000	0.477358
1826.000000	0.477343
1827.000000	0.477335
1828.000000	0.477886
1829.000000	0.478212
1830.000000	0.477714
1831.000000	0.477372
1832.000000	0.476543
1833.000000	0.475942
1834.000000	0.475352
1835.000000	0.475004
1836.000000	0.474616
1837.000000	0.474463
1838.000000	0.474689
1839.000000	0.474210
1840.000000	0.473868
1841.000000	0.473580
1842.000000	0.472936
1843.000000	0.471582
1844.000000	0.471145
1845.000000	0.470492
1846.000000	0.470422
1847.000000	0.471029
1848.000000	0.471485
1849.000000	0.471748
1850.000000	0.471492
1851.000000	0.470668
1852.000000	0.468736
1853.000000	0.467795
1854.000000	0.466675
1855.000000	0.465441
1856.000000	0.464152
1857.000000	0.463256
1858.000000	0.462456
1859.000000	0.460617
1860.000000	0.459517
1861.000000	0.457886
1862.000000	0.455771
1863.000000	0.453048
1864.000000	0.450840
1865.000000	0.448793
1866.000000	0.446218
1867.000000	0.443773
1868.000000	0.440218
1869.000000	0.436367
1870.000000	0.432287
1871.000000	0.428201
1872.000000	0.424216
1873.000000	0.420265
1874.000000	0.416605
1875.000000	0.412573
1876.000000	0.408330
1877.000000	0.403226
1878.000000	0.398237
1879.000000	0.391920
1880.000000	0.385503
1881.000000	0.379236
1882.000000	0.371829
1883.000000	0.364381
1884.000000	0.357158
1885.000000	0.349173
1886.000000	0.341781
1887.000000	0.335009
1888.000000	0.327703
1889.000000	0.319464
1890.000000	0.311535
1891.000000	0.303655
1892.000000	0.295444
1893.000000	0.287706
1894.000000	0.280725
1895.000000	0.273825
1896.000000	0.266943
1897.000000	0.260659
1898.000000	0.255460
1899.000000	0.250519
1900.000000	0.246505
1901.000000	0.243126
1902.000000	0.240002
1903.000000	0.237896
1904.000000	0.235614
1905.000000	0.233629
1906.000000	0.232171
1907.000000	0.231286
1908.000000	0.230438
1909.000000	0.229967
1910.000000	0.229686
1911.000000	0.230052
1912.000000	0.230942
1913.000000	0.231953
1914.000000	0.233401
1915.000000	0.235037
1916.000000	0.235892
1917.000000	0.236882
1918.000000	0.237970
1919.000000	0.239632
1920.000000	0.240121
1921.000000	0.241284
1922.000000	0.242757
1923.000000	0.243548
1924.000000	0.245334
1925.000000	0.246715
1926.000000	0.248166
1927.000000	0.250277
1928.000000	0.251694
1929.000000	0.252832
1930.000000	0.253987
1931.000000	0.254837
1932.000000	0.255594
1933.000000	0.256464
1934.000000	0.257163
1935.000000	0.257896
1936.000000	0.258247
1937.000000	0.258974
1938.000000	0.259910
1939.000000	0.260632
1940.000000	0.261256
1941.000000	0.262485
1942.000000	0.263585
1943.000000	0.264450
1944.000000	0.265833
1945.000000	0.266390
1946.000000	0.266660
1947.000000	0.267101
1948.000000	0.267007
1949.000000	0.267131
1950.000000	0.267430
1951.000000	0.267471
1952.000000	0.267303
1953.000000	0.267376
1954.000000	0.267945
1955.000000	0.268290
1956.000000	0.268817
1957.000000	0.269430
1958.000000	0.269664
1959.000000	0.270257
1960.000000	0.270687
1961.000000	0.271420
1962.000000	0.272102
1963.000000	0.273098
1964.000000	0.273508
1965.000000	0.273637
1966.000000	0.273796
1967.000000	0.274679
1968.000000	0.275641
1969.000000	0.276643
1970.000000	0.277785
1971.000000	0.278168
1972.000000	0.278632
1973.000000	0.279297
1974.000000	0.280478
1975.000000	0.281479
1976.000000	0.282654
1977.000000	0.283531
1978.000000	0.284290
1979.000000	0.285004
1980.000000	0.285821
1981.000000	0.286558
1982.000000	0.287834
1983.000000	0.289268
1984.000000	0.290480
1985.000000	0.292158
1986.000000	0.293232
1987.000000	0.293879
1988.000000	0.294614
1989.000000	0.295534
1990.000000	0.296137
1991.000000	0.296890
1992.000000	0.297906
1993.000000	0.298979
1994.000000	0.300181
1995.000000	0.301776
1996.000000	0.303052
1997.000000	0.304433
1998.000000	0.305949
1999.000000	0.307396
2000.000000	0.308782
2001.000000	0.310354
2002.000000	0.311669
2003.000000	0.312772
2004.000000	0.314226
2005.000000	0.315444
2006.000000	0.316640
2007.000000	0.318131
2008.000000	0.319266
2009.000000	0.320068
2010.000000	0.321177
2011.000000	0.321815
2012.000000	0.322845
2013.000000	0.324380
2014.000000	0.324981
2015.000000	0.326023
2016.000000	0.328090
2017.000000	0.329188
2018.000000	0.330880
2019.000000	0.332499
2020.000000	0.333395
2021.000000	0.334562
2022.000000	0.335689
2023.000000	0.336670
2024.000000	0.337398
2025.000000	0.338623
2026.000000	0.339722
2027.000000	0.341309
2028.000000	0.342782
2029.000000	0.344506
2030.000000	0.345834
2031.000000	0.346673
2032.000000	0.347867
2033.000000	0.348544
2034.000000	0.349268
2035.000000	0.349936
2036.000000	0.350651
2037.000000	0.351437
2038.000000	0.352448
2039.000000	0.353852
2040.000000	0.354947
2041.000000	0.355771
2042.000000	0.356402
2043.000000	0.356601
2044.000000	0.356976
2045.000000	0.357937
2046.000000	0.358748
2047.000000	0.359850
2048.000000	0.361361
2049.000000	0.362818
2050.000000	0.364104
2051.000000	0.365215
2052.000000	0.366238
2053.000000	0.366816
2054.000000	0.367381
2055.000000	0.367661
2056.000000	0.367878
2057.000000	0.368414
2058.000000	0.368887
2059.000000	0.369515
2060.000000	0.370094
2061.000000	0.370706
2062.000000	0.371349
2063.000000	0.372221
2064.000000	0.372618
2065.000000	0.373229
2066.000000	0.373463
2067.000000	0.373479
2068.000000	0.373716
2069.000000	0.374233
2070.000000	0.375111
2071.000000	0.376310
2072.000000	0.377426
2073.000000	0.378081
2074.000000	0.378356
2075.000000	0.378901
2076.000000	0.379250
2077.000000	0.379692
2078.000000	0.380371
2079.000000	0.380979
2080.000000	0.381448
2081.000000	0.381986
2082.000000	0.382701
2083.000000	0.383429
2084.000000	0.383841
2085.000000	0.384237
2086.000000	0.384718
2087.000000	0.384572
2088.000000	0.384377
2089.000000	0.385193
2090.000000	0.385828
2091.000000	0.386801
2092.000000	0.387778
2093.000000	0.388840
2094.000000	0.389796
2095.000000	0.391387
2096.000000	0.391998
2097.000000	0.391948
2098.000000	0.391833
2099.000000	0.391724
2100.000000	0.391493
2101.000000	0.392140
2102.000000	0.393825
2103.000000	0.395036
2104.000000	0.396179
2105.000000	0.396815
2106.000000	0.397034
2107.000000	0.397317
2108.000000	0.396824
2109.000000	0.397116
2110.000000	0.397458
2111.000000	0.398034
2112.000000	0.398945
2113.000000	0.399773
2114.000000	0.400494
2115.000000	0.400997
2116.000000	0.400847
2117.000000	0.400708
2118.000000	0.400910
2119.000000	0.401639
2120.000000	0.402021
2121.000000	0.402651
2122.000000	0.402927
2123.000000	0.402457
2124.000000	0.402614
2125.000000	0.403244
2126.000000	0.403695
2127.000000	0.404281
2128.000000	0.405198
2129.000000	0.406468
2130.000000	0.407003
2131.000000	0.406912
2132.000000	0.406720
2133.000000	0.406831
2134.000000	0.406912
2135.000000	0.407633
2136.000000	0.408996
2137.000000	0.409668
2138.000000	0.409861
2139.000000	0.410128
2140.000000	0.410266
2141.000000	0.410452
2142.000000	0.410408
2143.000000	0.410093
2144.000000	0.410043
2145.000000	0.410073
2146.000000	0.409832
2147.000000	0.410538
2148.000000	0.410847
2149.000000	0.410717
2150.000000	0.410364
2151.000000	0.409973
2152.000000	0.410644
2153.000000	0.411410
2154.000000	0.411309
2155.000000	0.410965
2156.000000	0.410758
2157.000000	0.409606
2158.000000	0.409306
2159.000000	0.410051
2160.000000	0.410506
2161.000000	0.410909
2162.000000	0.411387
2163.000000	0.412058
2164.000000	0.412096
2165.000000	0.411471
2166.000000	0.411408
2167.000000	0.411287
2168.000000	0.411054
2169.000000	0.411598
2170.000000	0.412708
2171.000000	0.413094
2172.000000	0.413455
2173.000000	0.413511
2174.000000	0.412710
2175.000000	0.412360
2176.000000	0.412100
2177.000000	0.412074
2178.000000	0.412324
2179.000000	0.413022
2180.000000	0.414179
2181.000000	0.415238
2182.000000	0.416138
2183.000000	0.416341
2184.000000	0.416231
2185.000000	0.415063
2186.000000	0.412956
2187.000000	0.411683
2188.000000	0.411475
2189.000000	0.410256
2190.000000	0.410374
2191.000000	0.412028
2192.000000	0.412249
2193.000000	0.412418
2194.000000	0.411738
2195.000000	0.409532
2196.000000	0.408789
2197.000000	0.407672
2198.000000	0.407219
2199.000000	0.408391
2200.000000	0.408505
2201.000000	0.408532
2202.000000	0.408569
2203.000000	0.407799
2204.000000	0.407832
2205.000000	0.408430
2206.000000	0.407937
2207.000000	0.405538
2208.000000	0.404342
2209.000000	0.403750
2210.000000	0.402296
2211.000000	0.402346
2212.000000	0.403312
2213.000000	0.404748
2214.000000	0.407384
2215.000000	0.407911
2216.000000	0.409131
2217.000000	0.408897
2218.000000	0.403965
2219.000000	0.402957
2220.000000	0.404574
2221.000000	0.404368
2222.000000	0.405444
2223.000000	0.405620
2224.000000	0.404434
2225.000000	0.403583
2226.000000	0.401464
2227.000000	0.398568
2228.000000	0.396687
2229.000000	0.394563
2230.000000	0.394657
2231.000000	0.398116
2232.000000	0.400688
2233.000000	0.402088
2234.000000	0.403977
2235.000000	0.402868
2236.000000	0.400814
2237.000000	0.395928
2238.000000	0.394554
2239.000000	0.392804
2240.000000	0.392658
2241.000000	0.395989
2242.000000	0.396340
2243.000000	0.395304
2244.000000	0.395154
2245.000000	0.395173
2246.000000	0.394783
2247.000000	0.392890
2248.000000	0.392848
2249.000000	0.393175
2250.000000	0.394582
2251.000000	0.396187
2252.000000	0.398124
2253.000000	0.400039
2254.000000	0.399054
2255.000000	0.397667
2256.000000	0.398132
2257.000000	0.397207
2258.000000	0.395798
2259.000000	0.394214
2260.000000	0.392156
2261.000000	0.389418
2262.000000	0.384753
2263.000000	0.382467
2264.000000	0.380149
2265.000000	0.379848
2266.000000	0.382049
2267.000000	0.382771
2268.000000	0.385869
2269.000000	0.384541
2270.000000	0.378930
2271.000000	0.376683
2272.000000	0.373494
2273.000000	0.371575
2274.000000	0.373343
2275.000000	0.372558
2276.000000	0.370356
2277.000000	0.367612
2278.000000	0.365057
2279.000000	0.361388
2280.000000	0.358086
2281.000000	0.355135
2282.000000	0.353026
2283.000000	0.350167
2284.000000	0.347503
2285.000000	0.345347
2286.000000	0.341782
2287.000000	0.340365
2288.000000	0.339537
2289.000000	0.336818
2290.000000	0.334258
2291.000000	0.331030
2292.000000	0.327075
2293.000000	0.324526
2294.000000	0.322347
2295.000000	0.321267
2296.000000	0.319165
2297.000000	0.316594
2298.000000	0.314982
2299.000000	0.313564
2300.000000	0.312307
2301.000000	0.312281
2302.000000	0.310876
2303.000000	0.308687
2304.000000	0.306330
2305.000000	0.304090
2306.000000	0.300902
2307.000000	0.297055
2308.000000	0.292130
2309.000000	0.287484
2310.000000	0.282424
2311.000000	0.278819
2312.000000	0.277973
2313.000000	0.277482
2314.000000	0.277479
2315.000000	0.278216
2316.000000	0.278546
2317.000000	0.280367
2318.000000	0.284791
2319.000000	0.289714
2320.000000	0.293857
2321.000000	0.297862
2322.000000	0.299333
2323.000000	0.299508
2324.000000	0.301075
2325.000000	0.302887
2326.000000	0.306418
2327.000000	0.308904
2328.000000	0.310621
2329.000000	0.313691
2330.000000	0.315464
2331.000000	0.318248
2332.000000	0.321777
2333.000000	0.321808
2334.000000	0.319815
2335.000000	0.320316
2336.000000	0.320666
2337.000000	0.321074
2338.000000	0.324212
2339.000000	0.325479
2340.000000	0.325343
2341.000000	0.324427
2342.000000	0.321250
2343.000000	0.319914
2344.000000	0.318264
2345.000000	0.318092
2346.000000	0.321599
2347.000000	0.322969
2348.000000	0.323979
2349.000000	0.323106
2350.000000	0.321653
2351.000000	0.319213
2352.000000	0.317339
2353.000000	0.316025
2354.000000	0.315565
2355.000000	0.316562
2356.000000	0.316763
2357.000000	0.314402
2358.000000	0.311651
2359.000000	0.309167
2360.000000	0.303409
2361.000000	0.303255
2362.000000	0.306270
2363.000000	0.304250
2364.000000	0.301881
2365.000000	0.299785
2366.000000	0.297264
2367.000000	0.296032
2368.000000	0.298753
2369.000000	0.302462
2370.000000	0.303216
2371.000000	0.301342
2372.000000	0.298077
2373.000000	0.294251
2374.000000	0.290363
2375.000000	0.292541
2376.000000	0.296293
2377.000000	0.295910
2378.000000	0.295512
2379.000000	0.288198
2380.000000	0.277418
2381.000000	0.271729
2382.000000	0.265679
2383.000000	0.264394
2384.000000	0.268729
2385.000000	0.271655
2386.000000	0.272292
2387.000000	0.272158
2388.000000	0.274381
2389.000000	0.272887
2390.000000	0.273374
2391.000000	0.275765
2392.000000	0.270737
2393.000000	0.269258
2394.000000	0.268084
2395.000000	0.265855
2396.000000	0.265473
2397.000000	0.260386
2398.000000	0.258250
2399.000000	0.256390
2400.000000	0.257241
2401.000000	0.265789
2402.000000	0.271298
2403.000000	0.274351
2404.000000	0.271844
2405.000000	0.261994
2406.000000	0.247857
2407.000000	0.241749
2408.000000	0.242842
2409.000000	0.248857
2410.000000	0.265943
2411.000000	0.273320
2412.000000	0.281149
2413.000000	0.290289
2414.000000	0.288112
2415.000000	0.281420
2416.000000	0.272164
2417.000000	0.268276
2418.000000	0.263151
2419.000000	0.266152
2420.000000	0.272863
2421.000000	0.262850
2422.000000	0.255837
2423.000000	0.253058
2424.000000	0.244718
2425.000000	0.246121
2426.000000	0.251045
2427.000000	0.245256
2428.000000	0.250180
2429.000000	0.256617
2430.000000	0.249898
2431.000000	0.253603
2432.000000	0.253353
2433.000000	0.242840
2434.000000	0.233260
2435.000000	0.224207
2436.000000	0.225812
2437.000000	0.230405
2438.000000	0.240679
2439.000000	0.253470
2440.000000	0.244074
2441.000000	0.237205
2442.000000	0.240620
2443.000000	0.230674
2444.000000	0.228877
2445.000000	0.226443
2446.000000	0.221927
2447.000000	0.228482
2448.000000	0.233669
2449.000000	0.239281
2450.000000	0.224392
2451.000000	0.211644
2452.000000	0.223603
2453.000000	0.226042
2454.000000	0.239855
2455.000000	0.260692
2456.000000	0.253765
2457.000000	0.244897
2458.000000	0.232695
2459.000000	0.209216
2460.000000	0.195811
2461.000000	0.187347
2462.000000	0.190981
2463.000000	0.207698
2464.000000	0.208326
2465.000000	0.215884
2466.000000	0.246365
2467.000000	0.239800
2468.000000	0.234870
2469.000000	0.233527
2470.000000	0.200764
2471.000000	0.199146
2472.000000	0.210000
2473.000000	0.209324
2474.000000	0.215217
2475.000000	0.210313
2476.000000	0.195140
2477.000000	0.211365
2478.000000	0.235748
2479.000000	0.233713
2480.000000	0.247560
2481.000000	0.228685
2482.000000	0.192390
2483.000000	0.198675
2484.000000	0.192608
2485.000000	0.189148
2486.000000	0.177922
2487.000000	0.156153
2488.000000	0.172962
2489.000000	0.198735
2490.000000	0.224717
2491.000000	0.203648
2492.000000	0.181352
2493.000000	0.131170
2494.000000	0.111370
2495.000000	0.119652
2496.000000	0.121338
2497.000000	0.140443
2498.000000	0.144322
2499.000000	0.146200
2500.000000	0.131049
