# Wavelength	SM1200H-30_HEX-30_FV7-40_00002.asd.rts.txt
350.000000	0.259829
351.000000	0.254990
352.000000	0.259555
353.000000	0.263357
354.000000	0.263316
355.000000	0.263520
356.000000	0.266655
357.000000	0.271654
358.000000	0.269635
359.000000	0.265427
360.000000	0.264491
361.000000	0.268875
362.000000	0.260691
363.000000	0.255721
364.000000	0.261193
365.000000	0.259300
366.000000	0.254328
367.000000	0.251856
368.000000	0.260654
369.000000	0.261152
370.000000	0.258472
371.000000	0.262756
372.000000	0.259752
373.000000	0.257026
374.000000	0.260091
375.000000	0.261971
376.000000	0.262777
377.000000	0.264267
378.000000	0.270793
379.000000	0.268816
380.000000	0.262882
381.000000	0.263404
382.000000	0.266272
383.000000	0.268700
384.000000	0.269992
385.000000	0.273969
386.000000	0.275692
387.000000	0.274538
388.000000	0.273810
389.000000	0.273594
390.000000	0.273048
391.000000	0.271061
392.000000	0.273431
393.000000	0.275722
394.000000	0.274688
395.000000	0.275212
396.000000	0.276450
397.000000	0.277424
398.000000	0.277010
399.000000	0.277291
400.000000	0.278172
401.000000	0.278513
402.000000	0.278717
403.000000	0.278755
404.000000	0.278837
405.000000	0.279581
406.000000	0.280609
407.000000	0.281375
408.000000	0.280770
409.000000	0.279892
410.000000	0.279898
411.000000	0.281968
412.000000	0.282570
413.000000	0.282455
414.000000	0.283051
415.000000	0.283242
416.000000	0.282986
417.000000	0.282715
418.000000	0.283873
419.000000	0.284956
420.000000	0.285409
421.000000	0.285359
422.000000	0.285160
423.000000	0.285209
424.000000	0.285866
425.000000	0.286260
426.000000	0.286322
427.000000	0.286249
428.000000	0.286844
429.000000	0.287204
430.000000	0.287174
431.000000	0.287560
432.000000	0.287829
433.000000	0.287957
434.000000	0.288250
435.000000	0.288717
436.000000	0.289059
437.000000	0.289061
438.000000	0.289298
439.000000	0.289641
440.000000	0.290004
441.000000	0.289969
442.000000	0.290314
443.000000	0.290885
444.000000	0.291059
445.000000	0.291109
446.000000	0.291230
447.000000	0.291381
448.000000	0.291676
449.000000	0.291929
450.000000	0.292072
451.000000	0.292402
452.000000	0.292737
453.000000	0.292972
454.000000	0.293362
455.000000	0.293512
456.000000	0.293706
457.000000	0.294238
458.000000	0.294306
459.000000	0.294481
460.000000	0.295231
461.000000	0.295251
462.000000	0.295373
463.000000	0.295790
464.000000	0.296101
465.000000	0.296287
466.000000	0.296426
467.000000	0.296846
468.000000	0.297228
469.000000	0.297289
470.000000	0.297096
471.000000	0.297354
472.000000	0.297730
473.000000	0.297995
474.000000	0.298364
475.000000	0.298368
476.000000	0.298268
477.000000	0.298773
478.000000	0.298964
479.000000	0.298999
480.000000	0.299055
481.000000	0.299409
482.000000	0.299906
483.000000	0.300127
484.000000	0.300390
485.000000	0.300490
486.000000	0.300602
487.000000	0.300953
488.000000	0.301175
489.000000	0.301349
490.000000	0.301829
491.000000	0.302159
492.000000	0.302430
493.000000	0.302684
494.000000	0.302797
495.000000	0.303085
496.000000	0.303590
497.000000	0.303694
498.000000	0.303829
499.000000	0.304233
500.000000	0.304744
501.000000	0.304955
502.000000	0.305004
503.000000	0.305182
504.000000	0.305430
505.000000	0.305751
506.000000	0.306114
507.000000	0.306234
508.000000	0.306506
509.000000	0.307021
510.000000	0.307408
511.000000	0.307560
512.000000	0.307648
513.000000	0.308041
514.000000	0.308359
515.000000	0.308694
516.000000	0.309155
517.000000	0.309341
518.000000	0.309592
519.000000	0.310042
520.000000	0.310312
521.000000	0.310559
522.000000	0.310877
523.000000	0.311272
524.000000	0.311513
525.000000	0.311658
526.000000	0.311988
527.000000	0.312409
528.000000	0.312775
529.000000	0.313033
530.000000	0.313327
531.000000	0.313602
532.000000	0.313767
533.000000	0.314114
534.000000	0.314432
535.000000	0.314638
536.000000	0.314808
537.000000	0.315016
538.000000	0.315292
539.000000	0.315613
540.000000	0.315812
541.000000	0.315989
542.000000	0.316289
543.000000	0.316621
544.000000	0.316910
545.000000	0.317089
546.000000	0.317392
547.000000	0.317713
548.000000	0.318041
549.000000	0.318313
550.000000	0.318644
551.000000	0.318962
552.000000	0.319117
553.000000	0.319395
554.000000	0.319729
555.000000	0.320045
556.000000	0.320344
557.000000	0.320632
558.000000	0.321029
559.000000	0.321377
560.000000	0.321692
561.000000	0.322057
562.000000	0.322412
563.000000	0.322661
564.000000	0.322971
565.000000	0.323381
566.000000	0.323807
567.000000	0.324169
568.000000	0.324428
569.000000	0.324718
570.000000	0.324970
571.000000	0.325236
572.000000	0.325715
573.000000	0.325987
574.000000	0.326132
575.000000	0.326460
576.000000	0.326824
577.000000	0.327135
578.000000	0.327404
579.000000	0.327617
580.000000	0.327889
581.000000	0.328251
582.000000	0.328617
583.000000	0.328930
584.000000	0.329204
585.000000	0.329505
586.000000	0.329806
587.000000	0.330047
588.000000	0.330194
589.000000	0.330424
590.000000	0.330724
591.000000	0.331051
592.000000	0.331317
593.000000	0.331635
594.000000	0.331995
595.000000	0.332274
596.000000	0.332427
597.000000	0.332568
598.000000	0.332755
599.000000	0.332935
600.000000	0.333175
601.000000	0.333428
602.000000	0.333638
603.000000	0.333804
604.000000	0.333961
605.000000	0.334154
606.000000	0.334369
607.000000	0.334573
608.000000	0.334706
609.000000	0.334791
610.000000	0.334907
611.000000	0.335118
612.000000	0.335320
613.000000	0.335465
614.000000	0.335574
615.000000	0.335638
616.000000	0.335727
617.000000	0.335848
618.000000	0.336073
619.000000	0.336288
620.000000	0.336437
621.000000	0.336559
622.000000	0.336623
623.000000	0.336696
624.000000	0.336837
625.000000	0.337051
626.000000	0.337204
627.000000	0.337268
628.000000	0.337379
629.000000	0.337630
630.000000	0.337832
631.000000	0.337961
632.000000	0.338033
633.000000	0.338143
634.000000	0.338339
635.000000	0.338469
636.000000	0.338588
637.000000	0.338725
638.000000	0.338910
639.000000	0.339069
640.000000	0.339260
641.000000	0.339462
642.000000	0.339670
643.000000	0.339862
644.000000	0.340009
645.000000	0.340047
646.000000	0.340098
647.000000	0.340225
648.000000	0.340395
649.000000	0.340589
650.000000	0.340759
651.000000	0.340879
652.000000	0.340959
653.000000	0.341071
654.000000	0.341216
655.000000	0.341392
656.000000	0.341652
657.000000	0.341942
658.000000	0.342119
659.000000	0.342217
660.000000	0.342286
661.000000	0.342464
662.000000	0.342653
663.000000	0.342846
664.000000	0.342958
665.000000	0.343099
666.000000	0.343259
667.000000	0.343385
668.000000	0.343620
669.000000	0.343742
670.000000	0.343710
671.000000	0.343913
672.000000	0.344176
673.000000	0.344405
674.000000	0.344573
675.000000	0.344720
676.000000	0.344822
677.000000	0.344877
678.000000	0.344981
679.000000	0.345156
680.000000	0.345368
681.000000	0.345387
682.000000	0.345519
683.000000	0.345718
684.000000	0.345849
685.000000	0.345959
686.000000	0.346070
687.000000	0.346158
688.000000	0.346423
689.000000	0.346671
690.000000	0.346808
691.000000	0.347045
692.000000	0.347157
693.000000	0.347217
694.000000	0.347466
695.000000	0.347616
696.000000	0.347701
697.000000	0.347872
698.000000	0.348011
699.000000	0.348131
700.000000	0.348269
701.000000	0.348431
702.000000	0.348616
703.000000	0.348789
704.000000	0.348933
705.000000	0.349097
706.000000	0.349283
707.000000	0.349564
708.000000	0.349745
709.000000	0.349861
710.000000	0.349988
711.000000	0.350072
712.000000	0.350142
713.000000	0.350236
714.000000	0.350324
715.000000	0.350502
716.000000	0.350776
717.000000	0.351059
718.000000	0.351139
719.000000	0.351159
720.000000	0.351279
721.000000	0.351371
722.000000	0.351475
723.000000	0.351656
724.000000	0.351793
725.000000	0.351868
726.000000	0.351963
727.000000	0.352015
728.000000	0.352037
729.000000	0.352132
730.000000	0.352305
731.000000	0.352478
732.000000	0.352659
733.000000	0.352852
734.000000	0.352911
735.000000	0.352952
736.000000	0.353111
737.000000	0.353234
738.000000	0.353303
739.000000	0.353433
740.000000	0.353509
741.000000	0.353591
742.000000	0.353711
743.000000	0.353814
744.000000	0.353843
745.000000	0.353858
746.000000	0.353932
747.000000	0.354025
748.000000	0.354197
749.000000	0.354348
750.000000	0.354395
751.000000	0.354482
752.000000	0.354615
753.000000	0.354767
754.000000	0.354845
755.000000	0.354908
756.000000	0.354977
757.000000	0.355017
758.000000	0.355117
759.000000	0.355243
760.000000	0.355302
761.000000	0.355418
762.000000	0.355532
763.000000	0.355587
764.000000	0.355624
765.000000	0.355731
766.000000	0.355885
767.000000	0.356018
768.000000	0.356037
769.000000	0.356052
770.000000	0.356096
771.000000	0.356070
772.000000	0.356122
773.000000	0.356165
774.000000	0.356182
775.000000	0.356181
776.000000	0.356250
777.000000	0.356394
778.000000	0.356438
779.000000	0.356448
780.000000	0.356454
781.000000	0.356431
782.000000	0.356479
783.000000	0.356543
784.000000	0.356384
785.000000	0.356429
786.000000	0.356537
787.000000	0.356595
788.000000	0.356631
789.000000	0.356651
790.000000	0.356716
791.000000	0.356947
792.000000	0.357013
793.000000	0.356885
794.000000	0.356716
795.000000	0.357039
796.000000	0.357329
797.000000	0.357353
798.000000	0.357187
799.000000	0.357092
800.000000	0.357075
801.000000	0.357078
802.000000	0.357189
803.000000	0.357294
804.000000	0.357330
805.000000	0.357180
806.000000	0.357069
807.000000	0.357162
808.000000	0.357385
809.000000	0.357449
810.000000	0.357407
811.000000	0.357358
812.000000	0.357425
813.000000	0.357498
814.000000	0.357492
815.000000	0.357371
816.000000	0.357296
817.000000	0.357258
818.000000	0.357144
819.000000	0.357239
820.000000	0.357282
821.000000	0.357157
822.000000	0.357162
823.000000	0.357195
824.000000	0.357178
825.000000	0.357184
826.000000	0.357241
827.000000	0.357227
828.000000	0.357143
829.000000	0.357079
830.000000	0.357075
831.000000	0.357141
832.000000	0.357075
833.000000	0.357004
834.000000	0.356923
835.000000	0.356852
836.000000	0.356757
837.000000	0.356741
838.000000	0.356794
839.000000	0.356762
840.000000	0.356767
841.000000	0.356817
842.000000	0.356845
843.000000	0.356845
844.000000	0.356777
845.000000	0.356659
846.000000	0.356658
847.000000	0.356773
848.000000	0.356818
849.000000	0.356676
850.000000	0.356634
851.000000	0.356461
852.000000	0.356257
853.000000	0.356500
854.000000	0.356401
855.000000	0.356256
856.000000	0.356381
857.000000	0.356328
858.000000	0.356271
859.000000	0.356193
860.000000	0.355967
861.000000	0.355893
862.000000	0.355913
863.000000	0.355761
864.000000	0.355587
865.000000	0.355408
866.000000	0.355271
867.000000	0.355226
868.000000	0.355117
869.000000	0.354937
870.000000	0.354881
871.000000	0.355040
872.000000	0.355038
873.000000	0.354724
874.000000	0.354744
875.000000	0.354695
876.000000	0.354524
877.000000	0.354255
878.000000	0.354081
879.000000	0.354036
880.000000	0.353895
881.000000	0.353549
882.000000	0.353225
883.000000	0.352982
884.000000	0.352734
885.000000	0.352614
886.000000	0.352516
887.000000	0.352390
888.000000	0.352244
889.000000	0.352022
890.000000	0.351716
891.000000	0.351593
892.000000	0.351552
893.000000	0.351535
894.000000	0.351554
895.000000	0.351262
896.000000	0.350915
897.000000	0.350628
898.000000	0.350472
899.000000	0.350537
900.000000	0.350524
901.000000	0.350287
902.000000	0.350066
903.000000	0.350066
904.000000	0.350043
905.000000	0.349631
906.000000	0.349372
907.000000	0.349295
908.000000	0.349304
909.000000	0.348991
910.000000	0.348868
911.000000	0.348831
912.000000	0.348709
913.000000	0.348564
914.000000	0.348296
915.000000	0.348003
916.000000	0.347745
917.000000	0.347586
918.000000	0.347411
919.000000	0.347123
920.000000	0.346855
921.000000	0.346548
922.000000	0.346216
923.000000	0.345892
924.000000	0.345750
925.000000	0.345605
926.000000	0.345350
927.000000	0.344937
928.000000	0.344916
929.000000	0.344943
930.000000	0.344554
931.000000	0.344418
932.000000	0.344299
933.000000	0.344066
934.000000	0.343642
935.000000	0.343213
936.000000	0.342941
937.000000	0.342763
938.000000	0.342531
939.000000	0.342164
940.000000	0.341746
941.000000	0.341623
942.000000	0.341566
943.000000	0.341447
944.000000	0.341085
945.000000	0.340667
946.000000	0.340164
947.000000	0.339833
948.000000	0.339819
949.000000	0.339801
950.000000	0.339727
951.000000	0.339488
952.000000	0.339073
953.000000	0.338732
954.000000	0.338588
955.000000	0.338508
956.000000	0.338106
957.000000	0.337803
958.000000	0.337607
959.000000	0.337507
960.000000	0.337561
961.000000	0.337308
962.000000	0.336800
963.000000	0.336776
964.000000	0.336660
965.000000	0.336448
966.000000	0.336115
967.000000	0.335771
968.000000	0.335539
969.000000	0.335426
970.000000	0.335479
971.000000	0.335361
972.000000	0.335151
973.000000	0.334875
974.000000	0.334659
975.000000	0.334398
976.000000	0.334089
977.000000	0.333753
978.000000	0.333417
979.000000	0.333355
980.000000	0.333269
981.000000	0.333164
982.000000	0.332918
983.000000	0.332579
984.000000	0.332315
985.000000	0.332200
986.000000	0.331950
987.000000	0.331988
988.000000	0.332175
989.000000	0.331227
990.000000	0.330897
991.000000	0.331059
992.000000	0.331057
993.000000	0.330982
994.000000	0.330675
995.000000	0.330420
996.000000	0.330350
997.000000	0.330489
998.000000	0.330337
999.000000	0.329982
1000.000000	0.330144
1001.000000	0.330591
1002.000000	0.330023
1003.000000	0.329850
1004.000000	0.329836
1005.000000	0.329955
1006.000000	0.329684
1007.000000	0.329591
1008.000000	0.329377
1009.000000	0.328509
1010.000000	0.327801
1011.000000	0.328117
1012.000000	0.328386
1013.000000	0.328245
1014.000000	0.328230
1015.000000	0.328567
1016.000000	0.328762
1017.000000	0.328433
1018.000000	0.328406
1019.000000	0.328389
1020.000000	0.328141
1021.000000	0.327684
1022.000000	0.327452
1023.000000	0.327606
1024.000000	0.327711
1025.000000	0.327473
1026.000000	0.327895
1027.000000	0.328013
1028.000000	0.327109
1029.000000	0.326735
1030.000000	0.326357
1031.000000	0.326307
1032.000000	0.326991
1033.000000	0.327210
1034.000000	0.327385
1035.000000	0.327460
1036.000000	0.327637
1037.000000	0.327740
1038.000000	0.327928
1039.000000	0.328470
1040.000000	0.328588
1041.000000	0.328871
1042.000000	0.328624
1043.000000	0.328116
1044.000000	0.328458
1045.000000	0.328866
1046.000000	0.328949
1047.000000	0.328880
1048.000000	0.328583
1049.000000	0.328456
1050.000000	0.328064
1051.000000	0.328121
1052.000000	0.328620
1053.000000	0.328841
1054.000000	0.329138
1055.000000	0.329553
1056.000000	0.330096
1057.000000	0.330582
1058.000000	0.331090
1059.000000	0.331178
1060.000000	0.331014
1061.000000	0.331119
1062.000000	0.330955
1063.000000	0.330755
1064.000000	0.330901
1065.000000	0.331175
1066.000000	0.331382
1067.000000	0.331894
1068.000000	0.332136
1069.000000	0.331933
1070.000000	0.332084
1071.000000	0.332686
1072.000000	0.332840
1073.000000	0.332798
1074.000000	0.333065
1075.000000	0.333193
1076.000000	0.333022
1077.000000	0.333117
1078.000000	0.333434
1079.000000	0.333664
1080.000000	0.333972
1081.000000	0.334039
1082.000000	0.334123
1083.000000	0.334190
1084.000000	0.333964
1085.000000	0.334088
1086.000000	0.334502
1087.000000	0.334802
1088.000000	0.335064
1089.000000	0.335302
1090.000000	0.335468
1091.000000	0.335607
1092.000000	0.335819
1093.000000	0.336149
1094.000000	0.336501
1095.000000	0.336902
1096.000000	0.337145
1097.000000	0.337449
1098.000000	0.337631
1099.000000	0.337504
1100.000000	0.337618
1101.000000	0.337764
1102.000000	0.337858
1103.000000	0.337975
1104.000000	0.338116
1105.000000	0.338011
1106.000000	0.338258
1107.000000	0.338929
1108.000000	0.339178
1109.000000	0.339225
1110.000000	0.339752
1111.000000	0.339860
1112.000000	0.339466
1113.000000	0.339650
1114.000000	0.340232
1115.000000	0.340354
1116.000000	0.340297
1117.000000	0.340555
1118.000000	0.340737
1119.000000	0.340909
1120.000000	0.341545
1121.000000	0.341727
1122.000000	0.341421
1123.000000	0.341693
1124.000000	0.341905
1125.000000	0.342145
1126.000000	0.342752
1127.000000	0.342962
1128.000000	0.342978
1129.000000	0.342758
1130.000000	0.342714
1131.000000	0.342421
1132.000000	0.342501
1133.000000	0.342909
1134.000000	0.343170
1135.000000	0.343648
1136.000000	0.343686
1137.000000	0.343364
1138.000000	0.343251
1139.000000	0.342988
1140.000000	0.343025
1141.000000	0.343451
1142.000000	0.343580
1143.000000	0.343502
1144.000000	0.343629
1145.000000	0.343690
1146.000000	0.343316
1147.000000	0.343383
1148.000000	0.343586
1149.000000	0.343675
1150.000000	0.343840
1151.000000	0.343964
1152.000000	0.343964
1153.000000	0.344020
1154.000000	0.344114
1155.000000	0.344128
1156.000000	0.344073
1157.000000	0.344047
1158.000000	0.343890
1159.000000	0.343860
1160.000000	0.343890
1161.000000	0.343928
1162.000000	0.344140
1163.000000	0.344425
1164.000000	0.344392
1165.000000	0.344240
1166.000000	0.344192
1167.000000	0.343931
1168.000000	0.343843
1169.000000	0.343909
1170.000000	0.343996
1171.000000	0.344236
1172.000000	0.344318
1173.000000	0.344354
1174.000000	0.344384
1175.000000	0.344236
1176.000000	0.344134
1177.000000	0.344185
1178.000000	0.344214
1179.000000	0.344194
1180.000000	0.344147
1181.000000	0.344247
1182.000000	0.344225
1183.000000	0.344278
1184.000000	0.344380
1185.000000	0.344429
1186.000000	0.344534
1187.000000	0.344492
1188.000000	0.344355
1189.000000	0.344208
1190.000000	0.343985
1191.000000	0.343899
1192.000000	0.343967
1193.000000	0.344068
1194.000000	0.344124
1195.000000	0.344191
1196.000000	0.344200
1197.000000	0.344200
1198.000000	0.344265
1199.000000	0.344291
1200.000000	0.344228
1201.000000	0.344263
1202.000000	0.344180
1203.000000	0.344079
1204.000000	0.344072
1205.000000	0.344184
1206.000000	0.344187
1207.000000	0.344369
1208.000000	0.344368
1209.000000	0.344260
1210.000000	0.344230
1211.000000	0.344241
1212.000000	0.344234
1213.000000	0.344306
1214.000000	0.344273
1215.000000	0.344078
1216.000000	0.344062
1217.000000	0.344060
1218.000000	0.344036
1219.000000	0.344160
1220.000000	0.344246
1221.000000	0.344288
1222.000000	0.344231
1223.000000	0.344151
1224.000000	0.344228
1225.000000	0.344141
1226.000000	0.344093
1227.000000	0.344059
1228.000000	0.343959
1229.000000	0.343863
1230.000000	0.343708
1231.000000	0.343514
1232.000000	0.343419
1233.000000	0.343473
1234.000000	0.343534
1235.000000	0.343559
1236.000000	0.343575
1237.000000	0.343651
1238.000000	0.343712
1239.000000	0.343686
1240.000000	0.343706
1241.000000	0.343593
1242.000000	0.343494
1243.000000	0.343549
1244.000000	0.343731
1245.000000	0.343927
1246.000000	0.343993
1247.000000	0.344053
1248.000000	0.343941
1249.000000	0.343941
1250.000000	0.343945
1251.000000	0.343765
1252.000000	0.343701
1253.000000	0.343768
1254.000000	0.343733
1255.000000	0.343646
1256.000000	0.343589
1257.000000	0.343534
1258.000000	0.343556
1259.000000	0.343594
1260.000000	0.343647
1261.000000	0.343607
1262.000000	0.343646
1263.000000	0.343759
1264.000000	0.343784
1265.000000	0.343955
1266.000000	0.344057
1267.000000	0.343996
1268.000000	0.344010
1269.000000	0.343887
1270.000000	0.343775
1271.000000	0.343712
1272.000000	0.343477
1273.000000	0.343345
1274.000000	0.343420
1275.000000	0.343451
1276.000000	0.343667
1277.000000	0.343752
1278.000000	0.343652
1279.000000	0.343580
1280.000000	0.343400
1281.000000	0.343207
1282.000000	0.343065
1283.000000	0.343051
1284.000000	0.342914
1285.000000	0.342911
1286.000000	0.343046
1287.000000	0.343132
1288.000000	0.343182
1289.000000	0.343218
1290.000000	0.343156
1291.000000	0.343047
1292.000000	0.343048
1293.000000	0.343020
1294.000000	0.342957
1295.000000	0.343028
1296.000000	0.342986
1297.000000	0.342948
1298.000000	0.343110
1299.000000	0.343122
1300.000000	0.343136
1301.000000	0.343155
1302.000000	0.343054
1303.000000	0.342979
1304.000000	0.342867
1305.000000	0.342722
1306.000000	0.342618
1307.000000	0.342617
1308.000000	0.342566
1309.000000	0.342505
1310.000000	0.342483
1311.000000	0.342511
1312.000000	0.342404
1313.000000	0.342344
1314.000000	0.342329
1315.000000	0.342374
1316.000000	0.342428
1317.000000	0.342463
1318.000000	0.342541
1319.000000	0.342400
1320.000000	0.342150
1321.000000	0.341999
1322.000000	0.341819
1323.000000	0.341732
1324.000000	0.341794
1325.000000	0.341647
1326.000000	0.341526
1327.000000	0.341510
1328.000000	0.341329
1329.000000	0.341124
1330.000000	0.340939
1331.000000	0.340746
1332.000000	0.340511
1333.000000	0.340418
1334.000000	0.340473
1335.000000	0.340496
1336.000000	0.340649
1337.000000	0.340517
1338.000000	0.340148
1339.000000	0.339928
1340.000000	0.339635
1341.000000	0.339255
1342.000000	0.339093
1343.000000	0.338919
1344.000000	0.338666
1345.000000	0.338552
1346.000000	0.338537
1347.000000	0.338361
1348.000000	0.338276
1349.000000	0.338137
1350.000000	0.338037
1351.000000	0.337925
1352.000000	0.337624
1353.000000	0.337393
1354.000000	0.337296
1355.000000	0.337174
1356.000000	0.337111
1357.000000	0.336958
1358.000000	0.336719
1359.000000	0.336502
1360.000000	0.336359
1361.000000	0.336395
1362.000000	0.336237
1363.000000	0.336010
1364.000000	0.335840
1365.000000	0.335513
1366.000000	0.335371
1367.000000	0.335370
1368.000000	0.335288
1369.000000	0.335314
1370.000000	0.335134
1371.000000	0.334862
1372.000000	0.334566
1373.000000	0.334086
1374.000000	0.333796
1375.000000	0.333572
1376.000000	0.333269
1377.000000	0.333011
1378.000000	0.332466
1379.000000	0.331508
1380.000000	0.330479
1381.000000	0.329290
1382.000000	0.328112
1383.000000	0.327140
1384.000000	0.325905
1385.000000	0.324626
1386.000000	0.323532
1387.000000	0.322355
1388.000000	0.321331
1389.000000	0.320544
1390.000000	0.319919
1391.000000	0.319526
1392.000000	0.319377
1393.000000	0.319254
1394.000000	0.319366
1395.000000	0.319392
1396.000000	0.319503
1397.000000	0.319411
1398.000000	0.319273
1399.000000	0.319053
1400.000000	0.318693
1401.000000	0.318286
1402.000000	0.317875
1403.000000	0.317327
1404.000000	0.316868
1405.000000	0.316190
1406.000000	0.315560
1407.000000	0.315013
1408.000000	0.314286
1409.000000	0.313554
1410.000000	0.312938
1411.000000	0.312306
1412.000000	0.311571
1413.000000	0.311116
1414.000000	0.310763
1415.000000	0.310240
1416.000000	0.309836
1417.000000	0.309515
1418.000000	0.309039
1419.000000	0.308621
1420.000000	0.308210
1421.000000	0.307891
1422.000000	0.307567
1423.000000	0.307297
1424.000000	0.306952
1425.000000	0.306556
1426.000000	0.306228
1427.000000	0.305932
1428.000000	0.305714
1429.000000	0.305523
1430.000000	0.305281
1431.000000	0.305006
1432.000000	0.304742
1433.000000	0.304544
1434.000000	0.304279
1435.000000	0.304074
1436.000000	0.303855
1437.000000	0.303550
1438.000000	0.303267
1439.000000	0.303047
1440.000000	0.302806
1441.000000	0.302597
1442.000000	0.302427
1443.000000	0.302191
1444.000000	0.302021
1445.000000	0.301865
1446.000000	0.301591
1447.000000	0.301328
1448.000000	0.301005
1449.000000	0.300702
1450.000000	0.300519
1451.000000	0.300389
1452.000000	0.300175
1453.000000	0.299919
1454.000000	0.299698
1455.000000	0.299489
1456.000000	0.299426
1457.000000	0.299424
1458.000000	0.299373
1459.000000	0.299356
1460.000000	0.299289
1461.000000	0.299180
1462.000000	0.299070
1463.000000	0.298890
1464.000000	0.298746
1465.000000	0.298694
1466.000000	0.298666
1467.000000	0.298712
1468.000000	0.298749
1469.000000	0.298805
1470.000000	0.298911
1471.000000	0.299031
1472.000000	0.299142
1473.000000	0.299415
1474.000000	0.299570
1475.000000	0.299700
1476.000000	0.299930
1477.000000	0.300045
1478.000000	0.300191
1479.000000	0.300366
1480.000000	0.300493
1481.000000	0.300681
1482.000000	0.300965
1483.000000	0.301294
1484.000000	0.301683
1485.000000	0.302035
1486.000000	0.302421
1487.000000	0.302774
1488.000000	0.303155
1489.000000	0.303463
1490.000000	0.303555
1491.000000	0.303822
1492.000000	0.304038
1493.000000	0.304339
1494.000000	0.304797
1495.000000	0.305096
1496.000000	0.305309
1497.000000	0.305553
1498.000000	0.305798
1499.000000	0.305961
1500.000000	0.306194
1501.000000	0.306445
1502.000000	0.306606
1503.000000	0.306857
1504.000000	0.307079
1505.000000	0.307198
1506.000000	0.307338
1507.000000	0.307470
1508.000000	0.307613
1509.000000	0.307780
1510.000000	0.307937
1511.000000	0.308104
1512.000000	0.308368
1513.000000	0.308619
1514.000000	0.308848
1515.000000	0.309090
1516.000000	0.309302
1517.000000	0.309449
1518.000000	0.309592
1519.000000	0.309649
1520.000000	0.309630
1521.000000	0.309640
1522.000000	0.309740
1523.000000	0.309928
1524.000000	0.310082
1525.000000	0.310213
1526.000000	0.310389
1527.000000	0.310497
1528.000000	0.310565
1529.000000	0.310664
1530.000000	0.310650
1531.000000	0.310641
1532.000000	0.310704
1533.000000	0.310719
1534.000000	0.310706
1535.000000	0.310787
1536.000000	0.310886
1537.000000	0.311070
1538.000000	0.311241
1539.000000	0.311246
1540.000000	0.311197
1541.000000	0.311241
1542.000000	0.311366
1543.000000	0.311482
1544.000000	0.311622
1545.000000	0.311673
1546.000000	0.311591
1547.000000	0.311600
1548.000000	0.311609
1549.000000	0.311604
1550.000000	0.311700
1551.000000	0.311757
1552.000000	0.311785
1553.000000	0.311824
1554.000000	0.311827
1555.000000	0.311868
1556.000000	0.311989
1557.000000	0.312074
1558.000000	0.312138
1559.000000	0.312119
1560.000000	0.312152
1561.000000	0.312228
1562.000000	0.312254
1563.000000	0.312318
1564.000000	0.312358
1565.000000	0.312337
1566.000000	0.312281
1567.000000	0.312314
1568.000000	0.312368
1569.000000	0.312493
1570.000000	0.312544
1571.000000	0.312609
1572.000000	0.312648
1573.000000	0.312617
1574.000000	0.312578
1575.000000	0.312542
1576.000000	0.312564
1577.000000	0.312597
1578.000000	0.312529
1579.000000	0.312547
1580.000000	0.312461
1581.000000	0.312260
1582.000000	0.312212
1583.000000	0.312216
1584.000000	0.312157
1585.000000	0.312174
1586.000000	0.312255
1587.000000	0.312356
1588.000000	0.312451
1589.000000	0.312667
1590.000000	0.312753
1591.000000	0.312770
1592.000000	0.312857
1593.000000	0.312994
1594.000000	0.312981
1595.000000	0.312957
1596.000000	0.312921
1597.000000	0.312803
1598.000000	0.312794
1599.000000	0.312869
1600.000000	0.312879
1601.000000	0.312972
1602.000000	0.313027
1603.000000	0.313137
1604.000000	0.313141
1605.000000	0.313073
1606.000000	0.313073
1607.000000	0.313092
1608.000000	0.313067
1609.000000	0.313168
1610.000000	0.313124
1611.000000	0.312930
1612.000000	0.312873
1613.000000	0.312959
1614.000000	0.312990
1615.000000	0.313088
1616.000000	0.313239
1617.000000	0.313357
1618.000000	0.313415
1619.000000	0.313501
1620.000000	0.313559
1621.000000	0.313571
1622.000000	0.313654
1623.000000	0.313729
1624.000000	0.313776
1625.000000	0.313695
1626.000000	0.313642
1627.000000	0.313562
1628.000000	0.313641
1629.000000	0.313762
1630.000000	0.313893
1631.000000	0.314118
1632.000000	0.314200
1633.000000	0.314221
1634.000000	0.314298
1635.000000	0.314413
1636.000000	0.314441
1637.000000	0.314396
1638.000000	0.314440
1639.000000	0.314505
1640.000000	0.314589
1641.000000	0.314897
1642.000000	0.315041
1643.000000	0.315113
1644.000000	0.315233
1645.000000	0.315335
1646.000000	0.315362
1647.000000	0.315376
1648.000000	0.315429
1649.000000	0.315538
1650.000000	0.315701
1651.000000	0.316002
1652.000000	0.316217
1653.000000	0.316347
1654.000000	0.316518
1655.000000	0.316645
1656.000000	0.316681
1657.000000	0.316757
1658.000000	0.316780
1659.000000	0.316823
1660.000000	0.316908
1661.000000	0.316901
1662.000000	0.317001
1663.000000	0.317135
1664.000000	0.317242
1665.000000	0.317383
1666.000000	0.317531
1667.000000	0.317596
1668.000000	0.317676
1669.000000	0.317722
1670.000000	0.317760
1671.000000	0.317919
1672.000000	0.317986
1673.000000	0.317974
1674.000000	0.318115
1675.000000	0.318169
1676.000000	0.318249
1677.000000	0.318392
1678.000000	0.318518
1679.000000	0.318575
1680.000000	0.318629
1681.000000	0.318728
1682.000000	0.318748
1683.000000	0.318774
1684.000000	0.318744
1685.000000	0.318618
1686.000000	0.318536
1687.000000	0.318496
1688.000000	0.318522
1689.000000	0.318646
1690.000000	0.318716
1691.000000	0.318794
1692.000000	0.318645
1693.000000	0.318549
1694.000000	0.318489
1695.000000	0.318375
1696.000000	0.318544
1697.000000	0.318564
1698.000000	0.318542
1699.000000	0.318585
1700.000000	0.318597
1701.000000	0.318697
1702.000000	0.318701
1703.000000	0.318730
1704.000000	0.318886
1705.000000	0.318985
1706.000000	0.319154
1707.000000	0.319270
1708.000000	0.319224
1709.000000	0.319265
1710.000000	0.319556
1711.000000	0.319616
1712.000000	0.319563
1713.000000	0.319612
1714.000000	0.319567
1715.000000	0.319627
1716.000000	0.319972
1717.000000	0.320059
1718.000000	0.319921
1719.000000	0.319900
1720.000000	0.319995
1721.000000	0.319858
1722.000000	0.319565
1723.000000	0.319485
1724.000000	0.319323
1725.000000	0.319321
1726.000000	0.319589
1727.000000	0.319592
1728.000000	0.319344
1729.000000	0.319215
1730.000000	0.319165
1731.000000	0.319206
1732.000000	0.319395
1733.000000	0.319530
1734.000000	0.319579
1735.000000	0.319606
1736.000000	0.319521
1737.000000	0.319554
1738.000000	0.319618
1739.000000	0.319749
1740.000000	0.320010
1741.000000	0.320021
1742.000000	0.319943
1743.000000	0.320026
1744.000000	0.320023
1745.000000	0.320044
1746.000000	0.320211
1747.000000	0.320087
1748.000000	0.319984
1749.000000	0.319919
1750.000000	0.319828
1751.000000	0.319884
1752.000000	0.319956
1753.000000	0.319819
1754.000000	0.319823
1755.000000	0.319858
1756.000000	0.319869
1757.000000	0.320021
1758.000000	0.320063
1759.000000	0.319910
1760.000000	0.319907
1761.000000	0.319999
1762.000000	0.319916
1763.000000	0.319765
1764.000000	0.319741
1765.000000	0.319576
1766.000000	0.319548
1767.000000	0.319650
1768.000000	0.319689
1769.000000	0.319822
1770.000000	0.319919
1771.000000	0.319941
1772.000000	0.320087
1773.000000	0.320314
1774.000000	0.320269
1775.000000	0.320160
1776.000000	0.320233
1777.000000	0.320143
1778.000000	0.320103
1779.000000	0.320281
1780.000000	0.320391
1781.000000	0.320286
1782.000000	0.320341
1783.000000	0.320643
1784.000000	0.320836
1785.000000	0.320886
1786.000000	0.321015
1787.000000	0.321254
1788.000000	0.321196
1789.000000	0.320951
1790.000000	0.320930
1791.000000	0.320852
1792.000000	0.320965
1793.000000	0.321056
1794.000000	0.321111
1795.000000	0.321169
1796.000000	0.321220
1797.000000	0.321339
1798.000000	0.321509
1799.000000	0.321574
1800.000000	0.321717
1801.000000	0.321636
1802.000000	0.321645
1803.000000	0.321520
1804.000000	0.321721
1805.000000	0.322298
1806.000000	0.322443
1807.000000	0.322242
1808.000000	0.322488
1809.000000	0.322806
1810.000000	0.323058
1811.000000	0.323322
1812.000000	0.324346
1813.000000	0.324280
1814.000000	0.323364
1815.000000	0.323082
1816.000000	0.322401
1817.000000	0.322098
1818.000000	0.322650
1819.000000	0.322643
1820.000000	0.322206
1821.000000	0.321918
1822.000000	0.321989
1823.000000	0.322194
1824.000000	0.322033
1825.000000	0.321864
1826.000000	0.322037
1827.000000	0.322213
1828.000000	0.321735
1829.000000	0.321704
1830.000000	0.321969
1831.000000	0.321666
1832.000000	0.320431
1833.000000	0.320189
1834.000000	0.320155
1835.000000	0.320268
1836.000000	0.321276
1837.000000	0.321313
1838.000000	0.320911
1839.000000	0.320271
1840.000000	0.319479
1841.000000	0.318641
1842.000000	0.318371
1843.000000	0.318626
1844.000000	0.318890
1845.000000	0.319371
1846.000000	0.319801
1847.000000	0.320208
1848.000000	0.320644
1849.000000	0.321266
1850.000000	0.321375
1851.000000	0.321432
1852.000000	0.321522
1853.000000	0.321316
1854.000000	0.320550
1855.000000	0.319842
1856.000000	0.319004
1857.000000	0.317670
1858.000000	0.316877
1859.000000	0.316120
1860.000000	0.315263
1861.000000	0.314723
1862.000000	0.313857
1863.000000	0.312704
1864.000000	0.311924
1865.000000	0.311157
1866.000000	0.310594
1867.000000	0.310510
1868.000000	0.309688
1869.000000	0.309169
1870.000000	0.308328
1871.000000	0.307219
1872.000000	0.306948
1873.000000	0.305701
1874.000000	0.303839
1875.000000	0.302257
1876.000000	0.300261
1877.000000	0.297505
1878.000000	0.295684
1879.000000	0.294693
1880.000000	0.293480
1881.000000	0.291449
1882.000000	0.288765
1883.000000	0.286352
1884.000000	0.283702
1885.000000	0.280134
1886.000000	0.277275
1887.000000	0.275073
1888.000000	0.271723
1889.000000	0.268474
1890.000000	0.265671
1891.000000	0.262717
1892.000000	0.259572
1893.000000	0.256069
1894.000000	0.253183
1895.000000	0.249990
1896.000000	0.246787
1897.000000	0.243386
1898.000000	0.240052
1899.000000	0.237067
1900.000000	0.234426
1901.000000	0.231709
1902.000000	0.229504
1903.000000	0.227611
1904.000000	0.225987
1905.000000	0.224781
1906.000000	0.223479
1907.000000	0.222585
1908.000000	0.221515
1909.000000	0.220263
1910.000000	0.219308
1911.000000	0.218296
1912.000000	0.217174
1913.000000	0.216376
1914.000000	0.215372
1915.000000	0.214633
1916.000000	0.214237
1917.000000	0.213338
1918.000000	0.212134
1919.000000	0.211040
1920.000000	0.210247
1921.000000	0.209836
1922.000000	0.210168
1923.000000	0.210478
1924.000000	0.210621
1925.000000	0.210551
1926.000000	0.210180
1927.000000	0.209924
1928.000000	0.209796
1929.000000	0.209686
1930.000000	0.209918
1931.000000	0.210431
1932.000000	0.211208
1933.000000	0.211649
1934.000000	0.211556
1935.000000	0.211168
1936.000000	0.210391
1937.000000	0.210292
1938.000000	0.210417
1939.000000	0.210600
1940.000000	0.211017
1941.000000	0.211884
1942.000000	0.211913
1943.000000	0.211624
1944.000000	0.212011
1945.000000	0.211824
1946.000000	0.211772
1947.000000	0.212437
1948.000000	0.212284
1949.000000	0.212083
1950.000000	0.212110
1951.000000	0.211931
1952.000000	0.211585
1953.000000	0.211302
1954.000000	0.210915
1955.000000	0.211110
1956.000000	0.211285
1957.000000	0.210770
1958.000000	0.211137
1959.000000	0.211218
1960.000000	0.210596
1961.000000	0.210674
1962.000000	0.210488
1963.000000	0.209998
1964.000000	0.209485
1965.000000	0.209635
1966.000000	0.209636
1967.000000	0.209831
1968.000000	0.210381
1969.000000	0.210582
1970.000000	0.210851
1971.000000	0.211313
1972.000000	0.211325
1973.000000	0.211492
1974.000000	0.211715
1975.000000	0.212193
1976.000000	0.212771
1977.000000	0.213741
1978.000000	0.214596
1979.000000	0.215226
1980.000000	0.215236
1981.000000	0.214950
1982.000000	0.214644
1983.000000	0.214571
1984.000000	0.214852
1985.000000	0.215927
1986.000000	0.216374
1987.000000	0.216901
1988.000000	0.217134
1989.000000	0.217032
1990.000000	0.216798
1991.000000	0.216971
1992.000000	0.217531
1993.000000	0.218569
1994.000000	0.219452
1995.000000	0.219485
1996.000000	0.219734
1997.000000	0.220324
1998.000000	0.220789
1999.000000	0.221620
2000.000000	0.223202
2001.000000	0.224526
2002.000000	0.225004
2003.000000	0.225526
2004.000000	0.225621
2005.000000	0.225664
2006.000000	0.226323
2007.000000	0.226824
2008.000000	0.227414
2009.000000	0.228255
2010.000000	0.229105
2011.000000	0.229465
2012.000000	0.230435
2013.000000	0.232057
2014.000000	0.232957
2015.000000	0.233797
2016.000000	0.235357
2017.000000	0.236417
2018.000000	0.237300
2019.000000	0.237867
2020.000000	0.238391
2021.000000	0.238687
2022.000000	0.238109
2023.000000	0.238333
2024.000000	0.238808
2025.000000	0.239320
2026.000000	0.239963
2027.000000	0.240928
2028.000000	0.241574
2029.000000	0.242575
2030.000000	0.243175
2031.000000	0.244045
2032.000000	0.245085
2033.000000	0.246287
2034.000000	0.247268
2035.000000	0.248640
2036.000000	0.249174
2037.000000	0.249387
2038.000000	0.249215
2039.000000	0.248337
2040.000000	0.247986
2041.000000	0.247362
2042.000000	0.247694
2043.000000	0.249112
2044.000000	0.250814
2045.000000	0.252300
2046.000000	0.253334
2047.000000	0.254036
2048.000000	0.253714
2049.000000	0.254069
2050.000000	0.254198
2051.000000	0.254485
2052.000000	0.254949
2053.000000	0.255391
2054.000000	0.255869
2055.000000	0.256811
2056.000000	0.257812
2057.000000	0.258307
2058.000000	0.258876
2059.000000	0.259301
2060.000000	0.259460
2061.000000	0.259047
2062.000000	0.259268
2063.000000	0.259794
2064.000000	0.259905
2065.000000	0.260613
2066.000000	0.260764
2067.000000	0.260565
2068.000000	0.260161
2069.000000	0.260538
2070.000000	0.261174
2071.000000	0.262033
2072.000000	0.262945
2073.000000	0.263446
2074.000000	0.263329
2075.000000	0.263582
2076.000000	0.263695
2077.000000	0.264187
2078.000000	0.264963
2079.000000	0.265749
2080.000000	0.267020
2081.000000	0.267659
2082.000000	0.268289
2083.000000	0.268316
2084.000000	0.268141
2085.000000	0.267879
2086.000000	0.267678
2087.000000	0.268409
2088.000000	0.269679
2089.000000	0.270990
2090.000000	0.271604
2091.000000	0.272140
2092.000000	0.272510
2093.000000	0.271948
2094.000000	0.272130
2095.000000	0.272735
2096.000000	0.273247
2097.000000	0.273975
2098.000000	0.274379
2099.000000	0.274666
2100.000000	0.275321
2101.000000	0.275152
2102.000000	0.274959
2103.000000	0.275175
2104.000000	0.275545
2105.000000	0.275821
2106.000000	0.276388
2107.000000	0.276890
2108.000000	0.277142
2109.000000	0.277438
2110.000000	0.277780
2111.000000	0.278183
2112.000000	0.278345
2113.000000	0.278549
2114.000000	0.279403
2115.000000	0.279897
2116.000000	0.279275
2117.000000	0.278839
2118.000000	0.278669
2119.000000	0.278487
2120.000000	0.279076
2121.000000	0.281193
2122.000000	0.281997
2123.000000	0.282928
2124.000000	0.282798
2125.000000	0.280974
2126.000000	0.280606
2127.000000	0.280345
2128.000000	0.280306
2129.000000	0.280863
2130.000000	0.281932
2131.000000	0.282218
2132.000000	0.282461
2133.000000	0.283279
2134.000000	0.283654
2135.000000	0.283448
2136.000000	0.283266
2137.000000	0.283286
2138.000000	0.282919
2139.000000	0.283307
2140.000000	0.284748
2141.000000	0.285150
2142.000000	0.285344
2143.000000	0.285491
2144.000000	0.284949
2145.000000	0.285084
2146.000000	0.285855
2147.000000	0.286694
2148.000000	0.287605
2149.000000	0.287844
2150.000000	0.286576
2151.000000	0.285803
2152.000000	0.285298
2153.000000	0.284922
2154.000000	0.284458
2155.000000	0.284309
2156.000000	0.284382
2157.000000	0.284204
2158.000000	0.284515
2159.000000	0.286403
2160.000000	0.286954
2161.000000	0.286712
2162.000000	0.286618
2163.000000	0.285820
2164.000000	0.285351
2165.000000	0.284975
2166.000000	0.284318
2167.000000	0.285105
2168.000000	0.285646
2169.000000	0.286180
2170.000000	0.287305
2171.000000	0.287686
2172.000000	0.287260
2173.000000	0.287032
2174.000000	0.286849
2175.000000	0.286631
2176.000000	0.285629
2177.000000	0.285775
2178.000000	0.286985
2179.000000	0.287449
2180.000000	0.288294
2181.000000	0.289175
2182.000000	0.289369
2183.000000	0.288903
2184.000000	0.289189
2185.000000	0.288947
2186.000000	0.289023
2187.000000	0.289174
2188.000000	0.289466
2189.000000	0.289368
2190.000000	0.288576
2191.000000	0.290030
2192.000000	0.289756
2193.000000	0.289001
2194.000000	0.288186
2195.000000	0.286082
2196.000000	0.284614
2197.000000	0.282953
2198.000000	0.282784
2199.000000	0.284434
2200.000000	0.284864
2201.000000	0.286670
2202.000000	0.286946
2203.000000	0.285990
2204.000000	0.282717
2205.000000	0.279414
2206.000000	0.277096
2207.000000	0.275914
2208.000000	0.277506
2209.000000	0.280307
2210.000000	0.282719
2211.000000	0.283849
2212.000000	0.284723
2213.000000	0.284816
2214.000000	0.284003
2215.000000	0.283703
2216.000000	0.283244
2217.000000	0.282030
2218.000000	0.279254
2219.000000	0.279340
2220.000000	0.280479
2221.000000	0.281287
2222.000000	0.284799
2223.000000	0.286296
2224.000000	0.286395
2225.000000	0.285820
2226.000000	0.285820
2227.000000	0.285107
2228.000000	0.286184
2229.000000	0.286081
2230.000000	0.285121
2231.000000	0.285732
2232.000000	0.282848
2233.000000	0.281360
2234.000000	0.281900
2235.000000	0.281685
2236.000000	0.281974
2237.000000	0.284053
2238.000000	0.283984
2239.000000	0.282224
2240.000000	0.282177
2241.000000	0.282074
2242.000000	0.282175
2243.000000	0.283644
2244.000000	0.283763
2245.000000	0.283529
2246.000000	0.282759
2247.000000	0.280324
2248.000000	0.279152
2249.000000	0.278106
2250.000000	0.277480
2251.000000	0.276633
2252.000000	0.277650
2253.000000	0.278906
2254.000000	0.280702
2255.000000	0.283586
2256.000000	0.285753
2257.000000	0.286825
2258.000000	0.287986
2259.000000	0.286396
2260.000000	0.284529
2261.000000	0.283167
2262.000000	0.280078
2263.000000	0.278994
2264.000000	0.279329
2265.000000	0.279690
2266.000000	0.281409
2267.000000	0.282158
2268.000000	0.283288
2269.000000	0.283756
2270.000000	0.283062
2271.000000	0.281827
2272.000000	0.280674
2273.000000	0.278873
2274.000000	0.275759
2275.000000	0.274234
2276.000000	0.273024
2277.000000	0.270748
2278.000000	0.272031
2279.000000	0.274446
2280.000000	0.276370
2281.000000	0.278438
2282.000000	0.279064
2283.000000	0.277126
2284.000000	0.275003
2285.000000	0.272386
2286.000000	0.268584
2287.000000	0.265445
2288.000000	0.264568
2289.000000	0.264292
2290.000000	0.264115
2291.000000	0.264193
2292.000000	0.265161
2293.000000	0.266570
2294.000000	0.266916
2295.000000	0.268388
2296.000000	0.268611
2297.000000	0.266263
2298.000000	0.265658
2299.000000	0.265959
2300.000000	0.265100
2301.000000	0.264749
2302.000000	0.262843
2303.000000	0.258662
2304.000000	0.257288
2305.000000	0.256957
2306.000000	0.255285
2307.000000	0.254672
2308.000000	0.253078
2309.000000	0.248472
2310.000000	0.246517
2311.000000	0.247885
2312.000000	0.248393
2313.000000	0.248916
2314.000000	0.247011
2315.000000	0.245080
2316.000000	0.245296
2317.000000	0.245857
2318.000000	0.249604
2319.000000	0.250718
2320.000000	0.249546
2321.000000	0.251827
2322.000000	0.251456
2323.000000	0.250451
2324.000000	0.253028
2325.000000	0.254649
2326.000000	0.254566
2327.000000	0.255270
2328.000000	0.253993
2329.000000	0.251413
2330.000000	0.248984
2331.000000	0.244617
2332.000000	0.243689
2333.000000	0.243192
2334.000000	0.243397
2335.000000	0.245775
2336.000000	0.252337
2337.000000	0.254081
2338.000000	0.254655
2339.000000	0.254344
2340.000000	0.252460
2341.000000	0.250275
2342.000000	0.246567
2343.000000	0.245317
2344.000000	0.243032
2345.000000	0.243892
2346.000000	0.248982
2347.000000	0.251232
2348.000000	0.255261
2349.000000	0.254816
2350.000000	0.249220
2351.000000	0.245196
2352.000000	0.241548
2353.000000	0.237349
2354.000000	0.237673
2355.000000	0.237459
2356.000000	0.235514
2357.000000	0.235700
2358.000000	0.234683
2359.000000	0.233831
2360.000000	0.232565
2361.000000	0.231687
2362.000000	0.231641
2363.000000	0.231383
2364.000000	0.229019
2365.000000	0.227298
2366.000000	0.227834
2367.000000	0.227672
2368.000000	0.229557
2369.000000	0.232874
2370.000000	0.232879
2371.000000	0.232201
2372.000000	0.232383
2373.000000	0.228136
2374.000000	0.226347
2375.000000	0.229089
2376.000000	0.230128
2377.000000	0.233054
2378.000000	0.234553
2379.000000	0.233136
2380.000000	0.234302
2381.000000	0.235468
2382.000000	0.233506
2383.000000	0.228168
2384.000000	0.224399
2385.000000	0.223848
2386.000000	0.224525
2387.000000	0.229110
2388.000000	0.228859
2389.000000	0.226029
2390.000000	0.223151
2391.000000	0.217957
2392.000000	0.216872
2393.000000	0.212788
2394.000000	0.209668
2395.000000	0.211750
2396.000000	0.213177
2397.000000	0.214612
2398.000000	0.216302
2399.000000	0.217884
2400.000000	0.213734
2401.000000	0.211782
2402.000000	0.210667
2403.000000	0.207532
2404.000000	0.212684
2405.000000	0.220643
2406.000000	0.227030
2407.000000	0.223654
2408.000000	0.219178
2409.000000	0.217113
2410.000000	0.214919
2411.000000	0.221181
2412.000000	0.223692
2413.000000	0.220332
2414.000000	0.215582
2415.000000	0.212717
2416.000000	0.210255
2417.000000	0.210271
2418.000000	0.214020
2419.000000	0.208655
2420.000000	0.202408
2421.000000	0.197156
2422.000000	0.191880
2423.000000	0.193323
2424.000000	0.196830
2425.000000	0.199428
2426.000000	0.198086
2427.000000	0.191647
2428.000000	0.184322
2429.000000	0.179265
2430.000000	0.177649
2431.000000	0.176041
2432.000000	0.174110
2433.000000	0.181710
2434.000000	0.188577
2435.000000	0.192652
2436.000000	0.195838
2437.000000	0.185830
2438.000000	0.174375
2439.000000	0.173338
2440.000000	0.173976
2441.000000	0.174595
2442.000000	0.179183
2443.000000	0.173941
2444.000000	0.173650
2445.000000	0.187236
2446.000000	0.186772
2447.000000	0.182122
2448.000000	0.180105
2449.000000	0.171384
2450.000000	0.173699
2451.000000	0.192047
2452.000000	0.205932
2453.000000	0.204421
2454.000000	0.200478
2455.000000	0.190284
2456.000000	0.186877
2457.000000	0.203709
2458.000000	0.208247
2459.000000	0.207739
2460.000000	0.196673
2461.000000	0.170857
2462.000000	0.164090
2463.000000	0.148601
2464.000000	0.141259
2465.000000	0.149630
2466.000000	0.152582
2467.000000	0.169021
2468.000000	0.181333
2469.000000	0.184979
2470.000000	0.193225
2471.000000	0.210040
2472.000000	0.217173
2473.000000	0.220494
2474.000000	0.212390
2475.000000	0.200030
2476.000000	0.188385
2477.000000	0.143703
2478.000000	0.131342
2479.000000	0.127609
2480.000000	0.106896
2481.000000	0.137581
2482.000000	0.148931
2483.000000	0.156603
2484.000000	0.195567
2485.000000	0.205710
2486.000000	0.224881
2487.000000	0.205928
2488.000000	0.140213
2489.000000	0.132847
2490.000000	0.109160
2491.000000	0.115071
2492.000000	0.115277
2493.000000	0.112276
2494.000000	0.116974
2495.000000	0.128571
2496.000000	0.118345
2497.000000	0.076964
2498.000000	0.091772
2499.000000	0.150098
2500.000000	0.177507
