# Wavelength	SM1200H-50_HEX-20_FV7-30_00000.asd.rts.txt
350.000000	0.262091
351.000000	0.276271
352.000000	0.281705
353.000000	0.278428
354.000000	0.275776
355.000000	0.290853
356.000000	0.291015
357.000000	0.280147
358.000000	0.282125
359.000000	0.286082
360.000000	0.288770
361.000000	0.288895
362.000000	0.290451
363.000000	0.289344
364.000000	0.285567
365.000000	0.294595
366.000000	0.299517
367.000000	0.296524
368.000000	0.292642
369.000000	0.295894
370.000000	0.299000
371.000000	0.292723
372.000000	0.294574
373.000000	0.295919
374.000000	0.292468
375.000000	0.296317
376.000000	0.298973
377.000000	0.298577
378.000000	0.299703
379.000000	0.299398
380.000000	0.298913
381.000000	0.301320
382.000000	0.304003
383.000000	0.304675
384.000000	0.303481
385.000000	0.305360
386.000000	0.306222
387.000000	0.305860
388.000000	0.307757
389.000000	0.309606
390.000000	0.310322
391.000000	0.309094
392.000000	0.308797
393.000000	0.309409
394.000000	0.310306
395.000000	0.310679
396.000000	0.310067
397.000000	0.308827
398.000000	0.308356
399.000000	0.309770
400.000000	0.311975
401.000000	0.312672
402.000000	0.312015
403.000000	0.311279
404.000000	0.311738
405.000000	0.313088
406.000000	0.314043
407.000000	0.314248
408.000000	0.314553
409.000000	0.315163
410.000000	0.315882
411.000000	0.316181
412.000000	0.316502
413.000000	0.316751
414.000000	0.316830
415.000000	0.317114
416.000000	0.317524
417.000000	0.317961
418.000000	0.318322
419.000000	0.318857
420.000000	0.319507
421.000000	0.319930
422.000000	0.320234
423.000000	0.320597
424.000000	0.321261
425.000000	0.321659
426.000000	0.321574
427.000000	0.321140
428.000000	0.321503
429.000000	0.321940
430.000000	0.322235
431.000000	0.322842
432.000000	0.323069
433.000000	0.323056
434.000000	0.323441
435.000000	0.323752
436.000000	0.323994
437.000000	0.324184
438.000000	0.324074
439.000000	0.324252
440.000000	0.324935
441.000000	0.325119
442.000000	0.325499
443.000000	0.325812
444.000000	0.325361
445.000000	0.325541
446.000000	0.326199
447.000000	0.326553
448.000000	0.326822
449.000000	0.327058
450.000000	0.327310
451.000000	0.327579
452.000000	0.328061
453.000000	0.328512
454.000000	0.328417
455.000000	0.328507
456.000000	0.328852
457.000000	0.329027
458.000000	0.329312
459.000000	0.329606
460.000000	0.329883
461.000000	0.330386
462.000000	0.330774
463.000000	0.330775
464.000000	0.330880
465.000000	0.331270
466.000000	0.331768
467.000000	0.332099
468.000000	0.332095
469.000000	0.331961
470.000000	0.332182
471.000000	0.332553
472.000000	0.332743
473.000000	0.332682
474.000000	0.332820
475.000000	0.333070
476.000000	0.333434
477.000000	0.333521
478.000000	0.333436
479.000000	0.333600
480.000000	0.334072
481.000000	0.334260
482.000000	0.334579
483.000000	0.335098
484.000000	0.335368
485.000000	0.335366
486.000000	0.335455
487.000000	0.335980
488.000000	0.336140
489.000000	0.336076
490.000000	0.336534
491.000000	0.336773
492.000000	0.336949
493.000000	0.337234
494.000000	0.337634
495.000000	0.338010
496.000000	0.338220
497.000000	0.338350
498.000000	0.338627
499.000000	0.339086
500.000000	0.339256
501.000000	0.339494
502.000000	0.339825
503.000000	0.340033
504.000000	0.340361
505.000000	0.340645
506.000000	0.340742
507.000000	0.340917
508.000000	0.341214
509.000000	0.341574
510.000000	0.341951
511.000000	0.342310
512.000000	0.342675
513.000000	0.343038
514.000000	0.343394
515.000000	0.343728
516.000000	0.343950
517.000000	0.344173
518.000000	0.344484
519.000000	0.344805
520.000000	0.345086
521.000000	0.345309
522.000000	0.345517
523.000000	0.345849
524.000000	0.346163
525.000000	0.346432
526.000000	0.346737
527.000000	0.347006
528.000000	0.347273
529.000000	0.347631
530.000000	0.347884
531.000000	0.348146
532.000000	0.348396
533.000000	0.348668
534.000000	0.348944
535.000000	0.349211
536.000000	0.349510
537.000000	0.349773
538.000000	0.349999
539.000000	0.350203
540.000000	0.350545
541.000000	0.350875
542.000000	0.351102
543.000000	0.351335
544.000000	0.351613
545.000000	0.351878
546.000000	0.352212
547.000000	0.352551
548.000000	0.352886
549.000000	0.353115
550.000000	0.353358
551.000000	0.353700
552.000000	0.354114
553.000000	0.354341
554.000000	0.354604
555.000000	0.355041
556.000000	0.355351
557.000000	0.355568
558.000000	0.355885
559.000000	0.356234
560.000000	0.356525
561.000000	0.356845
562.000000	0.357170
563.000000	0.357445
564.000000	0.357706
565.000000	0.357893
566.000000	0.358267
567.000000	0.358641
568.000000	0.358890
569.000000	0.359181
570.000000	0.359474
571.000000	0.359757
572.000000	0.360074
573.000000	0.360407
574.000000	0.360677
575.000000	0.360880
576.000000	0.361226
577.000000	0.361557
578.000000	0.361812
579.000000	0.362038
580.000000	0.362327
581.000000	0.362684
582.000000	0.362988
583.000000	0.363269
584.000000	0.363570
585.000000	0.363958
586.000000	0.364250
587.000000	0.364487
588.000000	0.364757
589.000000	0.365066
590.000000	0.365336
591.000000	0.365536
592.000000	0.365766
593.000000	0.365986
594.000000	0.366185
595.000000	0.366397
596.000000	0.366612
597.000000	0.366815
598.000000	0.366880
599.000000	0.367010
600.000000	0.367230
601.000000	0.367441
602.000000	0.367740
603.000000	0.367964
604.000000	0.368085
605.000000	0.368273
606.000000	0.368482
607.000000	0.368675
608.000000	0.368803
609.000000	0.368968
610.000000	0.369168
611.000000	0.369373
612.000000	0.369586
613.000000	0.369744
614.000000	0.369861
615.000000	0.369957
616.000000	0.370113
617.000000	0.370269
618.000000	0.370335
619.000000	0.370381
620.000000	0.370454
621.000000	0.370659
622.000000	0.370831
623.000000	0.370967
624.000000	0.371084
625.000000	0.371151
626.000000	0.371297
627.000000	0.371521
628.000000	0.371581
629.000000	0.371702
630.000000	0.371770
631.000000	0.371861
632.000000	0.371919
633.000000	0.372005
634.000000	0.372155
635.000000	0.372276
636.000000	0.372443
637.000000	0.372660
638.000000	0.372843
639.000000	0.372975
640.000000	0.373136
641.000000	0.373288
642.000000	0.373389
643.000000	0.373496
644.000000	0.373686
645.000000	0.373833
646.000000	0.373959
647.000000	0.374067
648.000000	0.374214
649.000000	0.374332
650.000000	0.374416
651.000000	0.374623
652.000000	0.374762
653.000000	0.374886
654.000000	0.375044
655.000000	0.375199
656.000000	0.375371
657.000000	0.375512
658.000000	0.375680
659.000000	0.375846
660.000000	0.375990
661.000000	0.376186
662.000000	0.376292
663.000000	0.376384
664.000000	0.376537
665.000000	0.376724
666.000000	0.376894
667.000000	0.376979
668.000000	0.377136
669.000000	0.377303
670.000000	0.377427
671.000000	0.377451
672.000000	0.377545
673.000000	0.377723
674.000000	0.377899
675.000000	0.378006
676.000000	0.378098
677.000000	0.378274
678.000000	0.378440
679.000000	0.378632
680.000000	0.378855
681.000000	0.378952
682.000000	0.379107
683.000000	0.379257
684.000000	0.379370
685.000000	0.379542
686.000000	0.379772
687.000000	0.379951
688.000000	0.380033
689.000000	0.380130
690.000000	0.380352
691.000000	0.380559
692.000000	0.380656
693.000000	0.380745
694.000000	0.380950
695.000000	0.381105
696.000000	0.381199
697.000000	0.381291
698.000000	0.381471
699.000000	0.381652
700.000000	0.381770
701.000000	0.381868
702.000000	0.382014
703.000000	0.382179
704.000000	0.382265
705.000000	0.382406
706.000000	0.382572
707.000000	0.382779
708.000000	0.382956
709.000000	0.383101
710.000000	0.383255
711.000000	0.383429
712.000000	0.383576
713.000000	0.383728
714.000000	0.383969
715.000000	0.384128
716.000000	0.384185
717.000000	0.384167
718.000000	0.384252
719.000000	0.384349
720.000000	0.384393
721.000000	0.384527
722.000000	0.384606
723.000000	0.384680
724.000000	0.384849
725.000000	0.384981
726.000000	0.385125
727.000000	0.385197
728.000000	0.385282
729.000000	0.385387
730.000000	0.385448
731.000000	0.385541
732.000000	0.385655
733.000000	0.385820
734.000000	0.385971
735.000000	0.386043
736.000000	0.386172
737.000000	0.386254
738.000000	0.386246
739.000000	0.386330
740.000000	0.386413
741.000000	0.386478
742.000000	0.386599
743.000000	0.386728
744.000000	0.386783
745.000000	0.386803
746.000000	0.386882
747.000000	0.386995
748.000000	0.387169
749.000000	0.387325
750.000000	0.387378
751.000000	0.387401
752.000000	0.387455
753.000000	0.387544
754.000000	0.387588
755.000000	0.387677
756.000000	0.387793
757.000000	0.387839
758.000000	0.387871
759.000000	0.387936
760.000000	0.387980
761.000000	0.388109
762.000000	0.388153
763.000000	0.388099
764.000000	0.388133
765.000000	0.388167
766.000000	0.388244
767.000000	0.388393
768.000000	0.388546
769.000000	0.388619
770.000000	0.388620
771.000000	0.388667
772.000000	0.388729
773.000000	0.388736
774.000000	0.388764
775.000000	0.388774
776.000000	0.388792
777.000000	0.388819
778.000000	0.388872
779.000000	0.388880
780.000000	0.388876
781.000000	0.388964
782.000000	0.388959
783.000000	0.389039
784.000000	0.389195
785.000000	0.389279
786.000000	0.389302
787.000000	0.389289
788.000000	0.389294
789.000000	0.389300
790.000000	0.389284
791.000000	0.389283
792.000000	0.389277
793.000000	0.389330
794.000000	0.389466
795.000000	0.389497
796.000000	0.389576
797.000000	0.389691
798.000000	0.389668
799.000000	0.389675
800.000000	0.389710
801.000000	0.389730
802.000000	0.389722
803.000000	0.389655
804.000000	0.389576
805.000000	0.389513
806.000000	0.389436
807.000000	0.389426
808.000000	0.389423
809.000000	0.389509
810.000000	0.389591
811.000000	0.389567
812.000000	0.389469
813.000000	0.389398
814.000000	0.389384
815.000000	0.389418
816.000000	0.389439
817.000000	0.389471
818.000000	0.389443
819.000000	0.389434
820.000000	0.389398
821.000000	0.389297
822.000000	0.389304
823.000000	0.389305
824.000000	0.389261
825.000000	0.389305
826.000000	0.389324
827.000000	0.389294
828.000000	0.389269
829.000000	0.389259
830.000000	0.389211
831.000000	0.389176
832.000000	0.389047
833.000000	0.388984
834.000000	0.388914
835.000000	0.388833
836.000000	0.388859
837.000000	0.388884
838.000000	0.388853
839.000000	0.388708
840.000000	0.388635
841.000000	0.388609
842.000000	0.388535
843.000000	0.388552
844.000000	0.388602
845.000000	0.388588
846.000000	0.388471
847.000000	0.388417
848.000000	0.388384
849.000000	0.388335
850.000000	0.388333
851.000000	0.388294
852.000000	0.388235
853.000000	0.388168
854.000000	0.388055
855.000000	0.388011
856.000000	0.387940
857.000000	0.387845
858.000000	0.387803
859.000000	0.387736
860.000000	0.387618
861.000000	0.387593
862.000000	0.387597
863.000000	0.387415
864.000000	0.387235
865.000000	0.387107
866.000000	0.387048
867.000000	0.386933
868.000000	0.386863
869.000000	0.386745
870.000000	0.386579
871.000000	0.386445
872.000000	0.386344
873.000000	0.386206
874.000000	0.386122
875.000000	0.385967
876.000000	0.385764
877.000000	0.385512
878.000000	0.385243
879.000000	0.385112
880.000000	0.384989
881.000000	0.384811
882.000000	0.384622
883.000000	0.384449
884.000000	0.384245
885.000000	0.384170
886.000000	0.384112
887.000000	0.384014
888.000000	0.383858
889.000000	0.383650
890.000000	0.383411
891.000000	0.383397
892.000000	0.383194
893.000000	0.382938
894.000000	0.382831
895.000000	0.382609
896.000000	0.382412
897.000000	0.382300
898.000000	0.382265
899.000000	0.382060
900.000000	0.381748
901.000000	0.381425
902.000000	0.381378
903.000000	0.381218
904.000000	0.381026
905.000000	0.380860
906.000000	0.380828
907.000000	0.380675
908.000000	0.380442
909.000000	0.380271
910.000000	0.380083
911.000000	0.379909
912.000000	0.379765
913.000000	0.379432
914.000000	0.379124
915.000000	0.378917
916.000000	0.378582
917.000000	0.378400
918.000000	0.378287
919.000000	0.378104
920.000000	0.377851
921.000000	0.377530
922.000000	0.377278
923.000000	0.377208
924.000000	0.376944
925.000000	0.376602
926.000000	0.376334
927.000000	0.376091
928.000000	0.375933
929.000000	0.375708
930.000000	0.375309
931.000000	0.375239
932.000000	0.375072
933.000000	0.374758
934.000000	0.374560
935.000000	0.374233
936.000000	0.373894
937.000000	0.373571
938.000000	0.373328
939.000000	0.373205
940.000000	0.373024
941.000000	0.372705
942.000000	0.372359
943.000000	0.372116
944.000000	0.371821
945.000000	0.371331
946.000000	0.370959
947.000000	0.370668
948.000000	0.370279
949.000000	0.370101
950.000000	0.369925
951.000000	0.369656
952.000000	0.369483
953.000000	0.369409
954.000000	0.369240
955.000000	0.368858
956.000000	0.368779
957.000000	0.368724
958.000000	0.368570
959.000000	0.368413
960.000000	0.368204
961.000000	0.367922
962.000000	0.367573
963.000000	0.367264
964.000000	0.367174
965.000000	0.367141
966.000000	0.366870
967.000000	0.366581
968.000000	0.366175
969.000000	0.365777
970.000000	0.365687
971.000000	0.365345
972.000000	0.365292
973.000000	0.365429
974.000000	0.365028
975.000000	0.364580
976.000000	0.364287
977.000000	0.364150
978.000000	0.363821
979.000000	0.363646
980.000000	0.363366
981.000000	0.363122
982.000000	0.363185
983.000000	0.363110
984.000000	0.362870
985.000000	0.362724
986.000000	0.362355
987.000000	0.361794
988.000000	0.361234
989.000000	0.361674
990.000000	0.361373
991.000000	0.360880
992.000000	0.361242
993.000000	0.361354
994.000000	0.360965
995.000000	0.360542
996.000000	0.360515
997.000000	0.360692
998.000000	0.360565
999.000000	0.360208
1000.000000	0.360268
1001.000000	0.359981
1002.000000	0.360388
1003.000000	0.360672
1004.000000	0.360706
1005.000000	0.359990
1006.000000	0.359280
1007.000000	0.358517
1008.000000	0.358167
1009.000000	0.357569
1010.000000	0.356987
1011.000000	0.356838
1012.000000	0.357020
1013.000000	0.356712
1014.000000	0.356530
1015.000000	0.356947
1016.000000	0.357052
1017.000000	0.356713
1018.000000	0.357064
1019.000000	0.357146
1020.000000	0.357198
1021.000000	0.356720
1022.000000	0.356209
1023.000000	0.356010
1024.000000	0.355226
1025.000000	0.355375
1026.000000	0.356204
1027.000000	0.356176
1028.000000	0.356160
1029.000000	0.356258
1030.000000	0.355732
1031.000000	0.355968
1032.000000	0.356633
1033.000000	0.356481
1034.000000	0.356611
1035.000000	0.356812
1036.000000	0.356981
1037.000000	0.357298
1038.000000	0.357204
1039.000000	0.356914
1040.000000	0.356858
1041.000000	0.356775
1042.000000	0.356662
1043.000000	0.357407
1044.000000	0.357940
1045.000000	0.357671
1046.000000	0.357686
1047.000000	0.357757
1048.000000	0.357450
1049.000000	0.357470
1050.000000	0.358014
1051.000000	0.358112
1052.000000	0.357810
1053.000000	0.357917
1054.000000	0.358337
1055.000000	0.358650
1056.000000	0.359192
1057.000000	0.359762
1058.000000	0.359949
1059.000000	0.359859
1060.000000	0.359727
1061.000000	0.359676
1062.000000	0.359810
1063.000000	0.359963
1064.000000	0.360287
1065.000000	0.361043
1066.000000	0.361308
1067.000000	0.361296
1068.000000	0.361396
1069.000000	0.361265
1070.000000	0.361257
1071.000000	0.361391
1072.000000	0.361538
1073.000000	0.361746
1074.000000	0.362002
1075.000000	0.362097
1076.000000	0.362656
1077.000000	0.363192
1078.000000	0.363169
1079.000000	0.363113
1080.000000	0.362828
1081.000000	0.362775
1082.000000	0.362589
1083.000000	0.362796
1084.000000	0.363623
1085.000000	0.363931
1086.000000	0.363950
1087.000000	0.364224
1088.000000	0.364235
1089.000000	0.364452
1090.000000	0.364948
1091.000000	0.365442
1092.000000	0.365721
1093.000000	0.366060
1094.000000	0.366256
1095.000000	0.366236
1096.000000	0.366384
1097.000000	0.366510
1098.000000	0.366689
1099.000000	0.366834
1100.000000	0.367108
1101.000000	0.367645
1102.000000	0.367702
1103.000000	0.367222
1104.000000	0.367393
1105.000000	0.367598
1106.000000	0.367823
1107.000000	0.368717
1108.000000	0.369132
1109.000000	0.369353
1110.000000	0.369201
1111.000000	0.369275
1112.000000	0.369275
1113.000000	0.369394
1114.000000	0.369524
1115.000000	0.369787
1116.000000	0.370229
1117.000000	0.370484
1118.000000	0.370861
1119.000000	0.370914
1120.000000	0.370648
1121.000000	0.370543
1122.000000	0.370301
1123.000000	0.370532
1124.000000	0.370981
1125.000000	0.371164
1126.000000	0.371361
1127.000000	0.371384
1128.000000	0.371242
1129.000000	0.370672
1130.000000	0.370775
1131.000000	0.371162
1132.000000	0.371294
1133.000000	0.371737
1134.000000	0.371935
1135.000000	0.371723
1136.000000	0.371788
1137.000000	0.372086
1138.000000	0.372102
1139.000000	0.372035
1140.000000	0.372168
1141.000000	0.372134
1142.000000	0.372284
1143.000000	0.372758
1144.000000	0.373065
1145.000000	0.373246
1146.000000	0.373078
1147.000000	0.373000
1148.000000	0.372542
1149.000000	0.372529
1150.000000	0.372777
1151.000000	0.372825
1152.000000	0.372850
1153.000000	0.372936
1154.000000	0.372812
1155.000000	0.372864
1156.000000	0.373255
1157.000000	0.373332
1158.000000	0.373146
1159.000000	0.373142
1160.000000	0.373065
1161.000000	0.372996
1162.000000	0.373058
1163.000000	0.373334
1164.000000	0.373260
1165.000000	0.373303
1166.000000	0.373399
1167.000000	0.373455
1168.000000	0.373531
1169.000000	0.373742
1170.000000	0.373845
1171.000000	0.374077
1172.000000	0.374083
1173.000000	0.373828
1174.000000	0.373750
1175.000000	0.373494
1176.000000	0.373366
1177.000000	0.373588
1178.000000	0.373611
1179.000000	0.373535
1180.000000	0.373444
1181.000000	0.373399
1182.000000	0.373283
1183.000000	0.373348
1184.000000	0.373448
1185.000000	0.373483
1186.000000	0.373546
1187.000000	0.373566
1188.000000	0.373543
1189.000000	0.373479
1190.000000	0.373425
1191.000000	0.373434
1192.000000	0.373561
1193.000000	0.373697
1194.000000	0.373743
1195.000000	0.373822
1196.000000	0.373856
1197.000000	0.373815
1198.000000	0.373758
1199.000000	0.373751
1200.000000	0.373687
1201.000000	0.373626
1202.000000	0.373513
1203.000000	0.373489
1204.000000	0.373423
1205.000000	0.373338
1206.000000	0.373253
1207.000000	0.373362
1208.000000	0.373343
1209.000000	0.373298
1210.000000	0.373281
1211.000000	0.373351
1212.000000	0.373283
1213.000000	0.373110
1214.000000	0.373101
1215.000000	0.373072
1216.000000	0.373126
1217.000000	0.373324
1218.000000	0.373406
1219.000000	0.373524
1220.000000	0.373565
1221.000000	0.373623
1222.000000	0.373725
1223.000000	0.373775
1224.000000	0.373732
1225.000000	0.373592
1226.000000	0.373429
1227.000000	0.373301
1228.000000	0.373288
1229.000000	0.373201
1230.000000	0.373107
1231.000000	0.372994
1232.000000	0.372994
1233.000000	0.373042
1234.000000	0.373103
1235.000000	0.373112
1236.000000	0.373009
1237.000000	0.372993
1238.000000	0.372947
1239.000000	0.372874
1240.000000	0.372770
1241.000000	0.372740
1242.000000	0.372733
1243.000000	0.372793
1244.000000	0.372859
1245.000000	0.372968
1246.000000	0.373072
1247.000000	0.373143
1248.000000	0.373262
1249.000000	0.373361
1250.000000	0.373276
1251.000000	0.373195
1252.000000	0.373115
1253.000000	0.373024
1254.000000	0.372940
1255.000000	0.372854
1256.000000	0.372790
1257.000000	0.372739
1258.000000	0.372819
1259.000000	0.372893
1260.000000	0.373039
1261.000000	0.373320
1262.000000	0.373387
1263.000000	0.373434
1264.000000	0.373323
1265.000000	0.373130
1266.000000	0.372925
1267.000000	0.372870
1268.000000	0.372894
1269.000000	0.372843
1270.000000	0.372984
1271.000000	0.372917
1272.000000	0.372766
1273.000000	0.372976
1274.000000	0.372975
1275.000000	0.372924
1276.000000	0.373003
1277.000000	0.372990
1278.000000	0.372624
1279.000000	0.372506
1280.000000	0.372367
1281.000000	0.372264
1282.000000	0.372361
1283.000000	0.372382
1284.000000	0.372341
1285.000000	0.372369
1286.000000	0.372365
1287.000000	0.372266
1288.000000	0.372424
1289.000000	0.372317
1290.000000	0.372070
1291.000000	0.372007
1292.000000	0.371963
1293.000000	0.371866
1294.000000	0.371773
1295.000000	0.371828
1296.000000	0.371916
1297.000000	0.371927
1298.000000	0.372042
1299.000000	0.372105
1300.000000	0.372028
1301.000000	0.371958
1302.000000	0.371868
1303.000000	0.371927
1304.000000	0.371866
1305.000000	0.371871
1306.000000	0.371801
1307.000000	0.371691
1308.000000	0.371631
1309.000000	0.371620
1310.000000	0.371551
1311.000000	0.371507
1312.000000	0.371355
1313.000000	0.371235
1314.000000	0.371158
1315.000000	0.371055
1316.000000	0.371021
1317.000000	0.370945
1318.000000	0.370784
1319.000000	0.370664
1320.000000	0.370672
1321.000000	0.370665
1322.000000	0.370495
1323.000000	0.370343
1324.000000	0.370258
1325.000000	0.370120
1326.000000	0.370112
1327.000000	0.370083
1328.000000	0.369913
1329.000000	0.369704
1330.000000	0.369395
1331.000000	0.369257
1332.000000	0.369225
1333.000000	0.369154
1334.000000	0.369348
1335.000000	0.369254
1336.000000	0.368840
1337.000000	0.368685
1338.000000	0.368484
1339.000000	0.368320
1340.000000	0.368280
1341.000000	0.368280
1342.000000	0.368197
1343.000000	0.368125
1344.000000	0.368216
1345.000000	0.368201
1346.000000	0.368109
1347.000000	0.367873
1348.000000	0.367631
1349.000000	0.367591
1350.000000	0.367644
1351.000000	0.367492
1352.000000	0.367307
1353.000000	0.367032
1354.000000	0.366710
1355.000000	0.366590
1356.000000	0.366571
1357.000000	0.366378
1358.000000	0.366212
1359.000000	0.365945
1360.000000	0.365714
1361.000000	0.365448
1362.000000	0.365280
1363.000000	0.365225
1364.000000	0.365077
1365.000000	0.364924
1366.000000	0.364685
1367.000000	0.364343
1368.000000	0.363947
1369.000000	0.363790
1370.000000	0.363395
1371.000000	0.362903
1372.000000	0.362526
1373.000000	0.361990
1374.000000	0.361225
1375.000000	0.360550
1376.000000	0.359880
1377.000000	0.358979
1378.000000	0.358216
1379.000000	0.357111
1380.000000	0.355429
1381.000000	0.353542
1382.000000	0.351306
1383.000000	0.349058
1384.000000	0.346972
1385.000000	0.344858
1386.000000	0.342902
1387.000000	0.341057
1388.000000	0.339401
1389.000000	0.338227
1390.000000	0.337439
1391.000000	0.336906
1392.000000	0.336737
1393.000000	0.336707
1394.000000	0.337034
1395.000000	0.337198
1396.000000	0.337584
1397.000000	0.337695
1398.000000	0.337528
1399.000000	0.337498
1400.000000	0.337561
1401.000000	0.337288
1402.000000	0.336975
1403.000000	0.336548
1404.000000	0.335729
1405.000000	0.334828
1406.000000	0.334113
1407.000000	0.333411
1408.000000	0.332744
1409.000000	0.332228
1410.000000	0.331733
1411.000000	0.331183
1412.000000	0.330651
1413.000000	0.330281
1414.000000	0.329896
1415.000000	0.329503
1416.000000	0.329314
1417.000000	0.329175
1418.000000	0.328909
1419.000000	0.328688
1420.000000	0.328396
1421.000000	0.328233
1422.000000	0.328260
1423.000000	0.328363
1424.000000	0.328391
1425.000000	0.328397
1426.000000	0.328273
1427.000000	0.328284
1428.000000	0.328360
1429.000000	0.328341
1430.000000	0.328338
1431.000000	0.328279
1432.000000	0.328218
1433.000000	0.328119
1434.000000	0.328101
1435.000000	0.328279
1436.000000	0.328312
1437.000000	0.328346
1438.000000	0.328282
1439.000000	0.328101
1440.000000	0.327954
1441.000000	0.327792
1442.000000	0.327678
1443.000000	0.327497
1444.000000	0.327427
1445.000000	0.327354
1446.000000	0.327233
1447.000000	0.327105
1448.000000	0.326995
1449.000000	0.326881
1450.000000	0.326780
1451.000000	0.326735
1452.000000	0.326586
1453.000000	0.326388
1454.000000	0.326229
1455.000000	0.326051
1456.000000	0.325988
1457.000000	0.325992
1458.000000	0.325982
1459.000000	0.326003
1460.000000	0.325995
1461.000000	0.326000
1462.000000	0.326042
1463.000000	0.325940
1464.000000	0.325793
1465.000000	0.325818
1466.000000	0.325905
1467.000000	0.326178
1468.000000	0.326599
1469.000000	0.326860
1470.000000	0.326959
1471.000000	0.327125
1472.000000	0.327307
1473.000000	0.327677
1474.000000	0.328054
1475.000000	0.328296
1476.000000	0.328556
1477.000000	0.328914
1478.000000	0.329174
1479.000000	0.329426
1480.000000	0.329858
1481.000000	0.330185
1482.000000	0.330493
1483.000000	0.330803
1484.000000	0.331087
1485.000000	0.331359
1486.000000	0.331572
1487.000000	0.331909
1488.000000	0.332372
1489.000000	0.332753
1490.000000	0.332992
1491.000000	0.333294
1492.000000	0.333503
1493.000000	0.333835
1494.000000	0.334234
1495.000000	0.334571
1496.000000	0.334956
1497.000000	0.335261
1498.000000	0.335510
1499.000000	0.335756
1500.000000	0.336032
1501.000000	0.336250
1502.000000	0.336523
1503.000000	0.336854
1504.000000	0.337143
1505.000000	0.337364
1506.000000	0.337618
1507.000000	0.337809
1508.000000	0.337950
1509.000000	0.338166
1510.000000	0.338295
1511.000000	0.338449
1512.000000	0.338644
1513.000000	0.338774
1514.000000	0.338999
1515.000000	0.339159
1516.000000	0.339264
1517.000000	0.339401
1518.000000	0.339519
1519.000000	0.339558
1520.000000	0.339658
1521.000000	0.339836
1522.000000	0.340099
1523.000000	0.340351
1524.000000	0.340502
1525.000000	0.340670
1526.000000	0.340832
1527.000000	0.341064
1528.000000	0.341284
1529.000000	0.341411
1530.000000	0.341474
1531.000000	0.341491
1532.000000	0.341509
1533.000000	0.341562
1534.000000	0.341565
1535.000000	0.341532
1536.000000	0.341567
1537.000000	0.341762
1538.000000	0.342033
1539.000000	0.342207
1540.000000	0.342322
1541.000000	0.342542
1542.000000	0.342659
1543.000000	0.342711
1544.000000	0.342881
1545.000000	0.342941
1546.000000	0.342955
1547.000000	0.343123
1548.000000	0.343253
1549.000000	0.343348
1550.000000	0.343512
1551.000000	0.343648
1552.000000	0.343760
1553.000000	0.343874
1554.000000	0.343927
1555.000000	0.344001
1556.000000	0.344089
1557.000000	0.344129
1558.000000	0.344243
1559.000000	0.344426
1560.000000	0.344311
1561.000000	0.344102
1562.000000	0.343969
1563.000000	0.343627
1564.000000	0.343576
1565.000000	0.343824
1566.000000	0.343785
1567.000000	0.343763
1568.000000	0.343771
1569.000000	0.343775
1570.000000	0.343782
1571.000000	0.343875
1572.000000	0.343888
1573.000000	0.343803
1574.000000	0.343821
1575.000000	0.343882
1576.000000	0.343962
1577.000000	0.344135
1578.000000	0.344182
1579.000000	0.344174
1580.000000	0.344236
1581.000000	0.344376
1582.000000	0.344456
1583.000000	0.344572
1584.000000	0.344630
1585.000000	0.344774
1586.000000	0.344773
1587.000000	0.344628
1588.000000	0.344607
1589.000000	0.344523
1590.000000	0.344498
1591.000000	0.344664
1592.000000	0.344771
1593.000000	0.344838
1594.000000	0.344891
1595.000000	0.345033
1596.000000	0.345108
1597.000000	0.345157
1598.000000	0.345207
1599.000000	0.345300
1600.000000	0.345317
1601.000000	0.345405
1602.000000	0.345393
1603.000000	0.345267
1604.000000	0.345237
1605.000000	0.345232
1606.000000	0.345213
1607.000000	0.345332
1608.000000	0.345393
1609.000000	0.345478
1610.000000	0.345448
1611.000000	0.345383
1612.000000	0.345335
1613.000000	0.345278
1614.000000	0.345324
1615.000000	0.345558
1616.000000	0.345699
1617.000000	0.345822
1618.000000	0.345837
1619.000000	0.345703
1620.000000	0.345711
1621.000000	0.345757
1622.000000	0.345850
1623.000000	0.346022
1624.000000	0.346081
1625.000000	0.345928
1626.000000	0.345829
1627.000000	0.345726
1628.000000	0.345719
1629.000000	0.345750
1630.000000	0.345747
1631.000000	0.345679
1632.000000	0.345651
1633.000000	0.345674
1634.000000	0.345675
1635.000000	0.345737
1636.000000	0.345739
1637.000000	0.345639
1638.000000	0.345643
1639.000000	0.345751
1640.000000	0.345884
1641.000000	0.346218
1642.000000	0.346406
1643.000000	0.346557
1644.000000	0.346725
1645.000000	0.346847
1646.000000	0.346943
1647.000000	0.347167
1648.000000	0.347206
1649.000000	0.347151
1650.000000	0.347247
1651.000000	0.347389
1652.000000	0.347504
1653.000000	0.347669
1654.000000	0.347749
1655.000000	0.347661
1656.000000	0.347570
1657.000000	0.347519
1658.000000	0.347566
1659.000000	0.347767
1660.000000	0.347861
1661.000000	0.347884
1662.000000	0.347943
1663.000000	0.347903
1664.000000	0.347927
1665.000000	0.348065
1666.000000	0.348193
1667.000000	0.348134
1668.000000	0.348244
1669.000000	0.348451
1670.000000	0.348508
1671.000000	0.348715
1672.000000	0.348788
1673.000000	0.348668
1674.000000	0.348812
1675.000000	0.348943
1676.000000	0.349168
1677.000000	0.349360
1678.000000	0.349430
1679.000000	0.349488
1680.000000	0.349479
1681.000000	0.349432
1682.000000	0.349281
1683.000000	0.349306
1684.000000	0.349403
1685.000000	0.349383
1686.000000	0.349398
1687.000000	0.349375
1688.000000	0.349336
1689.000000	0.349419
1690.000000	0.349474
1691.000000	0.349496
1692.000000	0.349414
1693.000000	0.349401
1694.000000	0.349400
1695.000000	0.349487
1696.000000	0.349544
1697.000000	0.349500
1698.000000	0.349443
1699.000000	0.349468
1700.000000	0.349429
1701.000000	0.349570
1702.000000	0.349769
1703.000000	0.349783
1704.000000	0.349882
1705.000000	0.349898
1706.000000	0.349749
1707.000000	0.349713
1708.000000	0.349685
1709.000000	0.349589
1710.000000	0.349589
1711.000000	0.349620
1712.000000	0.349684
1713.000000	0.349722
1714.000000	0.349855
1715.000000	0.349928
1716.000000	0.349948
1717.000000	0.349981
1718.000000	0.350009
1719.000000	0.349969
1720.000000	0.349944
1721.000000	0.349885
1722.000000	0.349690
1723.000000	0.349693
1724.000000	0.349896
1725.000000	0.349917
1726.000000	0.349861
1727.000000	0.349827
1728.000000	0.349545
1729.000000	0.349414
1730.000000	0.349603
1731.000000	0.349587
1732.000000	0.349532
1733.000000	0.349528
1734.000000	0.349300
1735.000000	0.349255
1736.000000	0.349230
1737.000000	0.349291
1738.000000	0.349506
1739.000000	0.349589
1740.000000	0.349639
1741.000000	0.349727
1742.000000	0.349757
1743.000000	0.349971
1744.000000	0.350349
1745.000000	0.350436
1746.000000	0.350427
1747.000000	0.350588
1748.000000	0.350560
1749.000000	0.350632
1750.000000	0.350547
1751.000000	0.350193
1752.000000	0.350135
1753.000000	0.350103
1754.000000	0.350028
1755.000000	0.350041
1756.000000	0.349933
1757.000000	0.349580
1758.000000	0.349485
1759.000000	0.349554
1760.000000	0.349488
1761.000000	0.349469
1762.000000	0.349383
1763.000000	0.349120
1764.000000	0.348984
1765.000000	0.348906
1766.000000	0.348822
1767.000000	0.348637
1768.000000	0.348514
1769.000000	0.348531
1770.000000	0.348578
1771.000000	0.348688
1772.000000	0.348655
1773.000000	0.348428
1774.000000	0.348466
1775.000000	0.348694
1776.000000	0.348689
1777.000000	0.348716
1778.000000	0.348642
1779.000000	0.348264
1780.000000	0.348141
1781.000000	0.348095
1782.000000	0.348196
1783.000000	0.348496
1784.000000	0.348713
1785.000000	0.348632
1786.000000	0.348523
1787.000000	0.348333
1788.000000	0.348287
1789.000000	0.348407
1790.000000	0.348514
1791.000000	0.348516
1792.000000	0.348537
1793.000000	0.348631
1794.000000	0.348817
1795.000000	0.348875
1796.000000	0.348912
1797.000000	0.348927
1798.000000	0.348752
1799.000000	0.348693
1800.000000	0.348811
1801.000000	0.348446
1802.000000	0.348650
1803.000000	0.349160
1804.000000	0.349630
1805.000000	0.350667
1806.000000	0.351127
1807.000000	0.351186
1808.000000	0.351425
1809.000000	0.351467
1810.000000	0.351746
1811.000000	0.351812
1812.000000	0.352079
1813.000000	0.352010
1814.000000	0.351817
1815.000000	0.351308
1816.000000	0.350211
1817.000000	0.349468
1818.000000	0.348221
1819.000000	0.348007
1820.000000	0.348174
1821.000000	0.349390
1822.000000	0.349819
1823.000000	0.350409
1824.000000	0.350671
1825.000000	0.350501
1826.000000	0.350447
1827.000000	0.350386
1828.000000	0.350096
1829.000000	0.350136
1830.000000	0.349411
1831.000000	0.348989
1832.000000	0.348679
1833.000000	0.348362
1834.000000	0.347878
1835.000000	0.347513
1836.000000	0.347066
1837.000000	0.346805
1838.000000	0.346387
1839.000000	0.346142
1840.000000	0.346398
1841.000000	0.346999
1842.000000	0.347485
1843.000000	0.348780
1844.000000	0.349009
1845.000000	0.348401
1846.000000	0.348198
1847.000000	0.347842
1848.000000	0.346476
1849.000000	0.346236
1850.000000	0.345831
1851.000000	0.345687
1852.000000	0.346049
1853.000000	0.345763
1854.000000	0.344975
1855.000000	0.344508
1856.000000	0.343968
1857.000000	0.342636
1858.000000	0.341965
1859.000000	0.341929
1860.000000	0.341329
1861.000000	0.340870
1862.000000	0.340321
1863.000000	0.340209
1864.000000	0.339484
1865.000000	0.338337
1866.000000	0.337087
1867.000000	0.335763
1868.000000	0.333698
1869.000000	0.331163
1870.000000	0.329699
1871.000000	0.328871
1872.000000	0.327338
1873.000000	0.325945
1874.000000	0.325427
1875.000000	0.323814
1876.000000	0.320947
1877.000000	0.318546
1878.000000	0.316880
1879.000000	0.313692
1880.000000	0.310772
1881.000000	0.308205
1882.000000	0.304150
1883.000000	0.299828
1884.000000	0.296428
1885.000000	0.293330
1886.000000	0.289920
1887.000000	0.286626
1888.000000	0.283870
1889.000000	0.280589
1890.000000	0.276752
1891.000000	0.273085
1892.000000	0.268785
1893.000000	0.264452
1894.000000	0.259899
1895.000000	0.255809
1896.000000	0.251919
1897.000000	0.248950
1898.000000	0.245655
1899.000000	0.243183
1900.000000	0.240271
1901.000000	0.237379
1902.000000	0.235448
1903.000000	0.233032
1904.000000	0.231664
1905.000000	0.230489
1906.000000	0.229151
1907.000000	0.227742
1908.000000	0.226834
1909.000000	0.225699
1910.000000	0.225080
1911.000000	0.224462
1912.000000	0.224383
1913.000000	0.224757
1914.000000	0.224719
1915.000000	0.224938
1916.000000	0.224805
1917.000000	0.224800
1918.000000	0.224728
1919.000000	0.225137
1920.000000	0.225552
1921.000000	0.226242
1922.000000	0.226429
1923.000000	0.225993
1924.000000	0.225271
1925.000000	0.224854
1926.000000	0.225137
1927.000000	0.225835
1928.000000	0.226460
1929.000000	0.227646
1930.000000	0.228335
1931.000000	0.228560
1932.000000	0.229190
1933.000000	0.229432
1934.000000	0.229690
1935.000000	0.230529
1936.000000	0.230794
1937.000000	0.231197
1938.000000	0.231834
1939.000000	0.232448
1940.000000	0.232980
1941.000000	0.233708
1942.000000	0.234201
1943.000000	0.234380
1944.000000	0.234345
1945.000000	0.234482
1946.000000	0.234715
1947.000000	0.234918
1948.000000	0.234958
1949.000000	0.234935
1950.000000	0.234813
1951.000000	0.234383
1952.000000	0.233761
1953.000000	0.233379
1954.000000	0.232843
1955.000000	0.232711
1956.000000	0.233178
1957.000000	0.233108
1958.000000	0.233208
1959.000000	0.233346
1960.000000	0.233273
1961.000000	0.233815
1962.000000	0.234413
1963.000000	0.235476
1964.000000	0.235987
1965.000000	0.236132
1966.000000	0.236077
1967.000000	0.235665
1968.000000	0.235847
1969.000000	0.236512
1970.000000	0.237234
1971.000000	0.238084
1972.000000	0.238827
1973.000000	0.239106
1974.000000	0.239158
1975.000000	0.239326
1976.000000	0.239327
1977.000000	0.238983
1978.000000	0.239313
1979.000000	0.239408
1980.000000	0.239502
1981.000000	0.240153
1982.000000	0.240520
1983.000000	0.241702
1984.000000	0.242395
1985.000000	0.243075
1986.000000	0.243559
1987.000000	0.244120
1988.000000	0.243874
1989.000000	0.243753
1990.000000	0.244322
1991.000000	0.245090
1992.000000	0.246026
1993.000000	0.246609
1994.000000	0.247244
1995.000000	0.247796
1996.000000	0.248250
1997.000000	0.249037
1998.000000	0.250579
1999.000000	0.251815
2000.000000	0.253047
2001.000000	0.254110
2002.000000	0.254911
2003.000000	0.256035
2004.000000	0.256777
2005.000000	0.256673
2006.000000	0.257185
2007.000000	0.257834
2008.000000	0.258411
2009.000000	0.259100
2010.000000	0.259918
2011.000000	0.260585
2012.000000	0.261075
2013.000000	0.261430
2014.000000	0.261715
2015.000000	0.262176
2016.000000	0.263596
2017.000000	0.265202
2018.000000	0.265917
2019.000000	0.266634
2020.000000	0.266976
2021.000000	0.267383
2022.000000	0.267672
2023.000000	0.268073
2024.000000	0.268343
2025.000000	0.268929
2026.000000	0.269323
2027.000000	0.270104
2028.000000	0.271331
2029.000000	0.272393
2030.000000	0.273714
2031.000000	0.274335
2032.000000	0.274870
2033.000000	0.275613
2034.000000	0.276174
2035.000000	0.276816
2036.000000	0.277217
2037.000000	0.277499
2038.000000	0.277795
2039.000000	0.277953
2040.000000	0.278224
2041.000000	0.278740
2042.000000	0.279320
2043.000000	0.279483
2044.000000	0.279872
2045.000000	0.280056
2046.000000	0.279931
2047.000000	0.280309
2048.000000	0.281089
2049.000000	0.281491
2050.000000	0.281570
2051.000000	0.281897
2052.000000	0.281754
2053.000000	0.282163
2054.000000	0.283153
2055.000000	0.284368
2056.000000	0.285864
2057.000000	0.287091
2058.000000	0.287991
2059.000000	0.288942
2060.000000	0.289432
2061.000000	0.289380
2062.000000	0.289534
2063.000000	0.289647
2064.000000	0.289456
2065.000000	0.289160
2066.000000	0.289175
2067.000000	0.289313
2068.000000	0.289575
2069.000000	0.290749
2070.000000	0.291725
2071.000000	0.292236
2072.000000	0.292443
2073.000000	0.292282
2074.000000	0.292172
2075.000000	0.292559
2076.000000	0.293743
2077.000000	0.294155
2078.000000	0.294481
2079.000000	0.294699
2080.000000	0.294204
2081.000000	0.294279
2082.000000	0.294677
2083.000000	0.295227
2084.000000	0.295878
2085.000000	0.296116
2086.000000	0.295948
2087.000000	0.296376
2088.000000	0.296255
2089.000000	0.296605
2090.000000	0.297109
2091.000000	0.297922
2092.000000	0.298408
2093.000000	0.299194
2094.000000	0.299563
2095.000000	0.299525
2096.000000	0.299904
2097.000000	0.300246
2098.000000	0.300564
2099.000000	0.301076
2100.000000	0.301245
2101.000000	0.301199
2102.000000	0.301223
2103.000000	0.301859
2104.000000	0.302795
2105.000000	0.303077
2106.000000	0.303094
2107.000000	0.303531
2108.000000	0.303602
2109.000000	0.303834
2110.000000	0.304501
2111.000000	0.304893
2112.000000	0.304671
2113.000000	0.304842
2114.000000	0.305325
2115.000000	0.305888
2116.000000	0.306241
2117.000000	0.305592
2118.000000	0.305253
2119.000000	0.304841
2120.000000	0.305067
2121.000000	0.305962
2122.000000	0.306636
2123.000000	0.308050
2124.000000	0.308388
2125.000000	0.307938
2126.000000	0.307804
2127.000000	0.307196
2128.000000	0.306983
2129.000000	0.306700
2130.000000	0.307078
2131.000000	0.307837
2132.000000	0.308086
2133.000000	0.308602
2134.000000	0.309145
2135.000000	0.309730
2136.000000	0.309882
2137.000000	0.309963
2138.000000	0.310325
2139.000000	0.310358
2140.000000	0.309755
2141.000000	0.309552
2142.000000	0.309557
2143.000000	0.309067
2144.000000	0.308460
2145.000000	0.308134
2146.000000	0.307860
2147.000000	0.307671
2148.000000	0.307998
2149.000000	0.308337
2150.000000	0.308532
2151.000000	0.309256
2152.000000	0.309966
2153.000000	0.310205
2154.000000	0.310315
2155.000000	0.310188
2156.000000	0.310311
2157.000000	0.310522
2158.000000	0.310357
2159.000000	0.310145
2160.000000	0.310020
2161.000000	0.309212
2162.000000	0.309227
2163.000000	0.310013
2164.000000	0.310301
2165.000000	0.310620
2166.000000	0.310973
2167.000000	0.310739
2168.000000	0.310340
2169.000000	0.311287
2170.000000	0.311946
2171.000000	0.312176
2172.000000	0.312846
2173.000000	0.312844
2174.000000	0.311568
2175.000000	0.311382
2176.000000	0.311589
2177.000000	0.311807
2178.000000	0.313061
2179.000000	0.313028
2180.000000	0.312091
2181.000000	0.311659
2182.000000	0.309992
2183.000000	0.308416
2184.000000	0.308344
2185.000000	0.309968
2186.000000	0.311223
2187.000000	0.312496
2188.000000	0.313837
2189.000000	0.313831
2190.000000	0.314004
2191.000000	0.315612
2192.000000	0.315770
2193.000000	0.315301
2194.000000	0.314166
2195.000000	0.311626
2196.000000	0.309868
2197.000000	0.306983
2198.000000	0.305753
2199.000000	0.306394
2200.000000	0.306258
2201.000000	0.306859
2202.000000	0.307633
2203.000000	0.308013
2204.000000	0.307921
2205.000000	0.310518
2206.000000	0.312220
2207.000000	0.312467
2208.000000	0.312517
2209.000000	0.312078
2210.000000	0.310956
2211.000000	0.309662
2212.000000	0.309642
2213.000000	0.309891
2214.000000	0.310028
2215.000000	0.309689
2216.000000	0.310089
2217.000000	0.310663
2218.000000	0.310432
2219.000000	0.310514
2220.000000	0.312324
2221.000000	0.312605
2222.000000	0.311486
2223.000000	0.310945
2224.000000	0.310341
2225.000000	0.308835
2226.000000	0.310067
2227.000000	0.310617
2228.000000	0.311981
2229.000000	0.311983
2230.000000	0.308039
2231.000000	0.305884
2232.000000	0.304504
2233.000000	0.304683
2234.000000	0.306437
2235.000000	0.308034
2236.000000	0.308827
2237.000000	0.308361
2238.000000	0.308681
2239.000000	0.309849
2240.000000	0.309137
2241.000000	0.307442
2242.000000	0.306780
2243.000000	0.304985
2244.000000	0.304242
2245.000000	0.304819
2246.000000	0.304818
2247.000000	0.304089
2248.000000	0.304134
2249.000000	0.304862
2250.000000	0.305874
2251.000000	0.306446
2252.000000	0.306824
2253.000000	0.306685
2254.000000	0.307379
2255.000000	0.308168
2256.000000	0.309457
2257.000000	0.311188
2258.000000	0.311998
2259.000000	0.311310
2260.000000	0.309151
2261.000000	0.307112
2262.000000	0.304048
2263.000000	0.301312
2264.000000	0.297516
2265.000000	0.296777
2266.000000	0.297101
2267.000000	0.297343
2268.000000	0.299991
2269.000000	0.300914
2270.000000	0.300858
2271.000000	0.300985
2272.000000	0.301476
2273.000000	0.301492
2274.000000	0.301378
2275.000000	0.300166
2276.000000	0.297836
2277.000000	0.295244
2278.000000	0.294808
2279.000000	0.293047
2280.000000	0.291049
2281.000000	0.290015
2282.000000	0.287117
2283.000000	0.284449
2284.000000	0.283820
2285.000000	0.283380
2286.000000	0.282549
2287.000000	0.281639
2288.000000	0.280505
2289.000000	0.279889
2290.000000	0.278742
2291.000000	0.277814
2292.000000	0.277818
2293.000000	0.277021
2294.000000	0.276481
2295.000000	0.277009
2296.000000	0.276263
2297.000000	0.274233
2298.000000	0.272997
2299.000000	0.270858
2300.000000	0.269612
2301.000000	0.269726
2302.000000	0.269717
2303.000000	0.270577
2304.000000	0.270181
2305.000000	0.269505
2306.000000	0.267654
2307.000000	0.263634
2308.000000	0.261512
2309.000000	0.260026
2310.000000	0.257748
2311.000000	0.258129
2312.000000	0.257840
2313.000000	0.258397
2314.000000	0.261025
2315.000000	0.261531
2316.000000	0.262891
2317.000000	0.263017
2318.000000	0.260794
2319.000000	0.259151
2320.000000	0.257351
2321.000000	0.257084
2322.000000	0.257321
2323.000000	0.258886
2324.000000	0.262153
2325.000000	0.262805
2326.000000	0.263567
2327.000000	0.265612
2328.000000	0.266759
2329.000000	0.271000
2330.000000	0.275190
2331.000000	0.275618
2332.000000	0.276788
2333.000000	0.276119
2334.000000	0.273946
2335.000000	0.273002
2336.000000	0.271816
2337.000000	0.271239
2338.000000	0.271287
2339.000000	0.271044
2340.000000	0.271494
2341.000000	0.271366
2342.000000	0.270563
2343.000000	0.270092
2344.000000	0.269863
2345.000000	0.269039
2346.000000	0.267627
2347.000000	0.267100
2348.000000	0.266375
2349.000000	0.266693
2350.000000	0.269119
2351.000000	0.270813
2352.000000	0.270585
2353.000000	0.269893
2354.000000	0.266333
2355.000000	0.263486
2356.000000	0.263846
2357.000000	0.261368
2358.000000	0.261074
2359.000000	0.261142
2360.000000	0.257914
2361.000000	0.260568
2362.000000	0.262474
2363.000000	0.263269
2364.000000	0.262704
2365.000000	0.259235
2366.000000	0.255651
2367.000000	0.251381
2368.000000	0.249602
2369.000000	0.249561
2370.000000	0.248202
2371.000000	0.243164
2372.000000	0.240211
2373.000000	0.236321
2374.000000	0.232928
2375.000000	0.236588
2376.000000	0.237154
2377.000000	0.234798
2378.000000	0.233302
2379.000000	0.229704
2380.000000	0.227935
2381.000000	0.229928
2382.000000	0.231458
2383.000000	0.231799
2384.000000	0.236674
2385.000000	0.239185
2386.000000	0.236383
2387.000000	0.237535
2388.000000	0.230970
2389.000000	0.223228
2390.000000	0.224289
2391.000000	0.222401
2392.000000	0.220074
2393.000000	0.222546
2394.000000	0.228556
2395.000000	0.233195
2396.000000	0.238232
2397.000000	0.240800
2398.000000	0.235887
2399.000000	0.231163
2400.000000	0.224015
2401.000000	0.218569
2402.000000	0.221937
2403.000000	0.225232
2404.000000	0.230662
2405.000000	0.235870
2406.000000	0.234321
2407.000000	0.228438
2408.000000	0.225769
2409.000000	0.227614
2410.000000	0.227460
2411.000000	0.232483
2412.000000	0.235279
2413.000000	0.233303
2414.000000	0.230099
2415.000000	0.218547
2416.000000	0.213543
2417.000000	0.212155
2418.000000	0.210206
2419.000000	0.215527
2420.000000	0.213853
2421.000000	0.209511
2422.000000	0.205715
2423.000000	0.205611
2424.000000	0.205113
2425.000000	0.199894
2426.000000	0.206985
2427.000000	0.208061
2428.000000	0.205573
2429.000000	0.206176
2430.000000	0.196375
2431.000000	0.191195
2432.000000	0.190296
2433.000000	0.192881
2434.000000	0.203181
2435.000000	0.206993
2436.000000	0.208832
2437.000000	0.209534
2438.000000	0.194125
2439.000000	0.177910
2440.000000	0.175179
2441.000000	0.178770
2442.000000	0.189315
2443.000000	0.212049
2444.000000	0.227008
2445.000000	0.231975
2446.000000	0.245797
2447.000000	0.248345
2448.000000	0.235133
2449.000000	0.216016
2450.000000	0.196628
2451.000000	0.188348
2452.000000	0.182487
2453.000000	0.179341
2454.000000	0.180200
2455.000000	0.169527
2456.000000	0.158582
2457.000000	0.166070
2458.000000	0.176299
2459.000000	0.184513
2460.000000	0.195797
2461.000000	0.189520
2462.000000	0.180601
2463.000000	0.178201
2464.000000	0.170016
2465.000000	0.175436
2466.000000	0.185554
2467.000000	0.182048
2468.000000	0.186451
2469.000000	0.197753
2470.000000	0.189587
2471.000000	0.189424
2472.000000	0.220082
2473.000000	0.219407
2474.000000	0.199477
2475.000000	0.204348
2476.000000	0.180465
2477.000000	0.154351
2478.000000	0.170892
2479.000000	0.180696
2480.000000	0.168264
2481.000000	0.172641
2482.000000	0.186212
2483.000000	0.165456
2484.000000	0.147694
2485.000000	0.148647
2486.000000	0.164429
2487.000000	0.199560
2488.000000	0.228031
2489.000000	0.238086
2490.000000	0.201480
2491.000000	0.169112
2492.000000	0.147680
2493.000000	0.117037
2494.000000	0.125943
2495.000000	0.183811
2496.000000	0.190947
2497.000000	0.218747
2498.000000	0.205889
2499.000000	0.116153
2500.000000	0.069116
