# Wavelength	SM1200H-40_HEX-50_FV7-10_00001.asd.rts.txt
350.000000	0.418396
351.000000	0.429506
352.000000	0.410170
353.000000	0.395470
354.000000	0.402389
355.000000	0.401215
356.000000	0.411564
357.000000	0.427105
358.000000	0.415669
359.000000	0.412305
360.000000	0.417164
361.000000	0.420887
362.000000	0.420447
363.000000	0.414800
364.000000	0.407701
365.000000	0.418577
366.000000	0.422474
367.000000	0.415136
368.000000	0.411367
369.000000	0.415490
370.000000	0.421975
371.000000	0.422930
372.000000	0.421453
373.000000	0.420771
374.000000	0.423418
375.000000	0.427959
376.000000	0.427410
377.000000	0.423370
378.000000	0.426317
379.000000	0.427890
380.000000	0.427352
381.000000	0.427520
382.000000	0.426060
383.000000	0.424289
384.000000	0.423699
385.000000	0.423124
386.000000	0.426392
387.000000	0.431661
388.000000	0.429696
389.000000	0.430115
390.000000	0.432585
391.000000	0.433166
392.000000	0.433917
393.000000	0.433181
394.000000	0.430849
395.000000	0.433659
396.000000	0.435339
397.000000	0.434181
398.000000	0.434605
399.000000	0.434897
400.000000	0.435222
401.000000	0.436073
402.000000	0.436618
403.000000	0.436601
404.000000	0.436370
405.000000	0.436752
406.000000	0.437796
407.000000	0.439129
408.000000	0.439426
409.000000	0.439720
410.000000	0.440287
411.000000	0.440951
412.000000	0.440984
413.000000	0.440937
414.000000	0.441467
415.000000	0.441715
416.000000	0.442135
417.000000	0.442850
418.000000	0.442972
419.000000	0.443479
420.000000	0.444324
421.000000	0.444580
422.000000	0.444848
423.000000	0.444996
424.000000	0.444945
425.000000	0.445653
426.000000	0.446146
427.000000	0.445886
428.000000	0.446515
429.000000	0.447357
430.000000	0.447925
431.000000	0.447798
432.000000	0.448205
433.000000	0.448909
434.000000	0.449195
435.000000	0.449219
436.000000	0.449275
437.000000	0.449575
438.000000	0.450001
439.000000	0.450565
440.000000	0.451148
441.000000	0.450520
442.000000	0.450796
443.000000	0.451804
444.000000	0.452060
445.000000	0.452006
446.000000	0.452140
447.000000	0.452615
448.000000	0.453371
449.000000	0.453990
450.000000	0.454257
451.000000	0.454471
452.000000	0.454670
453.000000	0.454741
454.000000	0.454755
455.000000	0.455300
456.000000	0.456105
457.000000	0.456254
458.000000	0.456652
459.000000	0.457174
460.000000	0.457639
461.000000	0.457891
462.000000	0.458254
463.000000	0.458566
464.000000	0.458731
465.000000	0.458820
466.000000	0.458815
467.000000	0.458896
468.000000	0.459222
469.000000	0.459373
470.000000	0.459235
471.000000	0.459420
472.000000	0.459744
473.000000	0.460117
474.000000	0.460754
475.000000	0.461117
476.000000	0.461315
477.000000	0.461508
478.000000	0.461695
479.000000	0.462018
480.000000	0.462042
481.000000	0.462067
482.000000	0.462324
483.000000	0.462579
484.000000	0.463052
485.000000	0.463271
486.000000	0.463406
487.000000	0.463762
488.000000	0.464082
489.000000	0.464343
490.000000	0.464620
491.000000	0.464869
492.000000	0.465247
493.000000	0.465659
494.000000	0.465880
495.000000	0.466192
496.000000	0.466666
497.000000	0.466983
498.000000	0.467231
499.000000	0.467575
500.000000	0.467951
501.000000	0.468073
502.000000	0.468221
503.000000	0.468742
504.000000	0.469020
505.000000	0.469262
506.000000	0.469705
507.000000	0.469889
508.000000	0.470112
509.000000	0.470467
510.000000	0.470840
511.000000	0.471201
512.000000	0.471550
513.000000	0.471806
514.000000	0.472124
515.000000	0.472489
516.000000	0.472739
517.000000	0.473132
518.000000	0.473563
519.000000	0.473807
520.000000	0.474141
521.000000	0.474468
522.000000	0.474754
523.000000	0.475012
524.000000	0.475368
525.000000	0.475719
526.000000	0.475919
527.000000	0.476115
528.000000	0.476333
529.000000	0.476649
530.000000	0.476912
531.000000	0.477231
532.000000	0.477518
533.000000	0.477781
534.000000	0.478080
535.000000	0.478411
536.000000	0.478785
537.000000	0.479076
538.000000	0.479318
539.000000	0.479591
540.000000	0.479928
541.000000	0.480227
542.000000	0.480482
543.000000	0.480834
544.000000	0.481179
545.000000	0.481374
546.000000	0.481623
547.000000	0.481920
548.000000	0.482282
549.000000	0.482564
550.000000	0.482879
551.000000	0.483272
552.000000	0.483658
553.000000	0.483928
554.000000	0.484217
555.000000	0.484623
556.000000	0.485023
557.000000	0.485298
558.000000	0.485635
559.000000	0.485986
560.000000	0.486248
561.000000	0.486538
562.000000	0.486811
563.000000	0.487150
564.000000	0.487530
565.000000	0.487750
566.000000	0.488074
567.000000	0.488435
568.000000	0.488747
569.000000	0.489076
570.000000	0.489387
571.000000	0.489658
572.000000	0.489919
573.000000	0.490264
574.000000	0.490623
575.000000	0.490968
576.000000	0.491260
577.000000	0.491496
578.000000	0.491791
579.000000	0.492093
580.000000	0.492376
581.000000	0.492632
582.000000	0.492886
583.000000	0.493096
584.000000	0.493330
585.000000	0.493723
586.000000	0.494007
587.000000	0.494213
588.000000	0.494450
589.000000	0.494780
590.000000	0.495059
591.000000	0.495229
592.000000	0.495469
593.000000	0.495808
594.000000	0.496162
595.000000	0.496324
596.000000	0.496463
597.000000	0.496697
598.000000	0.496947
599.000000	0.497143
600.000000	0.497349
601.000000	0.497503
602.000000	0.497685
603.000000	0.497851
604.000000	0.498017
605.000000	0.498262
606.000000	0.498356
607.000000	0.498398
608.000000	0.498699
609.000000	0.498853
610.000000	0.498982
611.000000	0.499274
612.000000	0.499363
613.000000	0.499462
614.000000	0.499751
615.000000	0.499961
616.000000	0.500085
617.000000	0.500143
618.000000	0.500375
619.000000	0.500540
620.000000	0.500592
621.000000	0.500670
622.000000	0.500889
623.000000	0.501022
624.000000	0.500939
625.000000	0.501094
626.000000	0.501279
627.000000	0.501401
628.000000	0.501558
629.000000	0.501850
630.000000	0.502088
631.000000	0.502393
632.000000	0.502510
633.000000	0.502600
634.000000	0.502808
635.000000	0.502894
636.000000	0.502952
637.000000	0.503034
638.000000	0.503175
639.000000	0.503325
640.000000	0.503534
641.000000	0.503656
642.000000	0.503769
643.000000	0.503899
644.000000	0.504059
645.000000	0.504234
646.000000	0.504352
647.000000	0.504348
648.000000	0.504378
649.000000	0.504472
650.000000	0.504584
651.000000	0.504664
652.000000	0.504794
653.000000	0.505013
654.000000	0.505196
655.000000	0.505344
656.000000	0.505486
657.000000	0.505567
658.000000	0.505737
659.000000	0.505838
660.000000	0.505828
661.000000	0.505973
662.000000	0.506027
663.000000	0.506115
664.000000	0.506396
665.000000	0.506579
666.000000	0.506752
667.000000	0.506983
668.000000	0.507061
669.000000	0.507144
670.000000	0.507325
671.000000	0.507467
672.000000	0.507624
673.000000	0.507806
674.000000	0.508032
675.000000	0.508251
676.000000	0.508430
677.000000	0.508568
678.000000	0.508647
679.000000	0.508740
680.000000	0.508891
681.000000	0.508964
682.000000	0.509092
683.000000	0.509195
684.000000	0.509366
685.000000	0.509555
686.000000	0.509752
687.000000	0.509870
688.000000	0.509985
689.000000	0.510125
690.000000	0.510329
691.000000	0.510436
692.000000	0.510491
693.000000	0.510626
694.000000	0.510781
695.000000	0.510989
696.000000	0.511168
697.000000	0.511214
698.000000	0.511319
699.000000	0.511513
700.000000	0.511766
701.000000	0.511885
702.000000	0.512041
703.000000	0.512236
704.000000	0.512324
705.000000	0.512539
706.000000	0.512733
707.000000	0.512772
708.000000	0.512922
709.000000	0.513067
710.000000	0.513138
711.000000	0.513299
712.000000	0.513437
713.000000	0.513531
714.000000	0.513570
715.000000	0.513696
716.000000	0.513921
717.000000	0.514137
718.000000	0.514285
719.000000	0.514379
720.000000	0.514482
721.000000	0.514648
722.000000	0.514713
723.000000	0.514766
724.000000	0.514951
725.000000	0.514986
726.000000	0.515021
727.000000	0.515100
728.000000	0.515164
729.000000	0.515216
730.000000	0.515207
731.000000	0.515337
732.000000	0.515449
733.000000	0.515549
734.000000	0.515657
735.000000	0.515725
736.000000	0.515917
737.000000	0.516034
738.000000	0.515966
739.000000	0.516032
740.000000	0.516152
741.000000	0.516195
742.000000	0.516291
743.000000	0.516409
744.000000	0.516494
745.000000	0.516516
746.000000	0.516553
747.000000	0.516551
748.000000	0.516624
749.000000	0.516762
750.000000	0.516882
751.000000	0.516981
752.000000	0.517053
753.000000	0.517126
754.000000	0.517214
755.000000	0.517219
756.000000	0.517222
757.000000	0.517250
758.000000	0.517261
759.000000	0.517358
760.000000	0.517464
761.000000	0.517579
762.000000	0.517598
763.000000	0.517586
764.000000	0.517838
765.000000	0.517866
766.000000	0.517886
767.000000	0.518106
768.000000	0.518125
769.000000	0.518099
770.000000	0.518119
771.000000	0.518132
772.000000	0.518277
773.000000	0.518384
774.000000	0.518405
775.000000	0.518489
776.000000	0.518566
777.000000	0.518560
778.000000	0.518609
779.000000	0.518662
780.000000	0.518697
781.000000	0.518681
782.000000	0.518707
783.000000	0.518896
784.000000	0.519036
785.000000	0.519069
786.000000	0.519121
787.000000	0.519207
788.000000	0.519134
789.000000	0.519068
790.000000	0.519039
791.000000	0.519086
792.000000	0.519112
793.000000	0.519081
794.000000	0.519016
795.000000	0.519061
796.000000	0.519115
797.000000	0.519130
798.000000	0.519129
799.000000	0.519163
800.000000	0.519202
801.000000	0.519211
802.000000	0.519260
803.000000	0.519301
804.000000	0.519353
805.000000	0.519358
806.000000	0.519272
807.000000	0.519261
808.000000	0.519328
809.000000	0.519343
810.000000	0.519347
811.000000	0.519368
812.000000	0.519414
813.000000	0.519454
814.000000	0.519485
815.000000	0.519563
816.000000	0.519472
817.000000	0.519379
818.000000	0.519340
819.000000	0.519283
820.000000	0.519265
821.000000	0.519272
822.000000	0.519458
823.000000	0.519553
824.000000	0.519506
825.000000	0.519551
826.000000	0.519623
827.000000	0.519526
828.000000	0.519309
829.000000	0.519309
830.000000	0.519160
831.000000	0.518982
832.000000	0.518861
833.000000	0.518827
834.000000	0.518798
835.000000	0.518763
836.000000	0.518739
837.000000	0.518705
838.000000	0.518731
839.000000	0.518869
840.000000	0.518822
841.000000	0.518619
842.000000	0.518335
843.000000	0.518244
844.000000	0.518264
845.000000	0.518258
846.000000	0.518164
847.000000	0.518096
848.000000	0.518070
849.000000	0.518100
850.000000	0.517993
851.000000	0.517811
852.000000	0.517710
853.000000	0.517776
854.000000	0.517711
855.000000	0.517689
856.000000	0.517679
857.000000	0.517607
858.000000	0.517596
859.000000	0.517543
860.000000	0.517351
861.000000	0.517231
862.000000	0.517235
863.000000	0.517208
864.000000	0.517140
865.000000	0.517108
866.000000	0.517146
867.000000	0.517039
868.000000	0.517049
869.000000	0.516991
870.000000	0.516744
871.000000	0.516568
872.000000	0.516449
873.000000	0.516260
874.000000	0.516080
875.000000	0.515842
876.000000	0.515640
877.000000	0.515507
878.000000	0.515431
879.000000	0.515458
880.000000	0.515343
881.000000	0.515087
882.000000	0.514997
883.000000	0.514963
884.000000	0.514633
885.000000	0.514374
886.000000	0.514163
887.000000	0.514009
888.000000	0.513898
889.000000	0.513875
890.000000	0.513779
891.000000	0.513739
892.000000	0.513551
893.000000	0.513312
894.000000	0.513273
895.000000	0.513228
896.000000	0.512966
897.000000	0.512657
898.000000	0.512568
899.000000	0.512540
900.000000	0.512419
901.000000	0.512151
902.000000	0.512047
903.000000	0.511819
904.000000	0.511614
905.000000	0.511463
906.000000	0.511357
907.000000	0.511283
908.000000	0.511232
909.000000	0.510909
910.000000	0.510622
911.000000	0.510420
912.000000	0.510311
913.000000	0.510240
914.000000	0.510163
915.000000	0.510045
916.000000	0.509615
917.000000	0.509389
918.000000	0.509299
919.000000	0.509186
920.000000	0.509100
921.000000	0.509060
922.000000	0.508902
923.000000	0.508384
924.000000	0.508009
925.000000	0.507712
926.000000	0.507479
927.000000	0.507297
928.000000	0.507245
929.000000	0.507096
930.000000	0.506650
931.000000	0.506394
932.000000	0.506102
933.000000	0.505791
934.000000	0.505590
935.000000	0.505457
936.000000	0.505348
937.000000	0.505068
938.000000	0.504712
939.000000	0.504568
940.000000	0.504408
941.000000	0.504007
942.000000	0.503687
943.000000	0.503320
944.000000	0.502721
945.000000	0.502437
946.000000	0.501845
947.000000	0.501288
948.000000	0.501139
949.000000	0.500916
950.000000	0.500889
951.000000	0.500949
952.000000	0.500817
953.000000	0.500727
954.000000	0.500588
955.000000	0.500260
956.000000	0.500111
957.000000	0.499849
958.000000	0.499512
959.000000	0.499411
960.000000	0.499071
961.000000	0.498713
962.000000	0.498399
963.000000	0.498053
964.000000	0.497777
965.000000	0.497651
966.000000	0.497488
967.000000	0.497227
968.000000	0.496937
969.000000	0.496670
970.000000	0.496608
971.000000	0.496190
972.000000	0.495874
973.000000	0.495688
974.000000	0.495358
975.000000	0.495118
976.000000	0.494772
977.000000	0.494274
978.000000	0.494273
979.000000	0.494645
980.000000	0.494763
981.000000	0.494645
982.000000	0.494227
983.000000	0.493920
984.000000	0.493885
985.000000	0.493726
986.000000	0.493500
987.000000	0.493258
988.000000	0.492895
989.000000	0.492654
990.000000	0.492379
991.000000	0.492151
992.000000	0.492135
993.000000	0.492072
994.000000	0.491983
995.000000	0.492079
996.000000	0.492040
997.000000	0.491969
998.000000	0.491984
999.000000	0.492137
1000.000000	0.491956
1001.000000	0.491405
1002.000000	0.492135
1003.000000	0.492538
1004.000000	0.492654
1005.000000	0.492931
1006.000000	0.492332
1007.000000	0.490936
1008.000000	0.489920
1009.000000	0.489335
1010.000000	0.489798
1011.000000	0.490472
1012.000000	0.490956
1013.000000	0.490977
1014.000000	0.490328
1015.000000	0.490164
1016.000000	0.490748
1017.000000	0.490813
1018.000000	0.491496
1019.000000	0.491890
1020.000000	0.492293
1021.000000	0.491767
1022.000000	0.491099
1023.000000	0.490917
1024.000000	0.490158
1025.000000	0.489944
1026.000000	0.490089
1027.000000	0.489971
1028.000000	0.489930
1029.000000	0.490430
1030.000000	0.490818
1031.000000	0.491008
1032.000000	0.491121
1033.000000	0.491051
1034.000000	0.491181
1035.000000	0.491687
1036.000000	0.491616
1037.000000	0.490900
1038.000000	0.490911
1039.000000	0.491047
1040.000000	0.491650
1041.000000	0.492380
1042.000000	0.492744
1043.000000	0.492396
1044.000000	0.491940
1045.000000	0.491704
1046.000000	0.491561
1047.000000	0.491462
1048.000000	0.491185
1049.000000	0.491186
1050.000000	0.491498
1051.000000	0.491623
1052.000000	0.491898
1053.000000	0.491878
1054.000000	0.491499
1055.000000	0.491762
1056.000000	0.492485
1057.000000	0.493012
1058.000000	0.493520
1059.000000	0.493533
1060.000000	0.493094
1061.000000	0.493522
1062.000000	0.494020
1063.000000	0.494445
1064.000000	0.494887
1065.000000	0.495370
1066.000000	0.495518
1067.000000	0.495409
1068.000000	0.495443
1069.000000	0.495220
1070.000000	0.495105
1071.000000	0.495199
1072.000000	0.495333
1073.000000	0.495555
1074.000000	0.495773
1075.000000	0.496317
1076.000000	0.496372
1077.000000	0.496205
1078.000000	0.496319
1079.000000	0.496495
1080.000000	0.496895
1081.000000	0.496831
1082.000000	0.496816
1083.000000	0.496830
1084.000000	0.496369
1085.000000	0.496446
1086.000000	0.497026
1087.000000	0.497360
1088.000000	0.497551
1089.000000	0.497772
1090.000000	0.497975
1091.000000	0.498101
1092.000000	0.497939
1093.000000	0.498424
1094.000000	0.498676
1095.000000	0.498782
1096.000000	0.499004
1097.000000	0.499392
1098.000000	0.499620
1099.000000	0.499773
1100.000000	0.499859
1101.000000	0.499679
1102.000000	0.499709
1103.000000	0.499694
1104.000000	0.499786
1105.000000	0.500166
1106.000000	0.500308
1107.000000	0.499914
1108.000000	0.500013
1109.000000	0.500487
1110.000000	0.500908
1111.000000	0.501197
1112.000000	0.501815
1113.000000	0.502067
1114.000000	0.501856
1115.000000	0.502029
1116.000000	0.502488
1117.000000	0.502610
1118.000000	0.502571
1119.000000	0.502554
1120.000000	0.502158
1121.000000	0.502279
1122.000000	0.503196
1123.000000	0.503703
1124.000000	0.503901
1125.000000	0.504058
1126.000000	0.503467
1127.000000	0.503243
1128.000000	0.503159
1129.000000	0.503306
1130.000000	0.503514
1131.000000	0.504017
1132.000000	0.504139
1133.000000	0.504343
1134.000000	0.504392
1135.000000	0.504182
1136.000000	0.503915
1137.000000	0.503573
1138.000000	0.503154
1139.000000	0.502485
1140.000000	0.502313
1141.000000	0.502340
1142.000000	0.502301
1143.000000	0.502362
1144.000000	0.502582
1145.000000	0.502682
1146.000000	0.502424
1147.000000	0.502355
1148.000000	0.502223
1149.000000	0.502108
1150.000000	0.502045
1151.000000	0.501864
1152.000000	0.501419
1153.000000	0.501328
1154.000000	0.501306
1155.000000	0.501169
1156.000000	0.501237
1157.000000	0.501177
1158.000000	0.500695
1159.000000	0.500543
1160.000000	0.500689
1161.000000	0.500611
1162.000000	0.500620
1163.000000	0.500778
1164.000000	0.500554
1165.000000	0.500322
1166.000000	0.500241
1167.000000	0.500090
1168.000000	0.500057
1169.000000	0.500232
1170.000000	0.500285
1171.000000	0.500445
1172.000000	0.500534
1173.000000	0.500502
1174.000000	0.500475
1175.000000	0.500333
1176.000000	0.500243
1177.000000	0.500279
1178.000000	0.500297
1179.000000	0.500461
1180.000000	0.500346
1181.000000	0.500222
1182.000000	0.499962
1183.000000	0.499821
1184.000000	0.499762
1185.000000	0.499719
1186.000000	0.499858
1187.000000	0.499798
1188.000000	0.499606
1189.000000	0.499474
1190.000000	0.499385
1191.000000	0.499317
1192.000000	0.499480
1193.000000	0.499617
1194.000000	0.499550
1195.000000	0.499502
1196.000000	0.499284
1197.000000	0.499219
1198.000000	0.499322
1199.000000	0.499313
1200.000000	0.499327
1201.000000	0.499241
1202.000000	0.499085
1203.000000	0.499021
1204.000000	0.499075
1205.000000	0.499066
1206.000000	0.498892
1207.000000	0.498684
1208.000000	0.498617
1209.000000	0.498664
1210.000000	0.498589
1211.000000	0.498573
1212.000000	0.498509
1213.000000	0.498328
1214.000000	0.498289
1215.000000	0.498392
1216.000000	0.498393
1217.000000	0.498231
1218.000000	0.498159
1219.000000	0.498168
1220.000000	0.498230
1221.000000	0.498189
1222.000000	0.498375
1223.000000	0.498388
1224.000000	0.498364
1225.000000	0.498452
1226.000000	0.498317
1227.000000	0.498138
1228.000000	0.498183
1229.000000	0.498132
1230.000000	0.498051
1231.000000	0.497937
1232.000000	0.498001
1233.000000	0.498136
1234.000000	0.498281
1235.000000	0.498290
1236.000000	0.498132
1237.000000	0.498116
1238.000000	0.497989
1239.000000	0.497922
1240.000000	0.497953
1241.000000	0.497982
1242.000000	0.497990
1243.000000	0.497927
1244.000000	0.498038
1245.000000	0.498219
1246.000000	0.498198
1247.000000	0.498296
1248.000000	0.498295
1249.000000	0.498276
1250.000000	0.498323
1251.000000	0.498266
1252.000000	0.498143
1253.000000	0.497921
1254.000000	0.497826
1255.000000	0.497720
1256.000000	0.497673
1257.000000	0.497825
1258.000000	0.497884
1259.000000	0.497746
1260.000000	0.497754
1261.000000	0.497694
1262.000000	0.497729
1263.000000	0.497913
1264.000000	0.498014
1265.000000	0.498078
1266.000000	0.497994
1267.000000	0.497829
1268.000000	0.497697
1269.000000	0.497622
1270.000000	0.497671
1271.000000	0.497639
1272.000000	0.497634
1273.000000	0.497749
1274.000000	0.497799
1275.000000	0.497788
1276.000000	0.497828
1277.000000	0.497938
1278.000000	0.497876
1279.000000	0.497776
1280.000000	0.497583
1281.000000	0.497408
1282.000000	0.497171
1283.000000	0.497238
1284.000000	0.497452
1285.000000	0.497546
1286.000000	0.497684
1287.000000	0.497711
1288.000000	0.497697
1289.000000	0.497715
1290.000000	0.497564
1291.000000	0.497368
1292.000000	0.497306
1293.000000	0.497161
1294.000000	0.497140
1295.000000	0.497213
1296.000000	0.496886
1297.000000	0.496617
1298.000000	0.496675
1299.000000	0.496652
1300.000000	0.496728
1301.000000	0.496824
1302.000000	0.496725
1303.000000	0.496566
1304.000000	0.496325
1305.000000	0.496099
1306.000000	0.495971
1307.000000	0.495891
1308.000000	0.495806
1309.000000	0.495931
1310.000000	0.495816
1311.000000	0.495601
1312.000000	0.495142
1313.000000	0.494832
1314.000000	0.494573
1315.000000	0.494239
1316.000000	0.494192
1317.000000	0.494193
1318.000000	0.493966
1319.000000	0.493546
1320.000000	0.493204
1321.000000	0.492878
1322.000000	0.492524
1323.000000	0.492383
1324.000000	0.492331
1325.000000	0.491903
1326.000000	0.491414
1327.000000	0.491113
1328.000000	0.490906
1329.000000	0.490529
1330.000000	0.490195
1331.000000	0.489867
1332.000000	0.489491
1333.000000	0.489061
1334.000000	0.488829
1335.000000	0.488585
1336.000000	0.488177
1337.000000	0.487794
1338.000000	0.487400
1339.000000	0.487009
1340.000000	0.486501
1341.000000	0.486155
1342.000000	0.485900
1343.000000	0.485512
1344.000000	0.485137
1345.000000	0.484821
1346.000000	0.484509
1347.000000	0.484053
1348.000000	0.483638
1349.000000	0.483166
1350.000000	0.482855
1351.000000	0.482501
1352.000000	0.482089
1353.000000	0.481733
1354.000000	0.481331
1355.000000	0.480820
1356.000000	0.480348
1357.000000	0.479718
1358.000000	0.479149
1359.000000	0.478694
1360.000000	0.478217
1361.000000	0.477929
1362.000000	0.477478
1363.000000	0.476843
1364.000000	0.476331
1365.000000	0.475845
1366.000000	0.475271
1367.000000	0.474668
1368.000000	0.474060
1369.000000	0.473615
1370.000000	0.472844
1371.000000	0.472012
1372.000000	0.471214
1373.000000	0.470009
1374.000000	0.468733
1375.000000	0.467490
1376.000000	0.466198
1377.000000	0.464725
1378.000000	0.462864
1379.000000	0.460510
1380.000000	0.457720
1381.000000	0.454546
1382.000000	0.451100
1383.000000	0.447534
1384.000000	0.443783
1385.000000	0.440058
1386.000000	0.436543
1387.000000	0.433410
1388.000000	0.430672
1389.000000	0.428278
1390.000000	0.426469
1391.000000	0.425081
1392.000000	0.424318
1393.000000	0.423903
1394.000000	0.424370
1395.000000	0.424376
1396.000000	0.424691
1397.000000	0.424466
1398.000000	0.423966
1399.000000	0.423270
1400.000000	0.422241
1401.000000	0.421082
1402.000000	0.419791
1403.000000	0.418346
1404.000000	0.416821
1405.000000	0.415235
1406.000000	0.413429
1407.000000	0.411572
1408.000000	0.409651
1409.000000	0.407883
1410.000000	0.406436
1411.000000	0.404983
1412.000000	0.403473
1413.000000	0.401984
1414.000000	0.400398
1415.000000	0.398836
1416.000000	0.397456
1417.000000	0.396297
1418.000000	0.395094
1419.000000	0.393931
1420.000000	0.392865
1421.000000	0.391855
1422.000000	0.390873
1423.000000	0.389983
1424.000000	0.388908
1425.000000	0.387926
1426.000000	0.386967
1427.000000	0.386018
1428.000000	0.385243
1429.000000	0.384512
1430.000000	0.383703
1431.000000	0.382833
1432.000000	0.381972
1433.000000	0.381073
1434.000000	0.380162
1435.000000	0.379373
1436.000000	0.378668
1437.000000	0.378008
1438.000000	0.377178
1439.000000	0.376356
1440.000000	0.375581
1441.000000	0.374679
1442.000000	0.373937
1443.000000	0.373258
1444.000000	0.372687
1445.000000	0.372013
1446.000000	0.371418
1447.000000	0.370949
1448.000000	0.370419
1449.000000	0.369857
1450.000000	0.369352
1451.000000	0.368884
1452.000000	0.368307
1453.000000	0.367780
1454.000000	0.367301
1455.000000	0.366904
1456.000000	0.366688
1457.000000	0.366392
1458.000000	0.366003
1459.000000	0.365642
1460.000000	0.365290
1461.000000	0.365059
1462.000000	0.364947
1463.000000	0.364702
1464.000000	0.364436
1465.000000	0.364297
1466.000000	0.364242
1467.000000	0.364430
1468.000000	0.364674
1469.000000	0.364947
1470.000000	0.365234
1471.000000	0.365398
1472.000000	0.365587
1473.000000	0.365986
1474.000000	0.366327
1475.000000	0.366851
1476.000000	0.367487
1477.000000	0.367980
1478.000000	0.368446
1479.000000	0.368958
1480.000000	0.369568
1481.000000	0.370148
1482.000000	0.370854
1483.000000	0.371543
1484.000000	0.372170
1485.000000	0.372862
1486.000000	0.373650
1487.000000	0.374367
1488.000000	0.375087
1489.000000	0.375810
1490.000000	0.376299
1491.000000	0.376977
1492.000000	0.377801
1493.000000	0.378503
1494.000000	0.379119
1495.000000	0.379743
1496.000000	0.380242
1497.000000	0.380801
1498.000000	0.381457
1499.000000	0.382065
1500.000000	0.382614
1501.000000	0.383247
1502.000000	0.383807
1503.000000	0.384425
1504.000000	0.385168
1505.000000	0.385789
1506.000000	0.386340
1507.000000	0.386946
1508.000000	0.387485
1509.000000	0.387916
1510.000000	0.388290
1511.000000	0.388840
1512.000000	0.389374
1513.000000	0.389723
1514.000000	0.390210
1515.000000	0.390470
1516.000000	0.390553
1517.000000	0.390778
1518.000000	0.391035
1519.000000	0.391292
1520.000000	0.391694
1521.000000	0.392038
1522.000000	0.392391
1523.000000	0.392876
1524.000000	0.393173
1525.000000	0.393419
1526.000000	0.393696
1527.000000	0.393853
1528.000000	0.394169
1529.000000	0.394601
1530.000000	0.394696
1531.000000	0.394798
1532.000000	0.395033
1533.000000	0.395160
1534.000000	0.395416
1535.000000	0.395797
1536.000000	0.395892
1537.000000	0.396046
1538.000000	0.396305
1539.000000	0.396358
1540.000000	0.396522
1541.000000	0.396786
1542.000000	0.396929
1543.000000	0.397096
1544.000000	0.397370
1545.000000	0.397654
1546.000000	0.397861
1547.000000	0.398158
1548.000000	0.398287
1549.000000	0.398162
1550.000000	0.398141
1551.000000	0.398177
1552.000000	0.398268
1553.000000	0.398376
1554.000000	0.398393
1555.000000	0.398379
1556.000000	0.398390
1557.000000	0.398391
1558.000000	0.398383
1559.000000	0.398312
1560.000000	0.398291
1561.000000	0.398305
1562.000000	0.398263
1563.000000	0.398325
1564.000000	0.398311
1565.000000	0.398142
1566.000000	0.398046
1567.000000	0.398128
1568.000000	0.398156
1569.000000	0.398327
1570.000000	0.398378
1571.000000	0.398321
1572.000000	0.398282
1573.000000	0.398181
1574.000000	0.398158
1575.000000	0.398222
1576.000000	0.398297
1577.000000	0.398348
1578.000000	0.398439
1579.000000	0.398711
1580.000000	0.398800
1581.000000	0.398903
1582.000000	0.398987
1583.000000	0.398944
1584.000000	0.398914
1585.000000	0.399064
1586.000000	0.399125
1587.000000	0.399084
1588.000000	0.399093
1589.000000	0.399108
1590.000000	0.399120
1591.000000	0.399130
1592.000000	0.399232
1593.000000	0.399456
1594.000000	0.399574
1595.000000	0.399791
1596.000000	0.399956
1597.000000	0.400080
1598.000000	0.400176
1599.000000	0.400320
1600.000000	0.400352
1601.000000	0.400345
1602.000000	0.400379
1603.000000	0.400441
1604.000000	0.400506
1605.000000	0.400679
1606.000000	0.400713
1607.000000	0.400717
1608.000000	0.400751
1609.000000	0.400734
1610.000000	0.400796
1611.000000	0.401013
1612.000000	0.401127
1613.000000	0.401383
1614.000000	0.401492
1615.000000	0.401530
1616.000000	0.401700
1617.000000	0.401843
1618.000000	0.401952
1619.000000	0.402012
1620.000000	0.402194
1621.000000	0.402453
1622.000000	0.402707
1623.000000	0.403023
1624.000000	0.403314
1625.000000	0.403345
1626.000000	0.403493
1627.000000	0.403818
1628.000000	0.404111
1629.000000	0.404299
1630.000000	0.404627
1631.000000	0.404968
1632.000000	0.405268
1633.000000	0.405638
1634.000000	0.405993
1635.000000	0.406388
1636.000000	0.406707
1637.000000	0.407070
1638.000000	0.407340
1639.000000	0.407569
1640.000000	0.407779
1641.000000	0.408030
1642.000000	0.408271
1643.000000	0.408504
1644.000000	0.408772
1645.000000	0.409076
1646.000000	0.409270
1647.000000	0.409499
1648.000000	0.409701
1649.000000	0.409949
1650.000000	0.410205
1651.000000	0.410456
1652.000000	0.410841
1653.000000	0.411268
1654.000000	0.411636
1655.000000	0.412054
1656.000000	0.412221
1657.000000	0.412262
1658.000000	0.412387
1659.000000	0.412537
1660.000000	0.412884
1661.000000	0.413259
1662.000000	0.413605
1663.000000	0.414000
1664.000000	0.414351
1665.000000	0.414725
1666.000000	0.415028
1667.000000	0.415191
1668.000000	0.415387
1669.000000	0.415410
1670.000000	0.415551
1671.000000	0.415919
1672.000000	0.416264
1673.000000	0.416579
1674.000000	0.416946
1675.000000	0.417402
1676.000000	0.417684
1677.000000	0.417764
1678.000000	0.417676
1679.000000	0.417684
1680.000000	0.417706
1681.000000	0.417871
1682.000000	0.418234
1683.000000	0.418413
1684.000000	0.418561
1685.000000	0.418723
1686.000000	0.418774
1687.000000	0.418950
1688.000000	0.419053
1689.000000	0.419230
1690.000000	0.419458
1691.000000	0.419618
1692.000000	0.419632
1693.000000	0.419705
1694.000000	0.419743
1695.000000	0.419781
1696.000000	0.420067
1697.000000	0.420124
1698.000000	0.420012
1699.000000	0.420132
1700.000000	0.420282
1701.000000	0.420548
1702.000000	0.420857
1703.000000	0.421013
1704.000000	0.421185
1705.000000	0.421323
1706.000000	0.421474
1707.000000	0.421587
1708.000000	0.421586
1709.000000	0.421563
1710.000000	0.421622
1711.000000	0.421711
1712.000000	0.421792
1713.000000	0.421953
1714.000000	0.422268
1715.000000	0.422529
1716.000000	0.422866
1717.000000	0.423134
1718.000000	0.423366
1719.000000	0.423446
1720.000000	0.423405
1721.000000	0.423553
1722.000000	0.423696
1723.000000	0.423867
1724.000000	0.424252
1725.000000	0.424534
1726.000000	0.424601
1727.000000	0.424757
1728.000000	0.424900
1729.000000	0.424935
1730.000000	0.425002
1731.000000	0.425231
1732.000000	0.425574
1733.000000	0.425898
1734.000000	0.426199
1735.000000	0.426365
1736.000000	0.426329
1737.000000	0.426416
1738.000000	0.426520
1739.000000	0.426652
1740.000000	0.426801
1741.000000	0.426920
1742.000000	0.427063
1743.000000	0.427219
1744.000000	0.427344
1745.000000	0.427448
1746.000000	0.427542
1747.000000	0.427568
1748.000000	0.427566
1749.000000	0.427522
1750.000000	0.427490
1751.000000	0.427726
1752.000000	0.427926
1753.000000	0.427906
1754.000000	0.427920
1755.000000	0.427755
1756.000000	0.427710
1757.000000	0.427700
1758.000000	0.427827
1759.000000	0.428090
1760.000000	0.428312
1761.000000	0.428643
1762.000000	0.428796
1763.000000	0.428825
1764.000000	0.428926
1765.000000	0.428920
1766.000000	0.428975
1767.000000	0.429008
1768.000000	0.428968
1769.000000	0.428957
1770.000000	0.429080
1771.000000	0.429196
1772.000000	0.429321
1773.000000	0.429474
1774.000000	0.429601
1775.000000	0.429786
1776.000000	0.429931
1777.000000	0.430016
1778.000000	0.430116
1779.000000	0.430213
1780.000000	0.430220
1781.000000	0.430107
1782.000000	0.430169
1783.000000	0.430265
1784.000000	0.430630
1785.000000	0.430768
1786.000000	0.430753
1787.000000	0.430950
1788.000000	0.431102
1789.000000	0.431077
1790.000000	0.431092
1791.000000	0.431094
1792.000000	0.431166
1793.000000	0.431273
1794.000000	0.431525
1795.000000	0.431704
1796.000000	0.431867
1797.000000	0.431927
1798.000000	0.431781
1799.000000	0.431785
1800.000000	0.431830
1801.000000	0.432160
1802.000000	0.431987
1803.000000	0.431251
1804.000000	0.431401
1805.000000	0.431715
1806.000000	0.431664
1807.000000	0.432088
1808.000000	0.432372
1809.000000	0.432102
1810.000000	0.431479
1811.000000	0.432028
1812.000000	0.433773
1813.000000	0.434299
1814.000000	0.435060
1815.000000	0.435227
1816.000000	0.434465
1817.000000	0.433955
1818.000000	0.433031
1819.000000	0.433096
1820.000000	0.433440
1821.000000	0.432989
1822.000000	0.432973
1823.000000	0.433619
1824.000000	0.433099
1825.000000	0.431584
1826.000000	0.430946
1827.000000	0.429873
1828.000000	0.428857
1829.000000	0.429157
1830.000000	0.430150
1831.000000	0.430450
1832.000000	0.430796
1833.000000	0.430977
1834.000000	0.430796
1835.000000	0.430845
1836.000000	0.431447
1837.000000	0.431222
1838.000000	0.430576
1839.000000	0.429297
1840.000000	0.427510
1841.000000	0.426955
1842.000000	0.426544
1843.000000	0.426749
1844.000000	0.426719
1845.000000	0.427317
1846.000000	0.426927
1847.000000	0.425732
1848.000000	0.424679
1849.000000	0.423769
1850.000000	0.422289
1851.000000	0.421463
1852.000000	0.421252
1853.000000	0.420524
1854.000000	0.419472
1855.000000	0.418584
1856.000000	0.417657
1857.000000	0.416513
1858.000000	0.414960
1859.000000	0.413092
1860.000000	0.411015
1861.000000	0.409100
1862.000000	0.406983
1863.000000	0.405131
1864.000000	0.402999
1865.000000	0.400496
1866.000000	0.397912
1867.000000	0.395238
1868.000000	0.392545
1869.000000	0.389765
1870.000000	0.386800
1871.000000	0.384267
1872.000000	0.382114
1873.000000	0.379112
1874.000000	0.375762
1875.000000	0.372372
1876.000000	0.368549
1877.000000	0.363686
1878.000000	0.359052
1879.000000	0.353834
1880.000000	0.348589
1881.000000	0.343182
1882.000000	0.337325
1883.000000	0.331494
1884.000000	0.325594
1885.000000	0.318768
1886.000000	0.312655
1887.000000	0.306836
1888.000000	0.301057
1889.000000	0.295167
1890.000000	0.288953
1891.000000	0.282763
1892.000000	0.276237
1893.000000	0.269460
1894.000000	0.263370
1895.000000	0.257400
1896.000000	0.251646
1897.000000	0.246240
1898.000000	0.241064
1899.000000	0.235752
1900.000000	0.230965
1901.000000	0.226369
1902.000000	0.221938
1903.000000	0.218631
1904.000000	0.215185
1905.000000	0.212009
1906.000000	0.209310
1907.000000	0.207390
1908.000000	0.205010
1909.000000	0.202766
1910.000000	0.200234
1911.000000	0.197409
1912.000000	0.195363
1913.000000	0.193479
1914.000000	0.191991
1915.000000	0.190667
1916.000000	0.188828
1917.000000	0.187509
1918.000000	0.186597
1919.000000	0.185858
1920.000000	0.184940
1921.000000	0.184726
1922.000000	0.183938
1923.000000	0.183108
1924.000000	0.183100
1925.000000	0.182913
1926.000000	0.182968
1927.000000	0.183228
1928.000000	0.183229
1929.000000	0.182938
1930.000000	0.182954
1931.000000	0.182993
1932.000000	0.182937
1933.000000	0.183096
1934.000000	0.182958
1935.000000	0.182710
1936.000000	0.182584
1937.000000	0.182807
1938.000000	0.183197
1939.000000	0.183424
1940.000000	0.183779
1941.000000	0.184046
1942.000000	0.184114
1943.000000	0.184190
1944.000000	0.184088
1945.000000	0.184095
1946.000000	0.184143
1947.000000	0.183793
1948.000000	0.183559
1949.000000	0.183288
1950.000000	0.182802
1951.000000	0.182310
1952.000000	0.181780
1953.000000	0.181099
1954.000000	0.180663
1955.000000	0.180473
1956.000000	0.180536
1957.000000	0.181120
1958.000000	0.181224
1959.000000	0.180968
1960.000000	0.180824
1961.000000	0.179767
1962.000000	0.179434
1963.000000	0.179514
1964.000000	0.179961
1965.000000	0.179700
1966.000000	0.180283
1967.000000	0.180052
1968.000000	0.179551
1969.000000	0.179846
1970.000000	0.179905
1971.000000	0.180101
1972.000000	0.180728
1973.000000	0.181201
1974.000000	0.181829
1975.000000	0.182276
1976.000000	0.182919
1977.000000	0.182990
1978.000000	0.182708
1979.000000	0.182609
1980.000000	0.182722
1981.000000	0.183462
1982.000000	0.184510
1983.000000	0.185732
1984.000000	0.186511
1985.000000	0.186781
1986.000000	0.187406
1987.000000	0.188037
1988.000000	0.188837
1989.000000	0.189895
1990.000000	0.191308
1991.000000	0.192369
1992.000000	0.193001
1993.000000	0.193481
1994.000000	0.194317
1995.000000	0.195238
1996.000000	0.196329
1997.000000	0.197512
1998.000000	0.199018
1999.000000	0.200201
2000.000000	0.201364
2001.000000	0.202636
2002.000000	0.202947
2003.000000	0.203852
2004.000000	0.205388
2005.000000	0.205838
2006.000000	0.207413
2007.000000	0.209135
2008.000000	0.210279
2009.000000	0.210929
2010.000000	0.212031
2011.000000	0.212872
2012.000000	0.214016
2013.000000	0.215252
2014.000000	0.216674
2015.000000	0.218434
2016.000000	0.220129
2017.000000	0.221730
2018.000000	0.223096
2019.000000	0.224569
2020.000000	0.225767
2021.000000	0.227065
2022.000000	0.228579
2023.000000	0.229864
2024.000000	0.231018
2025.000000	0.232066
2026.000000	0.232744
2027.000000	0.233639
2028.000000	0.234342
2029.000000	0.235561
2030.000000	0.237123
2031.000000	0.238611
2032.000000	0.240682
2033.000000	0.242309
2034.000000	0.243762
2035.000000	0.245273
2036.000000	0.246213
2037.000000	0.246755
2038.000000	0.247665
2039.000000	0.248291
2040.000000	0.249215
2041.000000	0.250838
2042.000000	0.251907
2043.000000	0.253226
2044.000000	0.254452
2045.000000	0.255665
2046.000000	0.256930
2047.000000	0.257928
2048.000000	0.258810
2049.000000	0.259770
2050.000000	0.259664
2051.000000	0.260742
2052.000000	0.262575
2053.000000	0.263873
2054.000000	0.265912
2055.000000	0.267733
2056.000000	0.268311
2057.000000	0.269002
2058.000000	0.269172
2059.000000	0.269529
2060.000000	0.270388
2061.000000	0.271635
2062.000000	0.272407
2063.000000	0.273633
2064.000000	0.274342
2065.000000	0.274717
2066.000000	0.275223
2067.000000	0.276021
2068.000000	0.276504
2069.000000	0.277160
2070.000000	0.277905
2071.000000	0.278762
2072.000000	0.279633
2073.000000	0.281164
2074.000000	0.282602
2075.000000	0.283763
2076.000000	0.285018
2077.000000	0.286326
2078.000000	0.287288
2079.000000	0.288309
2080.000000	0.289714
2081.000000	0.290757
2082.000000	0.291377
2083.000000	0.292323
2084.000000	0.292979
2085.000000	0.293791
2086.000000	0.295059
2087.000000	0.296158
2088.000000	0.297422
2089.000000	0.298817
2090.000000	0.299860
2091.000000	0.300641
2092.000000	0.301494
2093.000000	0.302011
2094.000000	0.302846
2095.000000	0.304083
2096.000000	0.304846
2097.000000	0.304957
2098.000000	0.306341
2099.000000	0.306890
2100.000000	0.307388
2101.000000	0.309372
2102.000000	0.310398
2103.000000	0.311781
2104.000000	0.313434
2105.000000	0.314271
2106.000000	0.314454
2107.000000	0.314906
2108.000000	0.314635
2109.000000	0.315213
2110.000000	0.316008
2111.000000	0.316848
2112.000000	0.318070
2113.000000	0.318869
2114.000000	0.320185
2115.000000	0.321332
2116.000000	0.322538
2117.000000	0.323760
2118.000000	0.323620
2119.000000	0.323903
2120.000000	0.324294
2121.000000	0.324288
2122.000000	0.324627
2123.000000	0.325643
2124.000000	0.326032
2125.000000	0.325916
2126.000000	0.326296
2127.000000	0.326886
2128.000000	0.327424
2129.000000	0.328040
2130.000000	0.328731
2131.000000	0.329094
2132.000000	0.328975
2133.000000	0.329208
2134.000000	0.329874
2135.000000	0.330118
2136.000000	0.330624
2137.000000	0.330792
2138.000000	0.330363
2139.000000	0.330692
2140.000000	0.331087
2141.000000	0.331733
2142.000000	0.333108
2143.000000	0.333702
2144.000000	0.334690
2145.000000	0.335342
2146.000000	0.335549
2147.000000	0.335951
2148.000000	0.336470
2149.000000	0.336183
2150.000000	0.336402
2151.000000	0.336266
2152.000000	0.335823
2153.000000	0.335096
2154.000000	0.334700
2155.000000	0.334467
2156.000000	0.334038
2157.000000	0.333481
2158.000000	0.333411
2159.000000	0.333403
2160.000000	0.333419
2161.000000	0.334179
2162.000000	0.334583
2163.000000	0.334149
2164.000000	0.334366
2165.000000	0.335166
2166.000000	0.335547
2167.000000	0.336159
2168.000000	0.335496
2169.000000	0.334634
2170.000000	0.334249
2171.000000	0.334432
2172.000000	0.335739
2173.000000	0.335933
2174.000000	0.336017
2175.000000	0.335804
2176.000000	0.334394
2177.000000	0.334113
2178.000000	0.334878
2179.000000	0.335256
2180.000000	0.335941
2181.000000	0.336293
2182.000000	0.336129
2183.000000	0.334748
2184.000000	0.333292
2185.000000	0.332580
2186.000000	0.333406
2187.000000	0.334529
2188.000000	0.335621
2189.000000	0.336379
2190.000000	0.335839
2191.000000	0.335609
2192.000000	0.335225
2193.000000	0.335013
2194.000000	0.334453
2195.000000	0.333267
2196.000000	0.332454
2197.000000	0.331866
2198.000000	0.331128
2199.000000	0.330120
2200.000000	0.330191
2201.000000	0.330530
2202.000000	0.331244
2203.000000	0.333057
2204.000000	0.334513
2205.000000	0.336034
2206.000000	0.338107
2207.000000	0.338561
2208.000000	0.338561
2209.000000	0.339588
2210.000000	0.337614
2211.000000	0.334885
2212.000000	0.334392
2213.000000	0.334604
2214.000000	0.335737
2215.000000	0.335951
2216.000000	0.337282
2217.000000	0.337751
2218.000000	0.336001
2219.000000	0.334707
2220.000000	0.333951
2221.000000	0.334477
2222.000000	0.334565
2223.000000	0.336145
2224.000000	0.340387
2225.000000	0.343043
2226.000000	0.345136
2227.000000	0.347035
2228.000000	0.344559
2229.000000	0.340402
2230.000000	0.336869
2231.000000	0.331957
2232.000000	0.330821
2233.000000	0.331789
2234.000000	0.332647
2235.000000	0.334020
2236.000000	0.334912
2237.000000	0.335888
2238.000000	0.336751
2239.000000	0.337399
2240.000000	0.338146
2241.000000	0.338972
2242.000000	0.339602
2243.000000	0.339547
2244.000000	0.340665
2245.000000	0.342987
2246.000000	0.343988
2247.000000	0.346293
2248.000000	0.345657
2249.000000	0.342469
2250.000000	0.338656
2251.000000	0.336228
2252.000000	0.334637
2253.000000	0.334067
2254.000000	0.335224
2255.000000	0.335122
2256.000000	0.335554
2257.000000	0.337876
2258.000000	0.337469
2259.000000	0.336094
2260.000000	0.334991
2261.000000	0.334196
2262.000000	0.332839
2263.000000	0.332769
2264.000000	0.334797
2265.000000	0.334141
2266.000000	0.332481
2267.000000	0.330736
2268.000000	0.326071
2269.000000	0.324973
2270.000000	0.326452
2271.000000	0.326207
2272.000000	0.328466
2273.000000	0.327494
2274.000000	0.323336
2275.000000	0.320698
2276.000000	0.317622
2277.000000	0.312758
2278.000000	0.312276
2279.000000	0.310718
2280.000000	0.310293
2281.000000	0.313131
2282.000000	0.314179
2283.000000	0.312967
2284.000000	0.311210
2285.000000	0.307925
2286.000000	0.304400
2287.000000	0.304263
2288.000000	0.302909
2289.000000	0.301209
2290.000000	0.299847
2291.000000	0.295029
2292.000000	0.292829
2293.000000	0.293578
2294.000000	0.292369
2295.000000	0.292107
2296.000000	0.290730
2297.000000	0.286956
2298.000000	0.284268
2299.000000	0.282280
2300.000000	0.280466
2301.000000	0.278612
2302.000000	0.277639
2303.000000	0.277385
2304.000000	0.276274
2305.000000	0.276066
2306.000000	0.274018
2307.000000	0.269418
2308.000000	0.267794
2309.000000	0.267115
2310.000000	0.264174
2311.000000	0.265846
2312.000000	0.266968
2313.000000	0.263468
2314.000000	0.263225
2315.000000	0.262771
2316.000000	0.259113
2317.000000	0.257076
2318.000000	0.257702
2319.000000	0.258843
2320.000000	0.260502
2321.000000	0.265947
2322.000000	0.269252
2323.000000	0.268513
2324.000000	0.270583
2325.000000	0.271186
2326.000000	0.269651
2327.000000	0.270794
2328.000000	0.269921
2329.000000	0.268634
2330.000000	0.269137
2331.000000	0.266610
2332.000000	0.265330
2333.000000	0.263316
2334.000000	0.260847
2335.000000	0.261867
2336.000000	0.266972
2337.000000	0.267269
2338.000000	0.268267
2339.000000	0.267525
2340.000000	0.262486
2341.000000	0.260169
2342.000000	0.257533
2343.000000	0.257123
2344.000000	0.259443
2345.000000	0.259391
2346.000000	0.261108
2347.000000	0.260791
2348.000000	0.258621
2349.000000	0.253388
2350.000000	0.249705
2351.000000	0.248855
2352.000000	0.247250
2353.000000	0.246654
2354.000000	0.246812
2355.000000	0.244268
2356.000000	0.240317
2357.000000	0.238118
2358.000000	0.236440
2359.000000	0.236057
2360.000000	0.237150
2361.000000	0.237929
2362.000000	0.239397
2363.000000	0.238039
2364.000000	0.233604
2365.000000	0.230902
2366.000000	0.227581
2367.000000	0.224946
2368.000000	0.225569
2369.000000	0.227098
2370.000000	0.228719
2371.000000	0.227993
2372.000000	0.224618
2373.000000	0.221363
2374.000000	0.217269
2375.000000	0.215407
2376.000000	0.217993
2377.000000	0.217416
2378.000000	0.214892
2379.000000	0.211935
2380.000000	0.206587
2381.000000	0.205593
2382.000000	0.202765
2383.000000	0.201092
2384.000000	0.203618
2385.000000	0.199402
2386.000000	0.198910
2387.000000	0.197812
2388.000000	0.191464
2389.000000	0.191064
2390.000000	0.187615
2391.000000	0.186861
2392.000000	0.192208
2393.000000	0.192493
2394.000000	0.194434
2395.000000	0.196960
2396.000000	0.193773
2397.000000	0.192956
2398.000000	0.193455
2399.000000	0.189449
2400.000000	0.190152
2401.000000	0.190243
2402.000000	0.191565
2403.000000	0.196885
2404.000000	0.191722
2405.000000	0.189287
2406.000000	0.193764
2407.000000	0.191184
2408.000000	0.193982
2409.000000	0.198245
2410.000000	0.190099
2411.000000	0.183537
2412.000000	0.181547
2413.000000	0.184574
2414.000000	0.187477
2415.000000	0.187510
2416.000000	0.188844
2417.000000	0.181893
2418.000000	0.175545
2419.000000	0.179722
2420.000000	0.186306
2421.000000	0.192792
2422.000000	0.193885
2423.000000	0.189801
2424.000000	0.192122
2425.000000	0.186402
2426.000000	0.179985
2427.000000	0.184164
2428.000000	0.180044
2429.000000	0.178803
2430.000000	0.188764
2431.000000	0.190144
2432.000000	0.185051
2433.000000	0.186442
2434.000000	0.176825
2435.000000	0.162031
2436.000000	0.159773
2437.000000	0.150665
2438.000000	0.148591
2439.000000	0.169239
2440.000000	0.181295
2441.000000	0.191273
2442.000000	0.203267
2443.000000	0.204245
2444.000000	0.209887
2445.000000	0.208899
2446.000000	0.204677
2447.000000	0.193024
2448.000000	0.168742
2449.000000	0.152408
2450.000000	0.138157
2451.000000	0.137500
2452.000000	0.148006
2453.000000	0.167819
2454.000000	0.199220
2455.000000	0.208417
2456.000000	0.209465
2457.000000	0.202111
2458.000000	0.164706
2459.000000	0.150550
2460.000000	0.152065
2461.000000	0.148654
2462.000000	0.165336
2463.000000	0.168223
2464.000000	0.151113
2465.000000	0.141820
2466.000000	0.144479
2467.000000	0.136187
2468.000000	0.128968
2469.000000	0.142999
2470.000000	0.138270
2471.000000	0.126704
2472.000000	0.137206
2473.000000	0.115048
2474.000000	0.087250
2475.000000	0.122188
2476.000000	0.128708
2477.000000	0.117886
2478.000000	0.126832
2479.000000	0.105165
2480.000000	0.094905
2481.000000	0.112478
2482.000000	0.163035
2483.000000	0.198652
2484.000000	0.204241
2485.000000	0.226187
2486.000000	0.203035
2487.000000	0.168217
2488.000000	0.165196
2489.000000	0.150801
2490.000000	0.142720
2491.000000	0.145916
2492.000000	0.130339
2493.000000	0.084404
2494.000000	0.053361
2495.000000	0.018997
2496.000000	0.002670
2497.000000	0.004996
2498.000000	0.031236
2499.000000	0.089204
2500.000000	0.123795
