# Wavelength	SM1200H-30_FV7-70_00001.asd.rts.txt
350.000000	0.258581
351.000000	0.256460
352.000000	0.253670
353.000000	0.249918
354.000000	0.247909
355.000000	0.248346
356.000000	0.250896
357.000000	0.253142
358.000000	0.246524
359.000000	0.246575
360.000000	0.250110
361.000000	0.250240
362.000000	0.250613
363.000000	0.252558
364.000000	0.255157
365.000000	0.254892
366.000000	0.254542
367.000000	0.254281
368.000000	0.252708
369.000000	0.253854
370.000000	0.256322
371.000000	0.257184
372.000000	0.255555
373.000000	0.254647
374.000000	0.256383
375.000000	0.256279
376.000000	0.257241
377.000000	0.259355
378.000000	0.260457
379.000000	0.259196
380.000000	0.257993
381.000000	0.260685
382.000000	0.262035
383.000000	0.262281
384.000000	0.262429
385.000000	0.262547
386.000000	0.262454
387.000000	0.262283
388.000000	0.262084
389.000000	0.262378
390.000000	0.262914
391.000000	0.262965
392.000000	0.263883
393.000000	0.264829
394.000000	0.265142
395.000000	0.265727
396.000000	0.266237
397.000000	0.266475
398.000000	0.266518
399.000000	0.267013
400.000000	0.267559
401.000000	0.267247
402.000000	0.268040
403.000000	0.269001
404.000000	0.269238
405.000000	0.269298
406.000000	0.269700
407.000000	0.270320
408.000000	0.269648
409.000000	0.269770
410.000000	0.270704
411.000000	0.271270
412.000000	0.271435
413.000000	0.271508
414.000000	0.271832
415.000000	0.272082
416.000000	0.272497
417.000000	0.273082
418.000000	0.273219
419.000000	0.273316
420.000000	0.273570
421.000000	0.274043
422.000000	0.274075
423.000000	0.274054
424.000000	0.274657
425.000000	0.274891
426.000000	0.275019
427.000000	0.275300
428.000000	0.275600
429.000000	0.275823
430.000000	0.275982
431.000000	0.276197
432.000000	0.276520
433.000000	0.276831
434.000000	0.277037
435.000000	0.276961
436.000000	0.277095
437.000000	0.277737
438.000000	0.277852
439.000000	0.277977
440.000000	0.278383
441.000000	0.278311
442.000000	0.278207
443.000000	0.278235
444.000000	0.278589
445.000000	0.278956
446.000000	0.279262
447.000000	0.279337
448.000000	0.279492
449.000000	0.279715
450.000000	0.279965
451.000000	0.280168
452.000000	0.280455
453.000000	0.280773
454.000000	0.281111
455.000000	0.281359
456.000000	0.281573
457.000000	0.281690
458.000000	0.281894
459.000000	0.282135
460.000000	0.282397
461.000000	0.282723
462.000000	0.282975
463.000000	0.283012
464.000000	0.283289
465.000000	0.283523
466.000000	0.283631
467.000000	0.283795
468.000000	0.284050
469.000000	0.284258
470.000000	0.284445
471.000000	0.284627
472.000000	0.284781
473.000000	0.284941
474.000000	0.285179
475.000000	0.285343
476.000000	0.285533
477.000000	0.285733
478.000000	0.285822
479.000000	0.286015
480.000000	0.286258
481.000000	0.286413
482.000000	0.286650
483.000000	0.286887
484.000000	0.287172
485.000000	0.287321
486.000000	0.287486
487.000000	0.287793
488.000000	0.288092
489.000000	0.288351
490.000000	0.288585
491.000000	0.288779
492.000000	0.289014
493.000000	0.289236
494.000000	0.289520
495.000000	0.289809
496.000000	0.290022
497.000000	0.290243
498.000000	0.290454
499.000000	0.290702
500.000000	0.290897
501.000000	0.291060
502.000000	0.291299
503.000000	0.291654
504.000000	0.291902
505.000000	0.292140
506.000000	0.292467
507.000000	0.292620
508.000000	0.292837
509.000000	0.293173
510.000000	0.293418
511.000000	0.293663
512.000000	0.293971
513.000000	0.294340
514.000000	0.294660
515.000000	0.294966
516.000000	0.295267
517.000000	0.295559
518.000000	0.295846
519.000000	0.296053
520.000000	0.296266
521.000000	0.296551
522.000000	0.296886
523.000000	0.297083
524.000000	0.297322
525.000000	0.297592
526.000000	0.297842
527.000000	0.298106
528.000000	0.298351
529.000000	0.298596
530.000000	0.298815
531.000000	0.299106
532.000000	0.299413
533.000000	0.299682
534.000000	0.299921
535.000000	0.300144
536.000000	0.300436
537.000000	0.300680
538.000000	0.300891
539.000000	0.301122
540.000000	0.301369
541.000000	0.301624
542.000000	0.301907
543.000000	0.302160
544.000000	0.302414
545.000000	0.302630
546.000000	0.302899
547.000000	0.303197
548.000000	0.303529
549.000000	0.303808
550.000000	0.304126
551.000000	0.304466
552.000000	0.304727
553.000000	0.304927
554.000000	0.305142
555.000000	0.305419
556.000000	0.305686
557.000000	0.305909
558.000000	0.306191
559.000000	0.306406
560.000000	0.306629
561.000000	0.306956
562.000000	0.307324
563.000000	0.307669
564.000000	0.308023
565.000000	0.308324
566.000000	0.308667
567.000000	0.308996
568.000000	0.309264
569.000000	0.309559
570.000000	0.309845
571.000000	0.310114
572.000000	0.310408
573.000000	0.310706
574.000000	0.310982
575.000000	0.311275
576.000000	0.311548
577.000000	0.311781
578.000000	0.312033
579.000000	0.312307
580.000000	0.312618
581.000000	0.312949
582.000000	0.313241
583.000000	0.313487
584.000000	0.313717
585.000000	0.313988
586.000000	0.314222
587.000000	0.314430
588.000000	0.314647
589.000000	0.314900
590.000000	0.315137
591.000000	0.315341
592.000000	0.315594
593.000000	0.315853
594.000000	0.316095
595.000000	0.316322
596.000000	0.316547
597.000000	0.316816
598.000000	0.317071
599.000000	0.317272
600.000000	0.317476
601.000000	0.317663
602.000000	0.317897
603.000000	0.318127
604.000000	0.318342
605.000000	0.318576
606.000000	0.318806
607.000000	0.319037
608.000000	0.319288
609.000000	0.319493
610.000000	0.319641
611.000000	0.319743
612.000000	0.319839
613.000000	0.319946
614.000000	0.320089
615.000000	0.320181
616.000000	0.320221
617.000000	0.320224
618.000000	0.320328
619.000000	0.320448
620.000000	0.320521
621.000000	0.320563
622.000000	0.320642
623.000000	0.320727
624.000000	0.320795
625.000000	0.320945
626.000000	0.321040
627.000000	0.321032
628.000000	0.321016
629.000000	0.321031
630.000000	0.320983
631.000000	0.321002
632.000000	0.321045
633.000000	0.321128
634.000000	0.321243
635.000000	0.321309
636.000000	0.321447
637.000000	0.321687
638.000000	0.321927
639.000000	0.322116
640.000000	0.322295
641.000000	0.322413
642.000000	0.322584
643.000000	0.322803
644.000000	0.323036
645.000000	0.323275
646.000000	0.323512
647.000000	0.323714
648.000000	0.323901
649.000000	0.324077
650.000000	0.324217
651.000000	0.324319
652.000000	0.324364
653.000000	0.324409
654.000000	0.324460
655.000000	0.324523
656.000000	0.324643
657.000000	0.324782
658.000000	0.324891
659.000000	0.325005
660.000000	0.325127
661.000000	0.325268
662.000000	0.325348
663.000000	0.325402
664.000000	0.325419
665.000000	0.325485
666.000000	0.325605
667.000000	0.325735
668.000000	0.325895
669.000000	0.326043
670.000000	0.326180
671.000000	0.326392
672.000000	0.326574
673.000000	0.326717
674.000000	0.326905
675.000000	0.327019
676.000000	0.327082
677.000000	0.327171
678.000000	0.327262
679.000000	0.327380
680.000000	0.327540
681.000000	0.327670
682.000000	0.327868
683.000000	0.328077
684.000000	0.328325
685.000000	0.328556
686.000000	0.328775
687.000000	0.328947
688.000000	0.329083
689.000000	0.329170
690.000000	0.329245
691.000000	0.329334
692.000000	0.329417
693.000000	0.329555
694.000000	0.329720
695.000000	0.329895
696.000000	0.330058
697.000000	0.330200
698.000000	0.330373
699.000000	0.330556
700.000000	0.330721
701.000000	0.330808
702.000000	0.330927
703.000000	0.331079
704.000000	0.331171
705.000000	0.331280
706.000000	0.331370
707.000000	0.331462
708.000000	0.331555
709.000000	0.331633
710.000000	0.331709
711.000000	0.331794
712.000000	0.331897
713.000000	0.332045
714.000000	0.332239
715.000000	0.332365
716.000000	0.332464
717.000000	0.332608
718.000000	0.332730
719.000000	0.332834
720.000000	0.332935
721.000000	0.332976
722.000000	0.332981
723.000000	0.333030
724.000000	0.333073
725.000000	0.333129
726.000000	0.333265
727.000000	0.333385
728.000000	0.333462
729.000000	0.333528
730.000000	0.333571
731.000000	0.333690
732.000000	0.333783
733.000000	0.333859
734.000000	0.333946
735.000000	0.334006
736.000000	0.334150
737.000000	0.334263
738.000000	0.334341
739.000000	0.334436
740.000000	0.334423
741.000000	0.334480
742.000000	0.334563
743.000000	0.334612
744.000000	0.334631
745.000000	0.334668
746.000000	0.334762
747.000000	0.334837
748.000000	0.334929
749.000000	0.335033
750.000000	0.335109
751.000000	0.335172
752.000000	0.335237
753.000000	0.335310
754.000000	0.335360
755.000000	0.335442
756.000000	0.335520
757.000000	0.335503
758.000000	0.335527
759.000000	0.335591
760.000000	0.335595
761.000000	0.335544
762.000000	0.335502
763.000000	0.335491
764.000000	0.335597
765.000000	0.335674
766.000000	0.335748
767.000000	0.335848
768.000000	0.335925
769.000000	0.335946
770.000000	0.335925
771.000000	0.335937
772.000000	0.335959
773.000000	0.335942
774.000000	0.335970
775.000000	0.336029
776.000000	0.336101
777.000000	0.336153
778.000000	0.336203
779.000000	0.336219
780.000000	0.336212
781.000000	0.336215
782.000000	0.336263
783.000000	0.336374
784.000000	0.336370
785.000000	0.336333
786.000000	0.336322
787.000000	0.336344
788.000000	0.336338
789.000000	0.336289
790.000000	0.336193
791.000000	0.336115
792.000000	0.336102
793.000000	0.336125
794.000000	0.336157
795.000000	0.336216
796.000000	0.336228
797.000000	0.336178
798.000000	0.336118
799.000000	0.336087
800.000000	0.336100
801.000000	0.336159
802.000000	0.336241
803.000000	0.336237
804.000000	0.336153
805.000000	0.336080
806.000000	0.336013
807.000000	0.336010
808.000000	0.336000
809.000000	0.336087
810.000000	0.336221
811.000000	0.336320
812.000000	0.336359
813.000000	0.336369
814.000000	0.336376
815.000000	0.336430
816.000000	0.336443
817.000000	0.336467
818.000000	0.336467
819.000000	0.336393
820.000000	0.336305
821.000000	0.336184
822.000000	0.336062
823.000000	0.336031
824.000000	0.336039
825.000000	0.336101
826.000000	0.336135
827.000000	0.336145
828.000000	0.336164
829.000000	0.336073
830.000000	0.335927
831.000000	0.335841
832.000000	0.335779
833.000000	0.335810
834.000000	0.335798
835.000000	0.335685
836.000000	0.335567
837.000000	0.335502
838.000000	0.335518
839.000000	0.335561
840.000000	0.335578
841.000000	0.335541
842.000000	0.335402
843.000000	0.335232
844.000000	0.335113
845.000000	0.335047
846.000000	0.335028
847.000000	0.334939
848.000000	0.334818
849.000000	0.334775
850.000000	0.334815
851.000000	0.334847
852.000000	0.334841
853.000000	0.334733
854.000000	0.334631
855.000000	0.334609
856.000000	0.334508
857.000000	0.334280
858.000000	0.334145
859.000000	0.334105
860.000000	0.334055
861.000000	0.334001
862.000000	0.333931
863.000000	0.333761
864.000000	0.333651
865.000000	0.333553
866.000000	0.333448
867.000000	0.333324
868.000000	0.333293
869.000000	0.333258
870.000000	0.333165
871.000000	0.333025
872.000000	0.332889
873.000000	0.332742
874.000000	0.332670
875.000000	0.332485
876.000000	0.332218
877.000000	0.331927
878.000000	0.331667
879.000000	0.331565
880.000000	0.331507
881.000000	0.331458
882.000000	0.331351
883.000000	0.331181
884.000000	0.330915
885.000000	0.330665
886.000000	0.330435
887.000000	0.330239
888.000000	0.330037
889.000000	0.329892
890.000000	0.329707
891.000000	0.329586
892.000000	0.329580
893.000000	0.329474
894.000000	0.329282
895.000000	0.329001
896.000000	0.328650
897.000000	0.328333
898.000000	0.328148
899.000000	0.327961
900.000000	0.327793
901.000000	0.327640
902.000000	0.327599
903.000000	0.327430
904.000000	0.327189
905.000000	0.326903
906.000000	0.326712
907.000000	0.326471
908.000000	0.326158
909.000000	0.325714
910.000000	0.325404
911.000000	0.325167
912.000000	0.324924
913.000000	0.324744
914.000000	0.324598
915.000000	0.324489
916.000000	0.324270
917.000000	0.324052
918.000000	0.323874
919.000000	0.323712
920.000000	0.323518
921.000000	0.323293
922.000000	0.323082
923.000000	0.322909
924.000000	0.322681
925.000000	0.322461
926.000000	0.322301
927.000000	0.322085
928.000000	0.321894
929.000000	0.321687
930.000000	0.321407
931.000000	0.321078
932.000000	0.320769
933.000000	0.320525
934.000000	0.320249
935.000000	0.319998
936.000000	0.319731
937.000000	0.319332
938.000000	0.319013
939.000000	0.318732
940.000000	0.318474
941.000000	0.318373
942.000000	0.318096
943.000000	0.317790
944.000000	0.317463
945.000000	0.317206
946.000000	0.316927
947.000000	0.316724
948.000000	0.316630
949.000000	0.316523
950.000000	0.316335
951.000000	0.316064
952.000000	0.315887
953.000000	0.315689
954.000000	0.315352
955.000000	0.314817
956.000000	0.314450
957.000000	0.314234
958.000000	0.314078
959.000000	0.313962
960.000000	0.313733
961.000000	0.313454
962.000000	0.313184
963.000000	0.313000
964.000000	0.312672
965.000000	0.312451
966.000000	0.312383
967.000000	0.312165
968.000000	0.311853
969.000000	0.311459
970.000000	0.311119
971.000000	0.310855
972.000000	0.310642
973.000000	0.310386
974.000000	0.310120
975.000000	0.309928
976.000000	0.309775
977.000000	0.309593
978.000000	0.309310
979.000000	0.309307
980.000000	0.309180
981.000000	0.308802
982.000000	0.308700
983.000000	0.308476
984.000000	0.308181
985.000000	0.308200
986.000000	0.308027
987.000000	0.307781
988.000000	0.307479
989.000000	0.307069
990.000000	0.306754
991.000000	0.306526
992.000000	0.306358
993.000000	0.306295
994.000000	0.306136
995.000000	0.305995
996.000000	0.305808
997.000000	0.305639
998.000000	0.305550
999.000000	0.305653
1000.000000	0.305876
1001.000000	0.306022
1002.000000	0.305643
1003.000000	0.305414
1004.000000	0.305228
1005.000000	0.305096
1006.000000	0.304760
1007.000000	0.304463
1008.000000	0.304061
1009.000000	0.303560
1010.000000	0.303072
1011.000000	0.302990
1012.000000	0.303065
1013.000000	0.302913
1014.000000	0.302920
1015.000000	0.302805
1016.000000	0.302685
1017.000000	0.302855
1018.000000	0.303176
1019.000000	0.303412
1020.000000	0.304152
1021.000000	0.303887
1022.000000	0.303123
1023.000000	0.302863
1024.000000	0.302123
1025.000000	0.301829
1026.000000	0.301988
1027.000000	0.302100
1028.000000	0.302394
1029.000000	0.302625
1030.000000	0.302867
1031.000000	0.303010
1032.000000	0.302876
1033.000000	0.302822
1034.000000	0.302845
1035.000000	0.302945
1036.000000	0.302974
1037.000000	0.303096
1038.000000	0.303034
1039.000000	0.302899
1040.000000	0.302835
1041.000000	0.302838
1042.000000	0.302808
1043.000000	0.302934
1044.000000	0.303080
1045.000000	0.303226
1046.000000	0.303461
1047.000000	0.303558
1048.000000	0.303513
1049.000000	0.303498
1050.000000	0.303364
1051.000000	0.303371
1052.000000	0.303318
1053.000000	0.303416
1054.000000	0.304021
1055.000000	0.304296
1056.000000	0.304455
1057.000000	0.304753
1058.000000	0.304881
1059.000000	0.304835
1060.000000	0.305122
1061.000000	0.305239
1062.000000	0.305211
1063.000000	0.305241
1064.000000	0.305335
1065.000000	0.305333
1066.000000	0.305546
1067.000000	0.306025
1068.000000	0.306154
1069.000000	0.306142
1070.000000	0.306165
1071.000000	0.305880
1072.000000	0.305945
1073.000000	0.306284
1074.000000	0.306762
1075.000000	0.306878
1076.000000	0.307318
1077.000000	0.307519
1078.000000	0.307574
1079.000000	0.307701
1080.000000	0.307908
1081.000000	0.308075
1082.000000	0.308303
1083.000000	0.308430
1084.000000	0.308444
1085.000000	0.308807
1086.000000	0.309393
1087.000000	0.309698
1088.000000	0.310050
1089.000000	0.310313
1090.000000	0.310273
1091.000000	0.310173
1092.000000	0.310248
1093.000000	0.310658
1094.000000	0.310838
1095.000000	0.310848
1096.000000	0.311058
1097.000000	0.311341
1098.000000	0.311586
1099.000000	0.311873
1100.000000	0.312142
1101.000000	0.312320
1102.000000	0.312522
1103.000000	0.312692
1104.000000	0.312925
1105.000000	0.313194
1106.000000	0.313438
1107.000000	0.313642
1108.000000	0.313838
1109.000000	0.314039
1110.000000	0.314313
1111.000000	0.314485
1112.000000	0.314630
1113.000000	0.314830
1114.000000	0.314998
1115.000000	0.315196
1116.000000	0.315514
1117.000000	0.315682
1118.000000	0.315764
1119.000000	0.315785
1120.000000	0.315642
1121.000000	0.315679
1122.000000	0.315811
1123.000000	0.316154
1124.000000	0.316504
1125.000000	0.316819
1126.000000	0.317138
1127.000000	0.317346
1128.000000	0.317489
1129.000000	0.317543
1130.000000	0.317778
1131.000000	0.318083
1132.000000	0.318236
1133.000000	0.318526
1134.000000	0.318671
1135.000000	0.318533
1136.000000	0.318557
1137.000000	0.318663
1138.000000	0.318661
1139.000000	0.318712
1140.000000	0.318805
1141.000000	0.318768
1142.000000	0.318835
1143.000000	0.318876
1144.000000	0.319084
1145.000000	0.319267
1146.000000	0.319414
1147.000000	0.319461
1148.000000	0.319348
1149.000000	0.319419
1150.000000	0.319477
1151.000000	0.319597
1152.000000	0.319848
1153.000000	0.319967
1154.000000	0.319980
1155.000000	0.319981
1156.000000	0.319906
1157.000000	0.319931
1158.000000	0.319868
1159.000000	0.319919
1160.000000	0.320139
1161.000000	0.320240
1162.000000	0.320378
1163.000000	0.320647
1164.000000	0.320652
1165.000000	0.320615
1166.000000	0.320620
1167.000000	0.320515
1168.000000	0.320474
1169.000000	0.320521
1170.000000	0.320518
1171.000000	0.320532
1172.000000	0.320576
1173.000000	0.320599
1174.000000	0.320605
1175.000000	0.320595
1176.000000	0.320551
1177.000000	0.320534
1178.000000	0.320521
1179.000000	0.320506
1180.000000	0.320430
1181.000000	0.320389
1182.000000	0.320395
1183.000000	0.320359
1184.000000	0.320451
1185.000000	0.320459
1186.000000	0.320441
1187.000000	0.320454
1188.000000	0.320476
1189.000000	0.320423
1190.000000	0.320410
1191.000000	0.320403
1192.000000	0.320434
1193.000000	0.320556
1194.000000	0.320629
1195.000000	0.320703
1196.000000	0.320747
1197.000000	0.320758
1198.000000	0.320751
1199.000000	0.320801
1200.000000	0.320854
1201.000000	0.320878
1202.000000	0.320952
1203.000000	0.321031
1204.000000	0.321061
1205.000000	0.321140
1206.000000	0.321152
1207.000000	0.321274
1208.000000	0.321245
1209.000000	0.321205
1210.000000	0.321120
1211.000000	0.320929
1212.000000	0.320824
1213.000000	0.320720
1214.000000	0.320684
1215.000000	0.320748
1216.000000	0.320718
1217.000000	0.320656
1218.000000	0.320586
1219.000000	0.320463
1220.000000	0.320399
1221.000000	0.320479
1222.000000	0.320472
1223.000000	0.320546
1224.000000	0.320650
1225.000000	0.320644
1226.000000	0.320706
1227.000000	0.320705
1228.000000	0.320708
1229.000000	0.320659
1230.000000	0.320511
1231.000000	0.320415
1232.000000	0.320444
1233.000000	0.320513
1234.000000	0.320619
1235.000000	0.320666
1236.000000	0.320601
1237.000000	0.320637
1238.000000	0.320659
1239.000000	0.320645
1240.000000	0.320622
1241.000000	0.320660
1242.000000	0.320681
1243.000000	0.320753
1244.000000	0.320812
1245.000000	0.320856
1246.000000	0.320832
1247.000000	0.320844
1248.000000	0.320899
1249.000000	0.320935
1250.000000	0.320913
1251.000000	0.320802
1252.000000	0.320764
1253.000000	0.320799
1254.000000	0.320768
1255.000000	0.320740
1256.000000	0.320728
1257.000000	0.320706
1258.000000	0.320659
1259.000000	0.320558
1260.000000	0.320530
1261.000000	0.320407
1262.000000	0.320339
1263.000000	0.320376
1264.000000	0.320325
1265.000000	0.320340
1266.000000	0.320399
1267.000000	0.320397
1268.000000	0.320360
1269.000000	0.320264
1270.000000	0.320223
1271.000000	0.320199
1272.000000	0.320274
1273.000000	0.320380
1274.000000	0.320373
1275.000000	0.320335
1276.000000	0.320306
1277.000000	0.320279
1278.000000	0.320094
1279.000000	0.319986
1280.000000	0.319838
1281.000000	0.319707
1282.000000	0.319647
1283.000000	0.319626
1284.000000	0.319570
1285.000000	0.319505
1286.000000	0.319436
1287.000000	0.319327
1288.000000	0.319255
1289.000000	0.319190
1290.000000	0.319026
1291.000000	0.318882
1292.000000	0.318789
1293.000000	0.318755
1294.000000	0.318810
1295.000000	0.318883
1296.000000	0.318919
1297.000000	0.318907
1298.000000	0.318855
1299.000000	0.318898
1300.000000	0.319060
1301.000000	0.319126
1302.000000	0.319129
1303.000000	0.319252
1304.000000	0.319269
1305.000000	0.319246
1306.000000	0.319275
1307.000000	0.319417
1308.000000	0.319467
1309.000000	0.319508
1310.000000	0.319468
1311.000000	0.319361
1312.000000	0.319207
1313.000000	0.319167
1314.000000	0.319069
1315.000000	0.318940
1316.000000	0.319027
1317.000000	0.319017
1318.000000	0.318888
1319.000000	0.318902
1320.000000	0.318899
1321.000000	0.318807
1322.000000	0.318814
1323.000000	0.318800
1324.000000	0.318768
1325.000000	0.318818
1326.000000	0.318879
1327.000000	0.318973
1328.000000	0.319115
1329.000000	0.319130
1330.000000	0.319089
1331.000000	0.319083
1332.000000	0.319117
1333.000000	0.319039
1334.000000	0.318956
1335.000000	0.318922
1336.000000	0.318815
1337.000000	0.318719
1338.000000	0.318638
1339.000000	0.318517
1340.000000	0.318340
1341.000000	0.318225
1342.000000	0.318131
1343.000000	0.318023
1344.000000	0.317907
1345.000000	0.317789
1346.000000	0.317769
1347.000000	0.317643
1348.000000	0.317545
1349.000000	0.317434
1350.000000	0.317358
1351.000000	0.317343
1352.000000	0.317199
1353.000000	0.317061
1354.000000	0.317087
1355.000000	0.317059
1356.000000	0.317158
1357.000000	0.317202
1358.000000	0.317071
1359.000000	0.316915
1360.000000	0.316786
1361.000000	0.316664
1362.000000	0.316597
1363.000000	0.316557
1364.000000	0.316548
1365.000000	0.316545
1366.000000	0.316543
1367.000000	0.316571
1368.000000	0.316537
1369.000000	0.316580
1370.000000	0.316569
1371.000000	0.316460
1372.000000	0.316230
1373.000000	0.315917
1374.000000	0.315725
1375.000000	0.315540
1376.000000	0.315427
1377.000000	0.315337
1378.000000	0.315037
1379.000000	0.314551
1380.000000	0.314071
1381.000000	0.313432
1382.000000	0.312602
1383.000000	0.311867
1384.000000	0.311060
1385.000000	0.310238
1386.000000	0.309613
1387.000000	0.309055
1388.000000	0.308469
1389.000000	0.308026
1390.000000	0.307810
1391.000000	0.307598
1392.000000	0.307608
1393.000000	0.307713
1394.000000	0.308014
1395.000000	0.308245
1396.000000	0.308640
1397.000000	0.308847
1398.000000	0.308921
1399.000000	0.309036
1400.000000	0.309093
1401.000000	0.309075
1402.000000	0.309065
1403.000000	0.309035
1404.000000	0.308939
1405.000000	0.308835
1406.000000	0.308778
1407.000000	0.308687
1408.000000	0.308544
1409.000000	0.308457
1410.000000	0.308377
1411.000000	0.308274
1412.000000	0.308222
1413.000000	0.308302
1414.000000	0.308357
1415.000000	0.308380
1416.000000	0.308449
1417.000000	0.308484
1418.000000	0.308444
1419.000000	0.308555
1420.000000	0.308648
1421.000000	0.308727
1422.000000	0.308844
1423.000000	0.308941
1424.000000	0.308889
1425.000000	0.308910
1426.000000	0.308963
1427.000000	0.309047
1428.000000	0.309156
1429.000000	0.309265
1430.000000	0.309351
1431.000000	0.309387
1432.000000	0.309444
1433.000000	0.309543
1434.000000	0.309612
1435.000000	0.309787
1436.000000	0.309893
1437.000000	0.309983
1438.000000	0.310013
1439.000000	0.310003
1440.000000	0.310030
1441.000000	0.310049
1442.000000	0.310112
1443.000000	0.310156
1444.000000	0.310191
1445.000000	0.310245
1446.000000	0.310280
1447.000000	0.310288
1448.000000	0.310361
1449.000000	0.310468
1450.000000	0.310590
1451.000000	0.310744
1452.000000	0.310823
1453.000000	0.310882
1454.000000	0.310898
1455.000000	0.310902
1456.000000	0.311001
1457.000000	0.311069
1458.000000	0.311133
1459.000000	0.311233
1460.000000	0.311317
1461.000000	0.311398
1462.000000	0.311464
1463.000000	0.311457
1464.000000	0.311458
1465.000000	0.311496
1466.000000	0.311477
1467.000000	0.311478
1468.000000	0.311488
1469.000000	0.311520
1470.000000	0.311518
1471.000000	0.311523
1472.000000	0.311516
1473.000000	0.311596
1474.000000	0.311636
1475.000000	0.311685
1476.000000	0.311744
1477.000000	0.311755
1478.000000	0.311835
1479.000000	0.311903
1480.000000	0.311942
1481.000000	0.311988
1482.000000	0.312076
1483.000000	0.312144
1484.000000	0.312243
1485.000000	0.312287
1486.000000	0.312249
1487.000000	0.312269
1488.000000	0.312295
1489.000000	0.312364
1490.000000	0.312382
1491.000000	0.312451
1492.000000	0.312467
1493.000000	0.312540
1494.000000	0.312621
1495.000000	0.312695
1496.000000	0.312810
1497.000000	0.312911
1498.000000	0.313035
1499.000000	0.313088
1500.000000	0.313175
1501.000000	0.313301
1502.000000	0.313383
1503.000000	0.313479
1504.000000	0.313577
1505.000000	0.313569
1506.000000	0.313499
1507.000000	0.313447
1508.000000	0.313399
1509.000000	0.313326
1510.000000	0.313320
1511.000000	0.313360
1512.000000	0.313313
1513.000000	0.313254
1514.000000	0.313261
1515.000000	0.313206
1516.000000	0.313222
1517.000000	0.313288
1518.000000	0.313282
1519.000000	0.313240
1520.000000	0.313233
1521.000000	0.313192
1522.000000	0.313288
1523.000000	0.313459
1524.000000	0.313471
1525.000000	0.313500
1526.000000	0.313436
1527.000000	0.313294
1528.000000	0.313320
1529.000000	0.313322
1530.000000	0.313215
1531.000000	0.313212
1532.000000	0.313178
1533.000000	0.313116
1534.000000	0.313129
1535.000000	0.313093
1536.000000	0.312992
1537.000000	0.313037
1538.000000	0.313095
1539.000000	0.313089
1540.000000	0.313151
1541.000000	0.313239
1542.000000	0.313344
1543.000000	0.313450
1544.000000	0.313487
1545.000000	0.313528
1546.000000	0.313578
1547.000000	0.313602
1548.000000	0.313639
1549.000000	0.313687
1550.000000	0.313648
1551.000000	0.313618
1552.000000	0.313676
1553.000000	0.313722
1554.000000	0.313737
1555.000000	0.313765
1556.000000	0.313822
1557.000000	0.313790
1558.000000	0.313834
1559.000000	0.313910
1560.000000	0.313921
1561.000000	0.313959
1562.000000	0.313947
1563.000000	0.313910
1564.000000	0.313873
1565.000000	0.313791
1566.000000	0.313708
1567.000000	0.313721
1568.000000	0.313714
1569.000000	0.313803
1570.000000	0.313795
1571.000000	0.313717
1572.000000	0.313667
1573.000000	0.313586
1574.000000	0.313553
1575.000000	0.313614
1576.000000	0.313590
1577.000000	0.313482
1578.000000	0.313415
1579.000000	0.313400
1580.000000	0.313359
1581.000000	0.313418
1582.000000	0.313403
1583.000000	0.313332
1584.000000	0.313201
1585.000000	0.313081
1586.000000	0.313044
1587.000000	0.312986
1588.000000	0.312951
1589.000000	0.313030
1590.000000	0.312996
1591.000000	0.312915
1592.000000	0.312876
1593.000000	0.312848
1594.000000	0.312805
1595.000000	0.312791
1596.000000	0.312787
1597.000000	0.312829
1598.000000	0.312823
1599.000000	0.312874
1600.000000	0.312857
1601.000000	0.312841
1602.000000	0.312818
1603.000000	0.312791
1604.000000	0.312771
1605.000000	0.312783
1606.000000	0.312745
1607.000000	0.312775
1608.000000	0.312708
1609.000000	0.312585
1610.000000	0.312533
1611.000000	0.312494
1612.000000	0.312445
1613.000000	0.312558
1614.000000	0.312523
1615.000000	0.312454
1616.000000	0.312436
1617.000000	0.312320
1618.000000	0.312302
1619.000000	0.312333
1620.000000	0.312333
1621.000000	0.312399
1622.000000	0.312468
1623.000000	0.312501
1624.000000	0.312525
1625.000000	0.312421
1626.000000	0.312343
1627.000000	0.312252
1628.000000	0.312229
1629.000000	0.312254
1630.000000	0.312241
1631.000000	0.312141
1632.000000	0.312107
1633.000000	0.312084
1634.000000	0.312111
1635.000000	0.312286
1636.000000	0.312297
1637.000000	0.312264
1638.000000	0.312224
1639.000000	0.312156
1640.000000	0.312133
1641.000000	0.312213
1642.000000	0.312222
1643.000000	0.312265
1644.000000	0.312230
1645.000000	0.312104
1646.000000	0.312020
1647.000000	0.311962
1648.000000	0.311855
1649.000000	0.311867
1650.000000	0.311806
1651.000000	0.311697
1652.000000	0.311635
1653.000000	0.311521
1654.000000	0.311465
1655.000000	0.311366
1656.000000	0.311229
1657.000000	0.311186
1658.000000	0.311097
1659.000000	0.311085
1660.000000	0.311080
1661.000000	0.310986
1662.000000	0.310924
1663.000000	0.310825
1664.000000	0.310786
1665.000000	0.310771
1666.000000	0.310834
1667.000000	0.310899
1668.000000	0.310917
1669.000000	0.310886
1670.000000	0.310904
1671.000000	0.311052
1672.000000	0.311141
1673.000000	0.311243
1674.000000	0.311281
1675.000000	0.311258
1676.000000	0.311275
1677.000000	0.311286
1678.000000	0.311207
1679.000000	0.311105
1680.000000	0.311024
1681.000000	0.310988
1682.000000	0.310982
1683.000000	0.310986
1684.000000	0.310896
1685.000000	0.310738
1686.000000	0.310529
1687.000000	0.310421
1688.000000	0.310392
1689.000000	0.310382
1690.000000	0.310391
1691.000000	0.310459
1692.000000	0.310450
1693.000000	0.310459
1694.000000	0.310492
1695.000000	0.310579
1696.000000	0.310657
1697.000000	0.310663
1698.000000	0.310711
1699.000000	0.310735
1700.000000	0.310739
1701.000000	0.310766
1702.000000	0.310573
1703.000000	0.310415
1704.000000	0.310302
1705.000000	0.310213
1706.000000	0.310216
1707.000000	0.310202
1708.000000	0.310177
1709.000000	0.310086
1710.000000	0.310022
1711.000000	0.310021
1712.000000	0.310060
1713.000000	0.310077
1714.000000	0.310207
1715.000000	0.310264
1716.000000	0.310299
1717.000000	0.310281
1718.000000	0.310164
1719.000000	0.310084
1720.000000	0.310044
1721.000000	0.309963
1722.000000	0.309870
1723.000000	0.309814
1724.000000	0.309777
1725.000000	0.309719
1726.000000	0.309593
1727.000000	0.309518
1728.000000	0.309330
1729.000000	0.309216
1730.000000	0.309304
1731.000000	0.309361
1732.000000	0.309479
1733.000000	0.309576
1734.000000	0.309555
1735.000000	0.309591
1736.000000	0.309582
1737.000000	0.309592
1738.000000	0.309699
1739.000000	0.309653
1740.000000	0.309513
1741.000000	0.309365
1742.000000	0.309094
1743.000000	0.309109
1744.000000	0.309240
1745.000000	0.309194
1746.000000	0.309199
1747.000000	0.309117
1748.000000	0.309050
1749.000000	0.309165
1750.000000	0.309208
1751.000000	0.309342
1752.000000	0.309479
1753.000000	0.309461
1754.000000	0.309484
1755.000000	0.309441
1756.000000	0.309380
1757.000000	0.309342
1758.000000	0.309306
1759.000000	0.309221
1760.000000	0.309134
1761.000000	0.309008
1762.000000	0.308903
1763.000000	0.308774
1764.000000	0.308718
1765.000000	0.308700
1766.000000	0.308691
1767.000000	0.308621
1768.000000	0.308595
1769.000000	0.308717
1770.000000	0.308790
1771.000000	0.308834
1772.000000	0.308881
1773.000000	0.308772
1774.000000	0.308885
1775.000000	0.309221
1776.000000	0.309418
1777.000000	0.309687
1778.000000	0.309750
1779.000000	0.309602
1780.000000	0.309618
1781.000000	0.309590
1782.000000	0.309581
1783.000000	0.309699
1784.000000	0.309652
1785.000000	0.309539
1786.000000	0.309485
1787.000000	0.309554
1788.000000	0.309650
1789.000000	0.309599
1790.000000	0.309490
1791.000000	0.309321
1792.000000	0.309131
1793.000000	0.308978
1794.000000	0.308784
1795.000000	0.308718
1796.000000	0.308779
1797.000000	0.308737
1798.000000	0.308651
1799.000000	0.308665
1800.000000	0.308718
1801.000000	0.308754
1802.000000	0.308583
1803.000000	0.308698
1804.000000	0.308729
1805.000000	0.309166
1806.000000	0.309160
1807.000000	0.308592
1808.000000	0.308626
1809.000000	0.308884
1810.000000	0.308901
1811.000000	0.309352
1812.000000	0.310658
1813.000000	0.310924
1814.000000	0.311022
1815.000000	0.310884
1816.000000	0.309887
1817.000000	0.309419
1818.000000	0.308871
1819.000000	0.309079
1820.000000	0.309028
1821.000000	0.308685
1822.000000	0.308466
1823.000000	0.307830
1824.000000	0.307534
1825.000000	0.307494
1826.000000	0.307441
1827.000000	0.307392
1828.000000	0.307285
1829.000000	0.306973
1830.000000	0.306926
1831.000000	0.306918
1832.000000	0.306670
1833.000000	0.306954
1834.000000	0.308000
1835.000000	0.308231
1836.000000	0.308156
1837.000000	0.308351
1838.000000	0.308343
1839.000000	0.308105
1840.000000	0.307764
1841.000000	0.307336
1842.000000	0.307148
1843.000000	0.306442
1844.000000	0.306301
1845.000000	0.306967
1846.000000	0.307167
1847.000000	0.307098
1848.000000	0.306973
1849.000000	0.306878
1850.000000	0.306427
1851.000000	0.306211
1852.000000	0.305894
1853.000000	0.305889
1854.000000	0.305906
1855.000000	0.305840
1856.000000	0.305888
1857.000000	0.305721
1858.000000	0.305297
1859.000000	0.305188
1860.000000	0.304968
1861.000000	0.304744
1862.000000	0.304737
1863.000000	0.305038
1864.000000	0.305106
1865.000000	0.305606
1866.000000	0.305534
1867.000000	0.305001
1868.000000	0.304451
1869.000000	0.303969
1870.000000	0.302864
1871.000000	0.302581
1872.000000	0.302988
1873.000000	0.302852
1874.000000	0.302765
1875.000000	0.302519
1876.000000	0.301935
1877.000000	0.300648
1878.000000	0.299740
1879.000000	0.299257
1880.000000	0.298774
1881.000000	0.298161
1882.000000	0.297630
1883.000000	0.297028
1884.000000	0.296274
1885.000000	0.295287
1886.000000	0.294146
1887.000000	0.292769
1888.000000	0.291191
1889.000000	0.289676
1890.000000	0.288426
1891.000000	0.287417
1892.000000	0.286430
1893.000000	0.285361
1894.000000	0.284118
1895.000000	0.282957
1896.000000	0.281894
1897.000000	0.280997
1898.000000	0.279917
1899.000000	0.279262
1900.000000	0.278682
1901.000000	0.277672
1902.000000	0.276789
1903.000000	0.276335
1904.000000	0.276146
1905.000000	0.275885
1906.000000	0.275629
1907.000000	0.275556
1908.000000	0.275523
1909.000000	0.275529
1910.000000	0.275885
1911.000000	0.276479
1912.000000	0.277060
1913.000000	0.277410
1914.000000	0.277763
1915.000000	0.277823
1916.000000	0.277833
1917.000000	0.278228
1918.000000	0.279011
1919.000000	0.279687
1920.000000	0.280495
1921.000000	0.281213
1922.000000	0.281222
1923.000000	0.281222
1924.000000	0.281006
1925.000000	0.280791
1926.000000	0.281056
1927.000000	0.281591
1928.000000	0.281942
1929.000000	0.282499
1930.000000	0.283119
1931.000000	0.283439
1932.000000	0.283427
1933.000000	0.283576
1934.000000	0.283766
1935.000000	0.283922
1936.000000	0.284380
1937.000000	0.284837
1938.000000	0.285150
1939.000000	0.285445
1940.000000	0.285859
1941.000000	0.285695
1942.000000	0.285625
1943.000000	0.285848
1944.000000	0.285578
1945.000000	0.285691
1946.000000	0.286122
1947.000000	0.286492
1948.000000	0.287001
1949.000000	0.287587
1950.000000	0.287902
1951.000000	0.287811
1952.000000	0.287277
1953.000000	0.286865
1954.000000	0.286474
1955.000000	0.286019
1956.000000	0.286166
1957.000000	0.286606
1958.000000	0.286903
1959.000000	0.287370
1960.000000	0.287687
1961.000000	0.287571
1962.000000	0.287645
1963.000000	0.287787
1964.000000	0.288028
1965.000000	0.288048
1966.000000	0.288231
1967.000000	0.288322
1968.000000	0.288315
1969.000000	0.288559
1970.000000	0.288774
1971.000000	0.288901
1972.000000	0.289335
1973.000000	0.289207
1974.000000	0.288625
1975.000000	0.288475
1976.000000	0.288410
1977.000000	0.287983
1978.000000	0.287879
1979.000000	0.288538
1980.000000	0.288895
1981.000000	0.289150
1982.000000	0.289781
1983.000000	0.290446
1984.000000	0.290781
1985.000000	0.291092
1986.000000	0.291241
1987.000000	0.291311
1988.000000	0.290995
1989.000000	0.290723
1990.000000	0.290690
1991.000000	0.290682
1992.000000	0.290924
1993.000000	0.291434
1994.000000	0.291754
1995.000000	0.291997
1996.000000	0.292287
1997.000000	0.292421
1998.000000	0.292535
1999.000000	0.292679
2000.000000	0.292758
2001.000000	0.292693
2002.000000	0.292938
2003.000000	0.293057
2004.000000	0.293452
2005.000000	0.293443
2006.000000	0.293117
2007.000000	0.293017
2008.000000	0.292827
2009.000000	0.292175
2010.000000	0.292377
2011.000000	0.292881
2012.000000	0.293220
2013.000000	0.293946
2014.000000	0.294377
2015.000000	0.294331
2016.000000	0.294546
2017.000000	0.294643
2018.000000	0.294504
2019.000000	0.294479
2020.000000	0.294436
2021.000000	0.294434
2022.000000	0.294401
2023.000000	0.294487
2024.000000	0.294746
2025.000000	0.294902
2026.000000	0.295061
2027.000000	0.294799
2028.000000	0.294535
2029.000000	0.294390
2030.000000	0.294265
2031.000000	0.294477
2032.000000	0.295008
2033.000000	0.295398
2034.000000	0.295607
2035.000000	0.295931
2036.000000	0.295871
2037.000000	0.295639
2038.000000	0.295445
2039.000000	0.295087
2040.000000	0.294859
2041.000000	0.294827
2042.000000	0.294748
2043.000000	0.294869
2044.000000	0.295079
2045.000000	0.295025
2046.000000	0.294968
2047.000000	0.294959
2048.000000	0.294791
2049.000000	0.294897
2050.000000	0.294881
2051.000000	0.294745
2052.000000	0.294391
2053.000000	0.294240
2054.000000	0.294243
2055.000000	0.294555
2056.000000	0.294893
2057.000000	0.295363
2058.000000	0.295662
2059.000000	0.295847
2060.000000	0.295985
2061.000000	0.296156
2062.000000	0.296110
2063.000000	0.295980
2064.000000	0.295644
2065.000000	0.295190
2066.000000	0.294940
2067.000000	0.294979
2068.000000	0.294820
2069.000000	0.295161
2070.000000	0.295693
2071.000000	0.295671
2072.000000	0.295828
2073.000000	0.295751
2074.000000	0.295487
2075.000000	0.295621
2076.000000	0.296129
2077.000000	0.296297
2078.000000	0.296789
2079.000000	0.296588
2080.000000	0.295609
2081.000000	0.295277
2082.000000	0.294991
2083.000000	0.294550
2084.000000	0.294647
2085.000000	0.294967
2086.000000	0.295238
2087.000000	0.295510
2088.000000	0.295842
2089.000000	0.296152
2090.000000	0.296190
2091.000000	0.295865
2092.000000	0.295883
2093.000000	0.295971
2094.000000	0.295963
2095.000000	0.296148
2096.000000	0.296218
2097.000000	0.296115
2098.000000	0.295759
2099.000000	0.296162
2100.000000	0.296201
2101.000000	0.295649
2102.000000	0.295812
2103.000000	0.295639
2104.000000	0.295365
2105.000000	0.295452
2106.000000	0.296088
2107.000000	0.296350
2108.000000	0.296537
2109.000000	0.296773
2110.000000	0.296859
2111.000000	0.297022
2112.000000	0.297209
2113.000000	0.297000
2114.000000	0.296770
2115.000000	0.296823
2116.000000	0.297141
2117.000000	0.297347
2118.000000	0.297678
2119.000000	0.297893
2120.000000	0.297915
2121.000000	0.297564
2122.000000	0.297303
2123.000000	0.297002
2124.000000	0.296673
2125.000000	0.296099
2126.000000	0.295834
2127.000000	0.295703
2128.000000	0.295697
2129.000000	0.295875
2130.000000	0.296010
2131.000000	0.295904
2132.000000	0.296027
2133.000000	0.295418
2134.000000	0.294747
2135.000000	0.294402
2136.000000	0.293722
2137.000000	0.293605
2138.000000	0.294223
2139.000000	0.294418
2140.000000	0.294672
2141.000000	0.294818
2142.000000	0.294859
2143.000000	0.294564
2144.000000	0.294172
2145.000000	0.294089
2146.000000	0.293837
2147.000000	0.294286
2148.000000	0.295030
2149.000000	0.295168
2150.000000	0.295271
2151.000000	0.295115
2152.000000	0.294756
2153.000000	0.294605
2154.000000	0.294800
2155.000000	0.295377
2156.000000	0.295848
2157.000000	0.296939
2158.000000	0.297270
2159.000000	0.297260
2160.000000	0.297237
2161.000000	0.296608
2162.000000	0.296435
2163.000000	0.296175
2164.000000	0.296251
2165.000000	0.296887
2166.000000	0.297192
2167.000000	0.297353
2168.000000	0.297172
2169.000000	0.296236
2170.000000	0.295437
2171.000000	0.295087
2172.000000	0.294902
2173.000000	0.294893
2174.000000	0.295374
2175.000000	0.295514
2176.000000	0.295809
2177.000000	0.295856
2178.000000	0.295632
2179.000000	0.295790
2180.000000	0.295642
2181.000000	0.296111
2182.000000	0.296710
2183.000000	0.297226
2184.000000	0.297452
2185.000000	0.297483
2186.000000	0.297437
2187.000000	0.297009
2188.000000	0.296641
2189.000000	0.296457
2190.000000	0.295982
2191.000000	0.296318
2192.000000	0.296388
2193.000000	0.296817
2194.000000	0.296790
2195.000000	0.296351
2196.000000	0.296402
2197.000000	0.296660
2198.000000	0.296823
2199.000000	0.297390
2200.000000	0.297895
2201.000000	0.298203
2202.000000	0.298242
2203.000000	0.298346
2204.000000	0.297862
2205.000000	0.296168
2206.000000	0.296044
2207.000000	0.296082
2208.000000	0.295610
2209.000000	0.295864
2210.000000	0.296913
2211.000000	0.297723
2212.000000	0.299414
2213.000000	0.299252
2214.000000	0.297837
2215.000000	0.296769
2216.000000	0.294331
2217.000000	0.293018
2218.000000	0.292343
2219.000000	0.292108
2220.000000	0.292742
2221.000000	0.292520
2222.000000	0.291925
2223.000000	0.291734
2224.000000	0.290810
2225.000000	0.291194
2226.000000	0.291719
2227.000000	0.292291
2228.000000	0.293179
2229.000000	0.292823
2230.000000	0.291892
2231.000000	0.292171
2232.000000	0.291822
2233.000000	0.290584
2234.000000	0.290161
2235.000000	0.290569
2236.000000	0.290590
2237.000000	0.290260
2238.000000	0.291053
2239.000000	0.292435
2240.000000	0.293342
2241.000000	0.296011
2242.000000	0.296234
2243.000000	0.294709
2244.000000	0.293703
2245.000000	0.290676
2246.000000	0.289534
2247.000000	0.289581
2248.000000	0.288956
2249.000000	0.288770
2250.000000	0.288984
2251.000000	0.287971
2252.000000	0.288143
2253.000000	0.287863
2254.000000	0.287790
2255.000000	0.288097
2256.000000	0.287467
2257.000000	0.288139
2258.000000	0.288720
2259.000000	0.288743
2260.000000	0.289646
2261.000000	0.290052
2262.000000	0.290008
2263.000000	0.290377
2264.000000	0.290997
2265.000000	0.291505
2266.000000	0.292754
2267.000000	0.292784
2268.000000	0.292000
2269.000000	0.291678
2270.000000	0.290412
2271.000000	0.289650
2272.000000	0.289774
2273.000000	0.289440
2274.000000	0.288230
2275.000000	0.288153
2276.000000	0.289071
2277.000000	0.289007
2278.000000	0.288756
2279.000000	0.289442
2280.000000	0.288856
2281.000000	0.287960
2282.000000	0.288104
2283.000000	0.287884
2284.000000	0.286740
2285.000000	0.285750
2286.000000	0.284000
2287.000000	0.281952
2288.000000	0.281390
2289.000000	0.281148
2290.000000	0.281208
2291.000000	0.282009
2292.000000	0.282980
2293.000000	0.283130
2294.000000	0.282525
2295.000000	0.280966
2296.000000	0.280087
2297.000000	0.278015
2298.000000	0.277543
2299.000000	0.279351
2300.000000	0.278980
2301.000000	0.277788
2302.000000	0.277216
2303.000000	0.275943
2304.000000	0.274078
2305.000000	0.271972
2306.000000	0.270806
2307.000000	0.268890
2308.000000	0.268199
2309.000000	0.269531
2310.000000	0.271213
2311.000000	0.271600
2312.000000	0.271333
2313.000000	0.270456
2314.000000	0.269457
2315.000000	0.269627
2316.000000	0.271677
2317.000000	0.273730
2318.000000	0.274749
2319.000000	0.275307
2320.000000	0.273978
2321.000000	0.273276
2322.000000	0.274267
2323.000000	0.275252
2324.000000	0.276619
2325.000000	0.277376
2326.000000	0.277288
2327.000000	0.277686
2328.000000	0.277308
2329.000000	0.277356
2330.000000	0.278123
2331.000000	0.277876
2332.000000	0.278240
2333.000000	0.278205
2334.000000	0.277018
2335.000000	0.277566
2336.000000	0.278686
2337.000000	0.279331
2338.000000	0.281267
2339.000000	0.282456
2340.000000	0.282817
2341.000000	0.283180
2342.000000	0.283152
2343.000000	0.282641
2344.000000	0.281199
2345.000000	0.280951
2346.000000	0.281418
2347.000000	0.282036
2348.000000	0.283521
2349.000000	0.284188
2350.000000	0.284748
2351.000000	0.285670
2352.000000	0.284622
2353.000000	0.283734
2354.000000	0.282795
2355.000000	0.281653
2356.000000	0.282638
2357.000000	0.282639
2358.000000	0.281679
2359.000000	0.280619
2360.000000	0.278056
2361.000000	0.278916
2362.000000	0.280455
2363.000000	0.281211
2364.000000	0.282264
2365.000000	0.280910
2366.000000	0.280638
2367.000000	0.280036
2368.000000	0.279175
2369.000000	0.280688
2370.000000	0.280747
2371.000000	0.281238
2372.000000	0.281730
2373.000000	0.279987
2374.000000	0.277273
2375.000000	0.274020
2376.000000	0.272532
2377.000000	0.271394
2378.000000	0.269803
2379.000000	0.268926
2380.000000	0.269246
2381.000000	0.271745
2382.000000	0.274460
2383.000000	0.276068
2384.000000	0.278124
2385.000000	0.278495
2386.000000	0.277303
2387.000000	0.275096
2388.000000	0.269393
2389.000000	0.266658
2390.000000	0.265340
2391.000000	0.263956
2392.000000	0.268257
2393.000000	0.271470
2394.000000	0.275942
2395.000000	0.282348
2396.000000	0.283161
2397.000000	0.282464
2398.000000	0.281353
2399.000000	0.279663
2400.000000	0.278918
2401.000000	0.277174
2402.000000	0.273847
2403.000000	0.271796
2404.000000	0.268803
2405.000000	0.266962
2406.000000	0.268651
2407.000000	0.269187
2408.000000	0.269909
2409.000000	0.269798
2410.000000	0.269005
2411.000000	0.268748
2412.000000	0.270654
2413.000000	0.274618
2414.000000	0.281594
2415.000000	0.289173
2416.000000	0.290650
2417.000000	0.291990
2418.000000	0.289215
2419.000000	0.280194
2420.000000	0.278132
2421.000000	0.275410
2422.000000	0.270870
2423.000000	0.269728
2424.000000	0.263811
2425.000000	0.261370
2426.000000	0.264318
2427.000000	0.267704
2428.000000	0.270967
2429.000000	0.273701
2430.000000	0.275242
2431.000000	0.275775
2432.000000	0.278437
2433.000000	0.280398
2434.000000	0.278196
2435.000000	0.269396
2436.000000	0.258812
2437.000000	0.253587
2438.000000	0.257463
2439.000000	0.266325
2440.000000	0.272581
2441.000000	0.278310
2442.000000	0.276669
2443.000000	0.268319
2444.000000	0.260108
2445.000000	0.250054
2446.000000	0.243825
2447.000000	0.247722
2448.000000	0.258141
2449.000000	0.269176
2450.000000	0.280132
2451.000000	0.282088
2452.000000	0.278870
2453.000000	0.279392
2454.000000	0.279268
2455.000000	0.279005
2456.000000	0.280832
2457.000000	0.278376
2458.000000	0.274280
2459.000000	0.276061
2460.000000	0.275877
2461.000000	0.269751
2462.000000	0.250210
2463.000000	0.238058
2464.000000	0.233416
2465.000000	0.229042
2466.000000	0.244272
2467.000000	0.260502
2468.000000	0.268088
2469.000000	0.273288
2470.000000	0.280732
2471.000000	0.268423
2472.000000	0.250867
2473.000000	0.245243
2474.000000	0.227158
2475.000000	0.232289
2476.000000	0.245833
2477.000000	0.243651
2478.000000	0.257510
2479.000000	0.265803
2480.000000	0.260380
2481.000000	0.264942
2482.000000	0.264790
2483.000000	0.236104
2484.000000	0.215867
2485.000000	0.215085
2486.000000	0.210977
2487.000000	0.231555
2488.000000	0.251080
2489.000000	0.241257
2490.000000	0.242883
2491.000000	0.269292
2492.000000	0.267353
2493.000000	0.280056
2494.000000	0.279239
2495.000000	0.230803
2496.000000	0.205629
2497.000000	0.176087
2498.000000	0.163991
2499.000000	0.169595
2500.000000	0.167780
