# Wavelength	SM1200H-40_HEX-30_FV7-30_00001.asd.rts.txt
350.000000	0.303866
351.000000	0.295689
352.000000	0.286039
353.000000	0.283816
354.000000	0.291610
355.000000	0.293635
356.000000	0.290744
357.000000	0.287261
358.000000	0.285629
359.000000	0.285496
360.000000	0.283941
361.000000	0.279129
362.000000	0.285381
363.000000	0.287156
364.000000	0.278229
365.000000	0.282458
366.000000	0.292207
367.000000	0.297678
368.000000	0.286108
369.000000	0.284488
370.000000	0.290232
371.000000	0.292474
372.000000	0.291964
373.000000	0.288619
374.000000	0.284791
375.000000	0.286767
376.000000	0.291230
377.000000	0.294750
378.000000	0.293574
379.000000	0.294718
380.000000	0.295140
381.000000	0.291187
382.000000	0.293518
383.000000	0.295685
384.000000	0.294078
385.000000	0.297013
386.000000	0.298254
387.000000	0.296899
388.000000	0.297152
389.000000	0.297167
390.000000	0.296500
391.000000	0.295061
392.000000	0.296959
393.000000	0.298333
394.000000	0.296692
395.000000	0.297377
396.000000	0.298129
397.000000	0.297973
398.000000	0.297573
399.000000	0.298862
400.000000	0.300914
401.000000	0.301401
402.000000	0.301279
403.000000	0.301197
404.000000	0.301693
405.000000	0.302177
406.000000	0.302836
407.000000	0.303634
408.000000	0.303903
409.000000	0.304133
410.000000	0.304470
411.000000	0.304835
412.000000	0.305289
413.000000	0.305901
414.000000	0.306645
415.000000	0.306780
416.000000	0.306653
417.000000	0.306651
418.000000	0.307071
419.000000	0.307836
420.000000	0.308555
421.000000	0.308478
422.000000	0.308463
423.000000	0.308778
424.000000	0.309495
425.000000	0.309641
426.000000	0.309790
427.000000	0.310344
428.000000	0.310660
429.000000	0.310968
430.000000	0.311301
431.000000	0.311362
432.000000	0.311777
433.000000	0.312328
434.000000	0.312554
435.000000	0.312689
436.000000	0.312607
437.000000	0.312302
438.000000	0.312740
439.000000	0.313221
440.000000	0.313473
441.000000	0.313735
442.000000	0.313971
443.000000	0.314137
444.000000	0.314389
445.000000	0.314878
446.000000	0.315309
447.000000	0.315155
448.000000	0.315109
449.000000	0.315459
450.000000	0.316193
451.000000	0.316636
452.000000	0.316843
453.000000	0.316834
454.000000	0.316870
455.000000	0.317213
456.000000	0.317670
457.000000	0.317663
458.000000	0.318139
459.000000	0.318599
460.000000	0.318631
461.000000	0.318897
462.000000	0.319155
463.000000	0.319185
464.000000	0.319544
465.000000	0.319959
466.000000	0.320201
467.000000	0.320206
468.000000	0.320454
469.000000	0.320715
470.000000	0.320877
471.000000	0.321363
472.000000	0.321610
473.000000	0.321419
474.000000	0.321573
475.000000	0.321764
476.000000	0.322021
477.000000	0.322271
478.000000	0.322407
479.000000	0.322655
480.000000	0.322917
481.000000	0.323091
482.000000	0.323369
483.000000	0.323663
484.000000	0.324136
485.000000	0.324353
486.000000	0.324460
487.000000	0.324978
488.000000	0.325217
489.000000	0.325214
490.000000	0.325454
491.000000	0.325707
492.000000	0.326017
493.000000	0.326308
494.000000	0.326698
495.000000	0.327013
496.000000	0.327153
497.000000	0.327539
498.000000	0.327919
499.000000	0.328246
500.000000	0.328456
501.000000	0.328679
502.000000	0.328982
503.000000	0.329288
504.000000	0.329664
505.000000	0.329900
506.000000	0.329885
507.000000	0.330171
508.000000	0.330569
509.000000	0.330891
510.000000	0.331220
511.000000	0.331428
512.000000	0.331618
513.000000	0.332017
514.000000	0.332409
515.000000	0.332740
516.000000	0.332943
517.000000	0.333212
518.000000	0.333554
519.000000	0.333854
520.000000	0.334238
521.000000	0.334529
522.000000	0.334712
523.000000	0.334991
524.000000	0.335289
525.000000	0.335568
526.000000	0.335860
527.000000	0.336223
528.000000	0.336526
529.000000	0.336717
530.000000	0.337026
531.000000	0.337350
532.000000	0.337542
533.000000	0.337844
534.000000	0.338208
535.000000	0.338547
536.000000	0.338758
537.000000	0.339001
538.000000	0.339280
539.000000	0.339532
540.000000	0.339849
541.000000	0.340137
542.000000	0.340368
543.000000	0.340692
544.000000	0.340999
545.000000	0.341194
546.000000	0.341537
547.000000	0.341863
548.000000	0.342170
549.000000	0.342438
550.000000	0.342670
551.000000	0.342962
552.000000	0.343339
553.000000	0.343653
554.000000	0.343974
555.000000	0.344352
556.000000	0.344697
557.000000	0.344959
558.000000	0.345289
559.000000	0.345654
560.000000	0.345921
561.000000	0.346202
562.000000	0.346539
563.000000	0.346786
564.000000	0.347071
565.000000	0.347405
566.000000	0.347780
567.000000	0.348120
568.000000	0.348390
569.000000	0.348743
570.000000	0.349081
571.000000	0.349367
572.000000	0.349649
573.000000	0.350027
574.000000	0.350393
575.000000	0.350660
576.000000	0.350977
577.000000	0.351279
578.000000	0.351572
579.000000	0.351863
580.000000	0.352106
581.000000	0.352333
582.000000	0.352739
583.000000	0.353023
584.000000	0.353227
585.000000	0.353586
586.000000	0.353869
587.000000	0.354099
588.000000	0.354363
589.000000	0.354767
590.000000	0.355118
591.000000	0.355303
592.000000	0.355435
593.000000	0.355627
594.000000	0.355884
595.000000	0.356101
596.000000	0.356422
597.000000	0.356764
598.000000	0.356855
599.000000	0.356957
600.000000	0.357152
601.000000	0.357365
602.000000	0.357592
603.000000	0.357751
604.000000	0.357860
605.000000	0.358090
606.000000	0.358297
607.000000	0.358444
608.000000	0.358551
609.000000	0.358737
610.000000	0.358977
611.000000	0.359202
612.000000	0.359360
613.000000	0.359443
614.000000	0.359526
615.000000	0.359692
616.000000	0.359884
617.000000	0.360022
618.000000	0.360123
619.000000	0.360251
620.000000	0.360407
621.000000	0.360635
622.000000	0.360851
623.000000	0.361021
624.000000	0.361136
625.000000	0.361261
626.000000	0.361425
627.000000	0.361590
628.000000	0.361568
629.000000	0.361789
630.000000	0.362044
631.000000	0.362137
632.000000	0.362257
633.000000	0.362372
634.000000	0.362411
635.000000	0.362500
636.000000	0.362695
637.000000	0.362964
638.000000	0.363198
639.000000	0.363317
640.000000	0.363420
641.000000	0.363572
642.000000	0.363707
643.000000	0.363850
644.000000	0.364046
645.000000	0.364196
646.000000	0.364308
647.000000	0.364382
648.000000	0.364497
649.000000	0.364584
650.000000	0.364638
651.000000	0.364829
652.000000	0.364977
653.000000	0.365121
654.000000	0.365282
655.000000	0.365406
656.000000	0.365545
657.000000	0.365682
658.000000	0.365843
659.000000	0.365997
660.000000	0.366132
661.000000	0.366349
662.000000	0.366486
663.000000	0.366614
664.000000	0.366807
665.000000	0.366977
666.000000	0.367140
667.000000	0.367278
668.000000	0.367294
669.000000	0.367378
670.000000	0.367599
671.000000	0.367689
672.000000	0.367850
673.000000	0.368077
674.000000	0.368236
675.000000	0.368386
676.000000	0.368553
677.000000	0.368770
678.000000	0.369012
679.000000	0.369188
680.000000	0.369274
681.000000	0.369374
682.000000	0.369515
683.000000	0.369618
684.000000	0.369765
685.000000	0.369914
686.000000	0.370090
687.000000	0.370267
688.000000	0.370441
689.000000	0.370610
690.000000	0.370802
691.000000	0.370969
692.000000	0.371094
693.000000	0.371259
694.000000	0.371446
695.000000	0.371685
696.000000	0.371916
697.000000	0.372059
698.000000	0.372275
699.000000	0.372476
700.000000	0.372589
701.000000	0.372681
702.000000	0.372832
703.000000	0.373015
704.000000	0.373114
705.000000	0.373239
706.000000	0.373361
707.000000	0.373514
708.000000	0.373696
709.000000	0.373849
710.000000	0.373972
711.000000	0.374158
712.000000	0.374356
713.000000	0.374572
714.000000	0.374837
715.000000	0.374951
716.000000	0.374957
717.000000	0.374985
718.000000	0.375100
719.000000	0.375219
720.000000	0.375293
721.000000	0.375438
722.000000	0.375541
723.000000	0.375653
724.000000	0.375829
725.000000	0.375970
726.000000	0.376110
727.000000	0.376143
728.000000	0.376218
729.000000	0.376319
730.000000	0.376371
731.000000	0.376515
732.000000	0.376645
733.000000	0.376782
734.000000	0.376967
735.000000	0.377086
736.000000	0.377239
737.000000	0.377305
738.000000	0.377383
739.000000	0.377527
740.000000	0.377556
741.000000	0.377593
742.000000	0.377682
743.000000	0.377773
744.000000	0.377805
745.000000	0.377835
746.000000	0.377931
747.000000	0.378034
748.000000	0.378161
749.000000	0.378288
750.000000	0.378362
751.000000	0.378440
752.000000	0.378492
753.000000	0.378532
754.000000	0.378583
755.000000	0.378731
756.000000	0.378897
757.000000	0.378927
758.000000	0.378990
759.000000	0.379042
760.000000	0.378997
761.000000	0.379050
762.000000	0.379165
763.000000	0.379266
764.000000	0.379346
765.000000	0.379429
766.000000	0.379505
767.000000	0.379573
768.000000	0.379767
769.000000	0.379842
770.000000	0.379787
771.000000	0.379930
772.000000	0.380100
773.000000	0.380162
774.000000	0.380165
775.000000	0.380168
776.000000	0.380210
777.000000	0.380277
778.000000	0.380317
779.000000	0.380311
780.000000	0.380283
781.000000	0.380270
782.000000	0.380303
783.000000	0.380450
784.000000	0.380549
785.000000	0.380637
786.000000	0.380670
787.000000	0.380649
788.000000	0.380685
789.000000	0.380718
790.000000	0.380715
791.000000	0.380709
792.000000	0.380659
793.000000	0.380687
794.000000	0.380852
795.000000	0.380913
796.000000	0.380966
797.000000	0.381035
798.000000	0.381085
799.000000	0.381120
800.000000	0.381147
801.000000	0.381170
802.000000	0.381144
803.000000	0.381158
804.000000	0.381259
805.000000	0.381235
806.000000	0.381136
807.000000	0.381105
808.000000	0.381141
809.000000	0.381198
810.000000	0.381238
811.000000	0.381206
812.000000	0.381039
813.000000	0.381015
814.000000	0.381121
815.000000	0.381106
816.000000	0.381104
817.000000	0.381107
818.000000	0.381003
819.000000	0.381018
820.000000	0.381076
821.000000	0.381065
822.000000	0.381025
823.000000	0.381051
824.000000	0.381044
825.000000	0.380998
826.000000	0.380904
827.000000	0.380808
828.000000	0.380804
829.000000	0.380902
830.000000	0.380952
831.000000	0.380987
832.000000	0.380931
833.000000	0.380868
834.000000	0.380807
835.000000	0.380776
836.000000	0.380701
837.000000	0.380693
838.000000	0.380729
839.000000	0.380632
840.000000	0.380539
841.000000	0.380443
842.000000	0.380298
843.000000	0.380298
844.000000	0.380471
845.000000	0.380663
846.000000	0.380615
847.000000	0.380481
848.000000	0.380338
849.000000	0.380258
850.000000	0.380083
851.000000	0.379936
852.000000	0.379914
853.000000	0.379918
854.000000	0.379828
855.000000	0.379752
856.000000	0.379635
857.000000	0.379523
858.000000	0.379469
859.000000	0.379396
860.000000	0.379312
861.000000	0.379269
862.000000	0.379265
863.000000	0.379189
864.000000	0.379150
865.000000	0.379153
866.000000	0.379161
867.000000	0.378951
868.000000	0.378844
869.000000	0.378737
870.000000	0.378530
871.000000	0.378392
872.000000	0.378318
873.000000	0.378222
874.000000	0.378170
875.000000	0.378023
876.000000	0.377858
877.000000	0.377738
878.000000	0.377515
879.000000	0.377347
880.000000	0.377149
881.000000	0.376922
882.000000	0.376762
883.000000	0.376700
884.000000	0.376640
885.000000	0.376551
886.000000	0.376383
887.000000	0.376180
888.000000	0.376057
889.000000	0.375935
890.000000	0.375736
891.000000	0.375653
892.000000	0.375582
893.000000	0.375340
894.000000	0.375061
895.000000	0.374907
896.000000	0.374729
897.000000	0.374568
898.000000	0.374489
899.000000	0.374303
900.000000	0.374054
901.000000	0.373769
902.000000	0.373601
903.000000	0.373285
904.000000	0.373058
905.000000	0.373054
906.000000	0.373034
907.000000	0.372916
908.000000	0.372765
909.000000	0.372575
910.000000	0.372241
911.000000	0.371985
912.000000	0.371971
913.000000	0.371770
914.000000	0.371508
915.000000	0.371289
916.000000	0.371007
917.000000	0.370804
918.000000	0.370634
919.000000	0.370413
920.000000	0.370151
921.000000	0.369991
922.000000	0.369893
923.000000	0.369677
924.000000	0.369305
925.000000	0.368982
926.000000	0.368836
927.000000	0.368678
928.000000	0.368617
929.000000	0.368452
930.000000	0.368012
931.000000	0.367830
932.000000	0.367609
933.000000	0.367284
934.000000	0.366962
935.000000	0.366603
936.000000	0.366380
937.000000	0.366259
938.000000	0.365985
939.000000	0.365914
940.000000	0.365853
941.000000	0.365517
942.000000	0.365138
943.000000	0.364840
944.000000	0.364487
945.000000	0.364013
946.000000	0.363710
947.000000	0.363558
948.000000	0.363355
949.000000	0.363131
950.000000	0.362845
951.000000	0.362541
952.000000	0.362474
953.000000	0.362108
954.000000	0.361792
955.000000	0.361677
956.000000	0.361326
957.000000	0.361062
958.000000	0.360915
959.000000	0.360903
960.000000	0.360661
961.000000	0.360578
962.000000	0.360532
963.000000	0.359863
964.000000	0.359596
965.000000	0.359604
966.000000	0.359439
967.000000	0.359202
968.000000	0.358607
969.000000	0.357966
970.000000	0.357923
971.000000	0.357859
972.000000	0.357834
973.000000	0.357799
974.000000	0.357745
975.000000	0.357338
976.000000	0.356957
977.000000	0.356867
978.000000	0.356562
979.000000	0.356488
980.000000	0.356344
981.000000	0.356132
982.000000	0.355863
983.000000	0.355696
984.000000	0.355684
985.000000	0.355569
986.000000	0.355360
987.000000	0.355156
988.000000	0.354902
989.000000	0.354680
990.000000	0.354342
991.000000	0.354058
992.000000	0.354059
993.000000	0.353990
994.000000	0.353766
995.000000	0.353608
996.000000	0.353475
997.000000	0.353570
998.000000	0.353554
999.000000	0.353404
1000.000000	0.353349
1001.000000	0.354032
1002.000000	0.353344
1003.000000	0.352931
1004.000000	0.352625
1005.000000	0.352058
1006.000000	0.351575
1007.000000	0.351355
1008.000000	0.351113
1009.000000	0.350852
1010.000000	0.349787
1011.000000	0.349512
1012.000000	0.350401
1013.000000	0.350305
1014.000000	0.350485
1015.000000	0.350648
1016.000000	0.349698
1017.000000	0.349546
1018.000000	0.349930
1019.000000	0.350118
1020.000000	0.350926
1021.000000	0.350750
1022.000000	0.350111
1023.000000	0.350020
1024.000000	0.349647
1025.000000	0.348980
1026.000000	0.349364
1027.000000	0.350009
1028.000000	0.350259
1029.000000	0.350706
1030.000000	0.350620
1031.000000	0.350078
1032.000000	0.349998
1033.000000	0.349998
1034.000000	0.349971
1035.000000	0.350213
1036.000000	0.350430
1037.000000	0.350644
1038.000000	0.350575
1039.000000	0.350641
1040.000000	0.350652
1041.000000	0.350405
1042.000000	0.349892
1043.000000	0.349935
1044.000000	0.350048
1045.000000	0.349786
1046.000000	0.350122
1047.000000	0.350403
1048.000000	0.350632
1049.000000	0.350920
1050.000000	0.351595
1051.000000	0.351704
1052.000000	0.351276
1053.000000	0.351291
1054.000000	0.351579
1055.000000	0.351735
1056.000000	0.351938
1057.000000	0.352554
1058.000000	0.352756
1059.000000	0.352371
1060.000000	0.352747
1061.000000	0.353134
1062.000000	0.353083
1063.000000	0.353673
1064.000000	0.353766
1065.000000	0.353301
1066.000000	0.353254
1067.000000	0.353099
1068.000000	0.353278
1069.000000	0.353875
1070.000000	0.354258
1071.000000	0.354810
1072.000000	0.355210
1073.000000	0.355526
1074.000000	0.355881
1075.000000	0.355787
1076.000000	0.356057
1077.000000	0.356563
1078.000000	0.356323
1079.000000	0.356316
1080.000000	0.356548
1081.000000	0.356541
1082.000000	0.356154
1083.000000	0.356353
1084.000000	0.357086
1085.000000	0.357317
1086.000000	0.357393
1087.000000	0.357676
1088.000000	0.357848
1089.000000	0.357853
1090.000000	0.357823
1091.000000	0.357876
1092.000000	0.358030
1093.000000	0.358135
1094.000000	0.358443
1095.000000	0.359199
1096.000000	0.359586
1097.000000	0.359731
1098.000000	0.360054
1099.000000	0.360434
1100.000000	0.360683
1101.000000	0.360894
1102.000000	0.361016
1103.000000	0.360799
1104.000000	0.360965
1105.000000	0.361436
1106.000000	0.361590
1107.000000	0.361560
1108.000000	0.361740
1109.000000	0.362006
1110.000000	0.362102
1111.000000	0.362213
1112.000000	0.362569
1113.000000	0.362659
1114.000000	0.362355
1115.000000	0.362490
1116.000000	0.362905
1117.000000	0.363092
1118.000000	0.363337
1119.000000	0.363423
1120.000000	0.363256
1121.000000	0.363291
1122.000000	0.363553
1123.000000	0.363861
1124.000000	0.364050
1125.000000	0.364166
1126.000000	0.363978
1127.000000	0.363949
1128.000000	0.363957
1129.000000	0.363909
1130.000000	0.364208
1131.000000	0.364878
1132.000000	0.365122
1133.000000	0.365542
1134.000000	0.365666
1135.000000	0.365258
1136.000000	0.365234
1137.000000	0.365401
1138.000000	0.365302
1139.000000	0.365173
1140.000000	0.365280
1141.000000	0.365333
1142.000000	0.365355
1143.000000	0.365480
1144.000000	0.365685
1145.000000	0.365619
1146.000000	0.365417
1147.000000	0.365524
1148.000000	0.365725
1149.000000	0.365881
1150.000000	0.366245
1151.000000	0.366342
1152.000000	0.366168
1153.000000	0.366207
1154.000000	0.366229
1155.000000	0.366176
1156.000000	0.366159
1157.000000	0.366168
1158.000000	0.366052
1159.000000	0.365971
1160.000000	0.365878
1161.000000	0.365898
1162.000000	0.366111
1163.000000	0.366290
1164.000000	0.366246
1165.000000	0.366212
1166.000000	0.366211
1167.000000	0.365939
1168.000000	0.365882
1169.000000	0.366092
1170.000000	0.366138
1171.000000	0.366209
1172.000000	0.366175
1173.000000	0.365941
1174.000000	0.365947
1175.000000	0.365957
1176.000000	0.365923
1177.000000	0.366201
1178.000000	0.366262
1179.000000	0.366077
1180.000000	0.365965
1181.000000	0.366038
1182.000000	0.365845
1183.000000	0.365898
1184.000000	0.366070
1185.000000	0.366098
1186.000000	0.366139
1187.000000	0.366154
1188.000000	0.366101
1189.000000	0.366011
1190.000000	0.365939
1191.000000	0.365891
1192.000000	0.365881
1193.000000	0.365994
1194.000000	0.366102
1195.000000	0.366209
1196.000000	0.366227
1197.000000	0.366308
1198.000000	0.366539
1199.000000	0.366611
1200.000000	0.366599
1201.000000	0.366655
1202.000000	0.366547
1203.000000	0.366296
1204.000000	0.366085
1205.000000	0.366067
1206.000000	0.366033
1207.000000	0.366237
1208.000000	0.366202
1209.000000	0.366118
1210.000000	0.366134
1211.000000	0.366106
1212.000000	0.366116
1213.000000	0.366369
1214.000000	0.366453
1215.000000	0.366372
1216.000000	0.366334
1217.000000	0.366220
1218.000000	0.366121
1219.000000	0.366037
1220.000000	0.366050
1221.000000	0.365899
1222.000000	0.365827
1223.000000	0.365911
1224.000000	0.365842
1225.000000	0.365908
1226.000000	0.366068
1227.000000	0.365927
1228.000000	0.365860
1229.000000	0.365807
1230.000000	0.365689
1231.000000	0.365588
1232.000000	0.365725
1233.000000	0.365845
1234.000000	0.365868
1235.000000	0.365938
1236.000000	0.365960
1237.000000	0.366036
1238.000000	0.366169
1239.000000	0.366188
1240.000000	0.366168
1241.000000	0.366129
1242.000000	0.365963
1243.000000	0.365841
1244.000000	0.365799
1245.000000	0.365893
1246.000000	0.366059
1247.000000	0.366137
1248.000000	0.366194
1249.000000	0.366194
1250.000000	0.366035
1251.000000	0.366058
1252.000000	0.366031
1253.000000	0.366028
1254.000000	0.366012
1255.000000	0.366000
1256.000000	0.365966
1257.000000	0.366010
1258.000000	0.366048
1259.000000	0.365886
1260.000000	0.365945
1261.000000	0.366063
1262.000000	0.366169
1263.000000	0.366390
1264.000000	0.366627
1265.000000	0.366717
1266.000000	0.366599
1267.000000	0.366530
1268.000000	0.366481
1269.000000	0.366376
1270.000000	0.366246
1271.000000	0.366073
1272.000000	0.365988
1273.000000	0.366025
1274.000000	0.366098
1275.000000	0.366098
1276.000000	0.366129
1277.000000	0.366153
1278.000000	0.366022
1279.000000	0.365973
1280.000000	0.365889
1281.000000	0.365790
1282.000000	0.365718
1283.000000	0.365761
1284.000000	0.365797
1285.000000	0.365813
1286.000000	0.365875
1287.000000	0.365845
1288.000000	0.365833
1289.000000	0.365850
1290.000000	0.365804
1291.000000	0.365746
1292.000000	0.365594
1293.000000	0.365334
1294.000000	0.365112
1295.000000	0.365111
1296.000000	0.365297
1297.000000	0.365395
1298.000000	0.365385
1299.000000	0.365404
1300.000000	0.365272
1301.000000	0.365142
1302.000000	0.365069
1303.000000	0.365202
1304.000000	0.365172
1305.000000	0.365319
1306.000000	0.365253
1307.000000	0.365067
1308.000000	0.364990
1309.000000	0.364733
1310.000000	0.364700
1311.000000	0.364910
1312.000000	0.365001
1313.000000	0.365011
1314.000000	0.365011
1315.000000	0.364784
1316.000000	0.364675
1317.000000	0.364652
1318.000000	0.364660
1319.000000	0.364594
1320.000000	0.364348
1321.000000	0.363982
1322.000000	0.363732
1323.000000	0.363724
1324.000000	0.363671
1325.000000	0.363557
1326.000000	0.363402
1327.000000	0.363187
1328.000000	0.363162
1329.000000	0.363038
1330.000000	0.363096
1331.000000	0.362945
1332.000000	0.362606
1333.000000	0.362399
1334.000000	0.362331
1335.000000	0.362203
1336.000000	0.362057
1337.000000	0.361909
1338.000000	0.361646
1339.000000	0.361442
1340.000000	0.361289
1341.000000	0.361089
1342.000000	0.360965
1343.000000	0.360761
1344.000000	0.360570
1345.000000	0.360538
1346.000000	0.360550
1347.000000	0.360299
1348.000000	0.359995
1349.000000	0.359785
1350.000000	0.359719
1351.000000	0.359683
1352.000000	0.359690
1353.000000	0.359604
1354.000000	0.359370
1355.000000	0.359146
1356.000000	0.359137
1357.000000	0.359126
1358.000000	0.359018
1359.000000	0.358864
1360.000000	0.358729
1361.000000	0.358539
1362.000000	0.358372
1363.000000	0.358269
1364.000000	0.358130
1365.000000	0.357924
1366.000000	0.357683
1367.000000	0.357442
1368.000000	0.357091
1369.000000	0.356833
1370.000000	0.356471
1371.000000	0.355945
1372.000000	0.355513
1373.000000	0.355103
1374.000000	0.354561
1375.000000	0.354039
1376.000000	0.353608
1377.000000	0.352900
1378.000000	0.351936
1379.000000	0.350816
1380.000000	0.349394
1381.000000	0.347788
1382.000000	0.346189
1383.000000	0.344516
1384.000000	0.342654
1385.000000	0.340797
1386.000000	0.339114
1387.000000	0.337589
1388.000000	0.336228
1389.000000	0.335112
1390.000000	0.334260
1391.000000	0.333666
1392.000000	0.333528
1393.000000	0.333432
1394.000000	0.333695
1395.000000	0.333842
1396.000000	0.334137
1397.000000	0.334130
1398.000000	0.334055
1399.000000	0.333875
1400.000000	0.333499
1401.000000	0.333016
1402.000000	0.332502
1403.000000	0.331899
1404.000000	0.331122
1405.000000	0.330220
1406.000000	0.329449
1407.000000	0.328645
1408.000000	0.327876
1409.000000	0.327245
1410.000000	0.326531
1411.000000	0.325868
1412.000000	0.325318
1413.000000	0.324805
1414.000000	0.324288
1415.000000	0.323882
1416.000000	0.323508
1417.000000	0.323139
1418.000000	0.322883
1419.000000	0.322616
1420.000000	0.322161
1421.000000	0.321880
1422.000000	0.321667
1423.000000	0.321420
1424.000000	0.321160
1425.000000	0.320889
1426.000000	0.320470
1427.000000	0.320175
1428.000000	0.319980
1429.000000	0.319741
1430.000000	0.319569
1431.000000	0.319385
1432.000000	0.319178
1433.000000	0.319005
1434.000000	0.318722
1435.000000	0.318449
1436.000000	0.318211
1437.000000	0.317918
1438.000000	0.317629
1439.000000	0.317421
1440.000000	0.317231
1441.000000	0.317033
1442.000000	0.316852
1443.000000	0.316682
1444.000000	0.316432
1445.000000	0.316234
1446.000000	0.316049
1447.000000	0.315779
1448.000000	0.315629
1449.000000	0.315451
1450.000000	0.315228
1451.000000	0.315131
1452.000000	0.314955
1453.000000	0.314831
1454.000000	0.314626
1455.000000	0.314398
1456.000000	0.314452
1457.000000	0.314386
1458.000000	0.314253
1459.000000	0.314256
1460.000000	0.314153
1461.000000	0.313996
1462.000000	0.313920
1463.000000	0.313794
1464.000000	0.313730
1465.000000	0.313795
1466.000000	0.313812
1467.000000	0.313841
1468.000000	0.313948
1469.000000	0.314127
1470.000000	0.314251
1471.000000	0.314472
1472.000000	0.314617
1473.000000	0.314715
1474.000000	0.314876
1475.000000	0.315150
1476.000000	0.315482
1477.000000	0.315856
1478.000000	0.316263
1479.000000	0.316491
1480.000000	0.316610
1481.000000	0.316814
1482.000000	0.317044
1483.000000	0.317341
1484.000000	0.317718
1485.000000	0.318054
1486.000000	0.318363
1487.000000	0.318696
1488.000000	0.319080
1489.000000	0.319501
1490.000000	0.319850
1491.000000	0.320184
1492.000000	0.320468
1493.000000	0.320788
1494.000000	0.320995
1495.000000	0.321310
1496.000000	0.321684
1497.000000	0.322088
1498.000000	0.322611
1499.000000	0.323087
1500.000000	0.323373
1501.000000	0.323550
1502.000000	0.323656
1503.000000	0.323782
1504.000000	0.324036
1505.000000	0.324340
1506.000000	0.324604
1507.000000	0.324820
1508.000000	0.325021
1509.000000	0.325172
1510.000000	0.325345
1511.000000	0.325622
1512.000000	0.325785
1513.000000	0.325951
1514.000000	0.326200
1515.000000	0.326209
1516.000000	0.326264
1517.000000	0.326460
1518.000000	0.326560
1519.000000	0.326643
1520.000000	0.326844
1521.000000	0.326979
1522.000000	0.327129
1523.000000	0.327252
1524.000000	0.327257
1525.000000	0.327323
1526.000000	0.327375
1527.000000	0.327484
1528.000000	0.327691
1529.000000	0.327833
1530.000000	0.327901
1531.000000	0.328058
1532.000000	0.328173
1533.000000	0.328206
1534.000000	0.328262
1535.000000	0.328298
1536.000000	0.328252
1537.000000	0.328324
1538.000000	0.328468
1539.000000	0.328608
1540.000000	0.328806
1541.000000	0.328999
1542.000000	0.329211
1543.000000	0.329338
1544.000000	0.329433
1545.000000	0.329655
1546.000000	0.329815
1547.000000	0.329914
1548.000000	0.329994
1549.000000	0.330027
1550.000000	0.330023
1551.000000	0.330000
1552.000000	0.330083
1553.000000	0.330216
1554.000000	0.330341
1555.000000	0.330561
1556.000000	0.330728
1557.000000	0.330780
1558.000000	0.330851
1559.000000	0.330860
1560.000000	0.330770
1561.000000	0.330630
1562.000000	0.330539
1563.000000	0.330378
1564.000000	0.330305
1565.000000	0.330392
1566.000000	0.330288
1567.000000	0.330165
1568.000000	0.330113
1569.000000	0.330089
1570.000000	0.330079
1571.000000	0.330104
1572.000000	0.330160
1573.000000	0.330230
1574.000000	0.330282
1575.000000	0.330436
1576.000000	0.330530
1577.000000	0.330562
1578.000000	0.330588
1579.000000	0.330602
1580.000000	0.330666
1581.000000	0.330843
1582.000000	0.330935
1583.000000	0.331043
1584.000000	0.331062
1585.000000	0.331075
1586.000000	0.331100
1587.000000	0.331059
1588.000000	0.331102
1589.000000	0.331236
1590.000000	0.331264
1591.000000	0.331340
1592.000000	0.331365
1593.000000	0.331324
1594.000000	0.331228
1595.000000	0.331112
1596.000000	0.331095
1597.000000	0.331061
1598.000000	0.331100
1599.000000	0.331356
1600.000000	0.331397
1601.000000	0.331459
1602.000000	0.331464
1603.000000	0.331368
1604.000000	0.331341
1605.000000	0.331300
1606.000000	0.331316
1607.000000	0.331464
1608.000000	0.331536
1609.000000	0.331712
1610.000000	0.331744
1611.000000	0.331676
1612.000000	0.331683
1613.000000	0.331768
1614.000000	0.331807
1615.000000	0.331961
1616.000000	0.332031
1617.000000	0.331946
1618.000000	0.331912
1619.000000	0.331829
1620.000000	0.331862
1621.000000	0.332032
1622.000000	0.332167
1623.000000	0.332275
1624.000000	0.332357
1625.000000	0.332272
1626.000000	0.332217
1627.000000	0.332234
1628.000000	0.332275
1629.000000	0.332230
1630.000000	0.332270
1631.000000	0.332352
1632.000000	0.332326
1633.000000	0.332261
1634.000000	0.332307
1635.000000	0.332373
1636.000000	0.332454
1637.000000	0.332685
1638.000000	0.332785
1639.000000	0.332851
1640.000000	0.332944
1641.000000	0.333100
1642.000000	0.333185
1643.000000	0.333291
1644.000000	0.333401
1645.000000	0.333454
1646.000000	0.333528
1647.000000	0.333686
1648.000000	0.333735
1649.000000	0.333844
1650.000000	0.333906
1651.000000	0.333921
1652.000000	0.334020
1653.000000	0.334062
1654.000000	0.334207
1655.000000	0.334412
1656.000000	0.334467
1657.000000	0.334540
1658.000000	0.334636
1659.000000	0.334820
1660.000000	0.334955
1661.000000	0.335022
1662.000000	0.335095
1663.000000	0.335052
1664.000000	0.335116
1665.000000	0.335262
1666.000000	0.335452
1667.000000	0.335584
1668.000000	0.335722
1669.000000	0.335918
1670.000000	0.335940
1671.000000	0.335958
1672.000000	0.336128
1673.000000	0.336202
1674.000000	0.336344
1675.000000	0.336704
1676.000000	0.336796
1677.000000	0.336903
1678.000000	0.337023
1679.000000	0.337017
1680.000000	0.337053
1681.000000	0.337267
1682.000000	0.337446
1683.000000	0.337535
1684.000000	0.337511
1685.000000	0.337504
1686.000000	0.337601
1687.000000	0.337785
1688.000000	0.337894
1689.000000	0.337908
1690.000000	0.337786
1691.000000	0.337731
1692.000000	0.337788
1693.000000	0.337871
1694.000000	0.337924
1695.000000	0.337925
1696.000000	0.337840
1697.000000	0.337769
1698.000000	0.337818
1699.000000	0.337808
1700.000000	0.337731
1701.000000	0.337783
1702.000000	0.337671
1703.000000	0.337535
1704.000000	0.337462
1705.000000	0.337500
1706.000000	0.337661
1707.000000	0.337759
1708.000000	0.337971
1709.000000	0.337986
1710.000000	0.337885
1711.000000	0.337887
1712.000000	0.337822
1713.000000	0.337904
1714.000000	0.338278
1715.000000	0.338383
1716.000000	0.338420
1717.000000	0.338505
1718.000000	0.338391
1719.000000	0.338372
1720.000000	0.338573
1721.000000	0.338656
1722.000000	0.338644
1723.000000	0.338691
1724.000000	0.338746
1725.000000	0.338908
1726.000000	0.339107
1727.000000	0.339164
1728.000000	0.339199
1729.000000	0.339081
1730.000000	0.338823
1731.000000	0.338805
1732.000000	0.338871
1733.000000	0.339017
1734.000000	0.339218
1735.000000	0.339286
1736.000000	0.339212
1737.000000	0.339349
1738.000000	0.339581
1739.000000	0.339683
1740.000000	0.339867
1741.000000	0.339923
1742.000000	0.339791
1743.000000	0.339851
1744.000000	0.340004
1745.000000	0.339996
1746.000000	0.339939
1747.000000	0.339783
1748.000000	0.339644
1749.000000	0.339447
1750.000000	0.339361
1751.000000	0.339524
1752.000000	0.339745
1753.000000	0.340099
1754.000000	0.340186
1755.000000	0.339961
1756.000000	0.339891
1757.000000	0.339732
1758.000000	0.339626
1759.000000	0.339688
1760.000000	0.339649
1761.000000	0.339456
1762.000000	0.339301
1763.000000	0.339074
1764.000000	0.339061
1765.000000	0.339176
1766.000000	0.339213
1767.000000	0.339329
1768.000000	0.339286
1769.000000	0.339108
1770.000000	0.339123
1771.000000	0.339154
1772.000000	0.339227
1773.000000	0.339368
1774.000000	0.339443
1775.000000	0.339602
1776.000000	0.339631
1777.000000	0.339473
1778.000000	0.339530
1779.000000	0.339678
1780.000000	0.339622
1781.000000	0.339528
1782.000000	0.339488
1783.000000	0.339305
1784.000000	0.339467
1785.000000	0.339628
1786.000000	0.339591
1787.000000	0.339572
1788.000000	0.339674
1789.000000	0.339706
1790.000000	0.339997
1791.000000	0.340091
1792.000000	0.340163
1793.000000	0.340207
1794.000000	0.340144
1795.000000	0.340144
1796.000000	0.340086
1797.000000	0.340143
1798.000000	0.340364
1799.000000	0.340403
1800.000000	0.340454
1801.000000	0.340177
1802.000000	0.340366
1803.000000	0.340677
1804.000000	0.340693
1805.000000	0.339949
1806.000000	0.339856
1807.000000	0.339584
1808.000000	0.340060
1809.000000	0.341537
1810.000000	0.342505
1811.000000	0.342969
1812.000000	0.343631
1813.000000	0.344002
1814.000000	0.343786
1815.000000	0.343643
1816.000000	0.343447
1817.000000	0.343136
1818.000000	0.342665
1819.000000	0.341986
1820.000000	0.341353
1821.000000	0.341941
1822.000000	0.341945
1823.000000	0.341869
1824.000000	0.341569
1825.000000	0.341193
1826.000000	0.340884
1827.000000	0.339976
1828.000000	0.339704
1829.000000	0.340256
1830.000000	0.339684
1831.000000	0.339566
1832.000000	0.339729
1833.000000	0.339675
1834.000000	0.339472
1835.000000	0.339474
1836.000000	0.339063
1837.000000	0.339291
1838.000000	0.339982
1839.000000	0.340303
1840.000000	0.341007
1841.000000	0.341760
1842.000000	0.341817
1843.000000	0.341215
1844.000000	0.340962
1845.000000	0.340351
1846.000000	0.339855
1847.000000	0.339413
1848.000000	0.338496
1849.000000	0.338121
1850.000000	0.337682
1851.000000	0.336897
1852.000000	0.335956
1853.000000	0.335393
1854.000000	0.334070
1855.000000	0.333331
1856.000000	0.333023
1857.000000	0.333142
1858.000000	0.332418
1859.000000	0.332349
1860.000000	0.332078
1861.000000	0.330927
1862.000000	0.330169
1863.000000	0.329229
1864.000000	0.328759
1865.000000	0.329171
1866.000000	0.328630
1867.000000	0.328094
1868.000000	0.326760
1869.000000	0.324728
1870.000000	0.322401
1871.000000	0.320373
1872.000000	0.318434
1873.000000	0.316521
1874.000000	0.314713
1875.000000	0.312888
1876.000000	0.310799
1877.000000	0.308680
1878.000000	0.306785
1879.000000	0.304176
1880.000000	0.301488
1881.000000	0.299041
1882.000000	0.295931
1883.000000	0.292771
1884.000000	0.289731
1885.000000	0.286202
1886.000000	0.283016
1887.000000	0.280002
1888.000000	0.277034
1889.000000	0.274130
1890.000000	0.270480
1891.000000	0.266242
1892.000000	0.261948
1893.000000	0.257497
1894.000000	0.253109
1895.000000	0.249186
1896.000000	0.245850
1897.000000	0.242626
1898.000000	0.239358
1899.000000	0.236547
1900.000000	0.233807
1901.000000	0.230760
1902.000000	0.227730
1903.000000	0.225830
1904.000000	0.224619
1905.000000	0.223631
1906.000000	0.222371
1907.000000	0.221645
1908.000000	0.220151
1909.000000	0.218495
1910.000000	0.217454
1911.000000	0.216388
1912.000000	0.215581
1913.000000	0.214783
1914.000000	0.213674
1915.000000	0.213218
1916.000000	0.212748
1917.000000	0.212205
1918.000000	0.211901
1919.000000	0.211413
1920.000000	0.210548
1921.000000	0.210624
1922.000000	0.210314
1923.000000	0.209884
1924.000000	0.210058
1925.000000	0.209987
1926.000000	0.210550
1927.000000	0.211492
1928.000000	0.211718
1929.000000	0.211682
1930.000000	0.211397
1931.000000	0.211287
1932.000000	0.211516
1933.000000	0.212410
1934.000000	0.213605
1935.000000	0.214480
1936.000000	0.215011
1937.000000	0.215031
1938.000000	0.214952
1939.000000	0.214831
1940.000000	0.214449
1941.000000	0.213813
1942.000000	0.213597
1943.000000	0.213929
1944.000000	0.214733
1945.000000	0.215532
1946.000000	0.216206
1947.000000	0.216023
1948.000000	0.215105
1949.000000	0.214547
1950.000000	0.214201
1951.000000	0.213680
1952.000000	0.213256
1953.000000	0.212964
1954.000000	0.212856
1955.000000	0.212689
1956.000000	0.213054
1957.000000	0.213389
1958.000000	0.213346
1959.000000	0.213405
1960.000000	0.213161
1961.000000	0.213330
1962.000000	0.213565
1963.000000	0.214014
1964.000000	0.214327
1965.000000	0.214674
1966.000000	0.214536
1967.000000	0.214411
1968.000000	0.214554
1969.000000	0.214770
1970.000000	0.215170
1971.000000	0.215588
1972.000000	0.215584
1973.000000	0.215508
1974.000000	0.215210
1975.000000	0.215479
1976.000000	0.215792
1977.000000	0.216414
1978.000000	0.217627
1979.000000	0.218394
1980.000000	0.218789
1981.000000	0.219200
1982.000000	0.218928
1983.000000	0.218955
1984.000000	0.219261
1985.000000	0.219464
1986.000000	0.220035
1987.000000	0.221116
1988.000000	0.222402
1989.000000	0.223396
1990.000000	0.224915
1991.000000	0.225828
1992.000000	0.226196
1993.000000	0.227128
1994.000000	0.227768
1995.000000	0.227558
1996.000000	0.227654
1997.000000	0.227700
1998.000000	0.226754
1999.000000	0.226961
2000.000000	0.227951
2001.000000	0.229004
2002.000000	0.230091
2003.000000	0.231329
2004.000000	0.232451
2005.000000	0.233308
2006.000000	0.234419
2007.000000	0.235166
2008.000000	0.235792
2009.000000	0.236087
2010.000000	0.236913
2011.000000	0.237788
2012.000000	0.238620
2013.000000	0.239866
2014.000000	0.240354
2015.000000	0.240615
2016.000000	0.240751
2017.000000	0.240985
2018.000000	0.241290
2019.000000	0.242110
2020.000000	0.243146
2021.000000	0.243967
2022.000000	0.244782
2023.000000	0.245829
2024.000000	0.246959
2025.000000	0.247962
2026.000000	0.248927
2027.000000	0.250176
2028.000000	0.251106
2029.000000	0.251137
2030.000000	0.251801
2031.000000	0.252489
2032.000000	0.252619
2033.000000	0.253676
2034.000000	0.254264
2035.000000	0.254576
2036.000000	0.254917
2037.000000	0.255327
2038.000000	0.255812
2039.000000	0.256273
2040.000000	0.257166
2041.000000	0.257716
2042.000000	0.258666
2043.000000	0.259613
2044.000000	0.260477
2045.000000	0.261403
2046.000000	0.261292
2047.000000	0.261466
2048.000000	0.261127
2049.000000	0.261350
2050.000000	0.261493
2051.000000	0.261923
2052.000000	0.262432
2053.000000	0.262840
2054.000000	0.263634
2055.000000	0.264511
2056.000000	0.264768
2057.000000	0.265281
2058.000000	0.265860
2059.000000	0.266431
2060.000000	0.267106
2061.000000	0.268027
2062.000000	0.268771
2063.000000	0.269640
2064.000000	0.270161
2065.000000	0.271124
2066.000000	0.271474
2067.000000	0.271408
2068.000000	0.271293
2069.000000	0.272167
2070.000000	0.272250
2071.000000	0.273185
2072.000000	0.274834
2073.000000	0.275442
2074.000000	0.276285
2075.000000	0.277011
2076.000000	0.277706
2077.000000	0.277879
2078.000000	0.277910
2079.000000	0.277827
2080.000000	0.277132
2081.000000	0.277005
2082.000000	0.277073
2083.000000	0.276944
2084.000000	0.277608
2085.000000	0.278458
2086.000000	0.279684
2087.000000	0.280646
2088.000000	0.281234
2089.000000	0.281899
2090.000000	0.282214
2091.000000	0.282116
2092.000000	0.282329
2093.000000	0.282254
2094.000000	0.282644
2095.000000	0.283523
2096.000000	0.284204
2097.000000	0.284862
2098.000000	0.285705
2099.000000	0.286588
2100.000000	0.287606
2101.000000	0.288433
2102.000000	0.288738
2103.000000	0.289027
2104.000000	0.289267
2105.000000	0.289351
2106.000000	0.289542
2107.000000	0.289517
2108.000000	0.288820
2109.000000	0.288813
2110.000000	0.288836
2111.000000	0.289310
2112.000000	0.290518
2113.000000	0.290940
2114.000000	0.291280
2115.000000	0.291619
2116.000000	0.290927
2117.000000	0.289852
2118.000000	0.290039
2119.000000	0.290145
2120.000000	0.290471
2121.000000	0.291463
2122.000000	0.292372
2123.000000	0.293444
2124.000000	0.294032
2125.000000	0.295012
2126.000000	0.295239
2127.000000	0.294524
2128.000000	0.294153
2129.000000	0.293118
2130.000000	0.293023
2131.000000	0.292984
2132.000000	0.292273
2133.000000	0.292418
2134.000000	0.292479
2135.000000	0.293145
2136.000000	0.293895
2137.000000	0.294225
2138.000000	0.294705
2139.000000	0.294857
2140.000000	0.294289
2141.000000	0.294212
2142.000000	0.294078
2143.000000	0.294182
2144.000000	0.294924
2145.000000	0.295327
2146.000000	0.296104
2147.000000	0.296621
2148.000000	0.296412
2149.000000	0.296783
2150.000000	0.297282
2151.000000	0.297316
2152.000000	0.296605
2153.000000	0.295627
2154.000000	0.295418
2155.000000	0.294813
2156.000000	0.295309
2157.000000	0.297803
2158.000000	0.298455
2159.000000	0.298700
2160.000000	0.298971
2161.000000	0.298283
2162.000000	0.298050
2163.000000	0.297939
2164.000000	0.297740
2165.000000	0.297653
2166.000000	0.297246
2167.000000	0.296265
2168.000000	0.296074
2169.000000	0.296762
2170.000000	0.297287
2171.000000	0.297359
2172.000000	0.298081
2173.000000	0.297996
2174.000000	0.296321
2175.000000	0.296264
2176.000000	0.297095
2177.000000	0.297462
2178.000000	0.298657
2179.000000	0.299014
2180.000000	0.298240
2181.000000	0.298576
2182.000000	0.298702
2183.000000	0.298551
2184.000000	0.299528
2185.000000	0.300543
2186.000000	0.300676
2187.000000	0.300669
2188.000000	0.299802
2189.000000	0.299119
2190.000000	0.298329
2191.000000	0.297932
2192.000000	0.297735
2193.000000	0.298220
2194.000000	0.297273
2195.000000	0.295409
2196.000000	0.294681
2197.000000	0.293156
2198.000000	0.292649
2199.000000	0.294696
2200.000000	0.295181
2201.000000	0.294326
2202.000000	0.294385
2203.000000	0.294311
2204.000000	0.295033
2205.000000	0.294234
2206.000000	0.292951
2207.000000	0.290994
2208.000000	0.288821
2209.000000	0.289519
2210.000000	0.290855
2211.000000	0.293118
2212.000000	0.294863
2213.000000	0.295021
2214.000000	0.293711
2215.000000	0.293320
2216.000000	0.291647
2217.000000	0.291309
2218.000000	0.291505
2219.000000	0.292441
2220.000000	0.295360
2221.000000	0.296044
2222.000000	0.295447
2223.000000	0.296057
2224.000000	0.296508
2225.000000	0.295950
2226.000000	0.296989
2227.000000	0.297680
2228.000000	0.298236
2229.000000	0.297883
2230.000000	0.294871
2231.000000	0.294062
2232.000000	0.291252
2233.000000	0.288439
2234.000000	0.289397
2235.000000	0.288434
2236.000000	0.288709
2237.000000	0.289822
2238.000000	0.291084
2239.000000	0.292679
2240.000000	0.294839
2241.000000	0.298478
2242.000000	0.299466
2243.000000	0.299158
2244.000000	0.299832
2245.000000	0.299384
2246.000000	0.299524
2247.000000	0.301263
2248.000000	0.301658
2249.000000	0.301745
2250.000000	0.299976
2251.000000	0.298750
2252.000000	0.296698
2253.000000	0.292548
2254.000000	0.289397
2255.000000	0.288255
2256.000000	0.288655
2257.000000	0.291449
2258.000000	0.294509
2259.000000	0.295622
2260.000000	0.295557
2261.000000	0.294805
2262.000000	0.292667
2263.000000	0.291324
2264.000000	0.289041
2265.000000	0.288215
2266.000000	0.288671
2267.000000	0.287039
2268.000000	0.284763
2269.000000	0.283502
2270.000000	0.280752
2271.000000	0.280643
2272.000000	0.283428
2273.000000	0.284738
2274.000000	0.286810
2275.000000	0.286980
2276.000000	0.285675
2277.000000	0.284745
2278.000000	0.283214
2279.000000	0.283326
2280.000000	0.283385
2281.000000	0.282233
2282.000000	0.281054
2283.000000	0.278438
2284.000000	0.276305
2285.000000	0.276603
2286.000000	0.277773
2287.000000	0.278348
2288.000000	0.278530
2289.000000	0.277127
2290.000000	0.275914
2291.000000	0.273732
2292.000000	0.271089
2293.000000	0.269284
2294.000000	0.266982
2295.000000	0.263803
2296.000000	0.261983
2297.000000	0.259294
2298.000000	0.260057
2299.000000	0.263469
2300.000000	0.264119
2301.000000	0.268260
2302.000000	0.267611
2303.000000	0.261059
2304.000000	0.259052
2305.000000	0.256816
2306.000000	0.255441
2307.000000	0.256176
2308.000000	0.257181
2309.000000	0.255788
2310.000000	0.253052
2311.000000	0.250798
2312.000000	0.248175
2313.000000	0.249324
2314.000000	0.252074
2315.000000	0.253692
2316.000000	0.256387
2317.000000	0.255434
2318.000000	0.252939
2319.000000	0.250716
2320.000000	0.247451
2321.000000	0.245921
2322.000000	0.245605
2323.000000	0.246716
2324.000000	0.249409
2325.000000	0.251575
2326.000000	0.253074
2327.000000	0.252507
2328.000000	0.251804
2329.000000	0.252162
2330.000000	0.250750
2331.000000	0.252178
2332.000000	0.254281
2333.000000	0.254501
2334.000000	0.256403
2335.000000	0.255983
2336.000000	0.251457
2337.000000	0.250111
2338.000000	0.248895
2339.000000	0.248550
2340.000000	0.252434
2341.000000	0.251987
2342.000000	0.246860
2343.000000	0.247120
2344.000000	0.248662
2345.000000	0.248759
2346.000000	0.252952
2347.000000	0.254277
2348.000000	0.251908
2349.000000	0.250283
2350.000000	0.253888
2351.000000	0.254374
2352.000000	0.251973
2353.000000	0.251966
2354.000000	0.246764
2355.000000	0.241943
2356.000000	0.243464
2357.000000	0.243649
2358.000000	0.246451
2359.000000	0.250653
2360.000000	0.246576
2361.000000	0.239854
2362.000000	0.234988
2363.000000	0.231001
2364.000000	0.231418
2365.000000	0.235200
2366.000000	0.233684
2367.000000	0.229879
2368.000000	0.228052
2369.000000	0.225070
2370.000000	0.223794
2371.000000	0.223145
2372.000000	0.220543
2373.000000	0.221619
2374.000000	0.223828
2375.000000	0.224175
2376.000000	0.225811
2377.000000	0.225225
2378.000000	0.225184
2379.000000	0.225251
2380.000000	0.225338
2381.000000	0.224883
2382.000000	0.218497
2383.000000	0.214829
2384.000000	0.213883
2385.000000	0.210681
2386.000000	0.213981
2387.000000	0.219692
2388.000000	0.217687
2389.000000	0.215538
2390.000000	0.214321
2391.000000	0.207542
2392.000000	0.202884
2393.000000	0.203636
2394.000000	0.205553
2395.000000	0.211569
2396.000000	0.218103
2397.000000	0.220604
2398.000000	0.217640
2399.000000	0.208496
2400.000000	0.201502
2401.000000	0.198324
2402.000000	0.198818
2403.000000	0.202563
2404.000000	0.203404
2405.000000	0.205244
2406.000000	0.204511
2407.000000	0.197806
2408.000000	0.196782
2409.000000	0.190469
2410.000000	0.183704
2411.000000	0.191907
2412.000000	0.197388
2413.000000	0.206069
2414.000000	0.210478
2415.000000	0.200855
2416.000000	0.197601
2417.000000	0.195612
2418.000000	0.196394
2419.000000	0.194861
2420.000000	0.187097
2421.000000	0.183800
2422.000000	0.177687
2423.000000	0.188550
2424.000000	0.206593
2425.000000	0.208661
2426.000000	0.218071
2427.000000	0.222944
2428.000000	0.215795
2429.000000	0.212351
2430.000000	0.209894
2431.000000	0.209016
2432.000000	0.207915
2433.000000	0.207747
2434.000000	0.204505
2435.000000	0.186229
2436.000000	0.174714
2437.000000	0.181555
2438.000000	0.187120
2439.000000	0.195381
2440.000000	0.202920
2441.000000	0.202184
2442.000000	0.199655
2443.000000	0.205005
2444.000000	0.205776
2445.000000	0.193089
2446.000000	0.186896
2447.000000	0.182044
2448.000000	0.190840
2449.000000	0.195525
2450.000000	0.198221
2451.000000	0.207844
2452.000000	0.192451
2453.000000	0.195781
2454.000000	0.193024
2455.000000	0.175086
2456.000000	0.173236
2457.000000	0.172012
2458.000000	0.188185
2459.000000	0.198754
2460.000000	0.191183
2461.000000	0.181612
2462.000000	0.165807
2463.000000	0.158578
2464.000000	0.166083
2465.000000	0.176407
2466.000000	0.191981
2467.000000	0.203113
2468.000000	0.197387
2469.000000	0.201209
2470.000000	0.202594
2471.000000	0.203842
2472.000000	0.220618
2473.000000	0.206539
2474.000000	0.174729
2475.000000	0.156324
2476.000000	0.144754
2477.000000	0.142735
2478.000000	0.166846
2479.000000	0.180849
2480.000000	0.152591
2481.000000	0.140424
2482.000000	0.120966
2483.000000	0.091347
2484.000000	0.097283
2485.000000	0.107713
2486.000000	0.124429
2487.000000	0.160237
2488.000000	0.178970
2489.000000	0.156005
2490.000000	0.113519
2491.000000	0.044743
2492.000000	0.024197
2493.000000	0.074826
2494.000000	0.082712
2495.000000	0.091476
2496.000000	0.087540
2497.000000	0.039587
2498.000000	0.029529
2499.000000	0.023269
2500.000000	0.022309
