# Wavelength	SM1200H-80_HEX-10_FV7-10_00002.asd.rts.txt
350.000000	0.431087
351.000000	0.418333
352.000000	0.423591
353.000000	0.434982
354.000000	0.445438
355.000000	0.442156
356.000000	0.432799
357.000000	0.426452
358.000000	0.426852
359.000000	0.433565
360.000000	0.437391
361.000000	0.430114
362.000000	0.431107
363.000000	0.438682
364.000000	0.445799
365.000000	0.438760
366.000000	0.435383
367.000000	0.437822
368.000000	0.436012
369.000000	0.438595
370.000000	0.442540
371.000000	0.442436
372.000000	0.442071
373.000000	0.442250
374.000000	0.444010
375.000000	0.446841
376.000000	0.447089
377.000000	0.445862
378.000000	0.449717
379.000000	0.449001
380.000000	0.447195
381.000000	0.452017
382.000000	0.453549
383.000000	0.452085
384.000000	0.450176
385.000000	0.450949
386.000000	0.453883
387.000000	0.457344
388.000000	0.457758
389.000000	0.454839
390.000000	0.453127
391.000000	0.457335
392.000000	0.458233
393.000000	0.457750
394.000000	0.458569
395.000000	0.461005
396.000000	0.461822
397.000000	0.460814
398.000000	0.462141
399.000000	0.462483
400.000000	0.462019
401.000000	0.462021
402.000000	0.462909
403.000000	0.464140
404.000000	0.465370
405.000000	0.466638
406.000000	0.467143
407.000000	0.467058
408.000000	0.468057
409.000000	0.468291
410.000000	0.468104
411.000000	0.468948
412.000000	0.468889
413.000000	0.468453
414.000000	0.468635
415.000000	0.469462
416.000000	0.470109
417.000000	0.470347
418.000000	0.471471
419.000000	0.471886
420.000000	0.471583
421.000000	0.471825
422.000000	0.472606
423.000000	0.473425
424.000000	0.473844
425.000000	0.474504
426.000000	0.475142
427.000000	0.475450
428.000000	0.475360
429.000000	0.475676
430.000000	0.476647
431.000000	0.477903
432.000000	0.478482
433.000000	0.478400
434.000000	0.478417
435.000000	0.479081
436.000000	0.479822
437.000000	0.480088
438.000000	0.480875
439.000000	0.481237
440.000000	0.481094
441.000000	0.481549
442.000000	0.481949
443.000000	0.482029
444.000000	0.482057
445.000000	0.482082
446.000000	0.482494
447.000000	0.483234
448.000000	0.483290
449.000000	0.483449
450.000000	0.484184
451.000000	0.484537
452.000000	0.484878
453.000000	0.485262
454.000000	0.485868
455.000000	0.486360
456.000000	0.486897
457.000000	0.487444
458.000000	0.487524
459.000000	0.487619
460.000000	0.488179
461.000000	0.488269
462.000000	0.488521
463.000000	0.488973
464.000000	0.489615
465.000000	0.489926
466.000000	0.489979
467.000000	0.490515
468.000000	0.491006
469.000000	0.491363
470.000000	0.491848
471.000000	0.491721
472.000000	0.491686
473.000000	0.492170
474.000000	0.492344
475.000000	0.492269
476.000000	0.492348
477.000000	0.492745
478.000000	0.492784
479.000000	0.492856
480.000000	0.493076
481.000000	0.493217
482.000000	0.493612
483.000000	0.494084
484.000000	0.494372
485.000000	0.494627
486.000000	0.495121
487.000000	0.495153
488.000000	0.495286
489.000000	0.495615
490.000000	0.495907
491.000000	0.496223
492.000000	0.496654
493.000000	0.497017
494.000000	0.497309
495.000000	0.497697
496.000000	0.498179
497.000000	0.498549
498.000000	0.499103
499.000000	0.499859
500.000000	0.500082
501.000000	0.500275
502.000000	0.500608
503.000000	0.500952
504.000000	0.501319
505.000000	0.501697
506.000000	0.502054
507.000000	0.502178
508.000000	0.502465
509.000000	0.503003
510.000000	0.503523
511.000000	0.503983
512.000000	0.504425
513.000000	0.504864
514.000000	0.505352
515.000000	0.505815
516.000000	0.506051
517.000000	0.506374
518.000000	0.506692
519.000000	0.506801
520.000000	0.507079
521.000000	0.507415
522.000000	0.507731
523.000000	0.507932
524.000000	0.508211
525.000000	0.508539
526.000000	0.508858
527.000000	0.509150
528.000000	0.509393
529.000000	0.509671
530.000000	0.509935
531.000000	0.510232
532.000000	0.510465
533.000000	0.510847
534.000000	0.511204
535.000000	0.511454
536.000000	0.511657
537.000000	0.511951
538.000000	0.512287
539.000000	0.512524
540.000000	0.512760
541.000000	0.513067
542.000000	0.513525
543.000000	0.513899
544.000000	0.514287
545.000000	0.514653
546.000000	0.515179
547.000000	0.515599
548.000000	0.515936
549.000000	0.516236
550.000000	0.516642
551.000000	0.517090
552.000000	0.517379
553.000000	0.517694
554.000000	0.518069
555.000000	0.518500
556.000000	0.518897
557.000000	0.519199
558.000000	0.519621
559.000000	0.520073
560.000000	0.520368
561.000000	0.520676
562.000000	0.521059
563.000000	0.521358
564.000000	0.521673
565.000000	0.521934
566.000000	0.522187
567.000000	0.522480
568.000000	0.522798
569.000000	0.523152
570.000000	0.523425
571.000000	0.523630
572.000000	0.523947
573.000000	0.524303
574.000000	0.524624
575.000000	0.524932
576.000000	0.525087
577.000000	0.525193
578.000000	0.525461
579.000000	0.525775
580.000000	0.526068
581.000000	0.526327
582.000000	0.526630
583.000000	0.526962
584.000000	0.527295
585.000000	0.527581
586.000000	0.527745
587.000000	0.527929
588.000000	0.528282
589.000000	0.528594
590.000000	0.528885
591.000000	0.529167
592.000000	0.529360
593.000000	0.529567
594.000000	0.529806
595.000000	0.530026
596.000000	0.530207
597.000000	0.530457
598.000000	0.530740
599.000000	0.530865
600.000000	0.531083
601.000000	0.531435
602.000000	0.531630
603.000000	0.531714
604.000000	0.531798
605.000000	0.532060
606.000000	0.532278
607.000000	0.532427
608.000000	0.532584
609.000000	0.532712
610.000000	0.532828
611.000000	0.532961
612.000000	0.533153
613.000000	0.533348
614.000000	0.533557
615.000000	0.533703
616.000000	0.533860
617.000000	0.534006
618.000000	0.534204
619.000000	0.534456
620.000000	0.534664
621.000000	0.534806
622.000000	0.534934
623.000000	0.535028
624.000000	0.535077
625.000000	0.535141
626.000000	0.535218
627.000000	0.535311
628.000000	0.535420
629.000000	0.535641
630.000000	0.535755
631.000000	0.535882
632.000000	0.535950
633.000000	0.536001
634.000000	0.536085
635.000000	0.536349
636.000000	0.536640
637.000000	0.536821
638.000000	0.536935
639.000000	0.537047
640.000000	0.537222
641.000000	0.537231
642.000000	0.537249
643.000000	0.537295
644.000000	0.537350
645.000000	0.537412
646.000000	0.537524
647.000000	0.537646
648.000000	0.537692
649.000000	0.537748
650.000000	0.537850
651.000000	0.538098
652.000000	0.538283
653.000000	0.538443
654.000000	0.538566
655.000000	0.538630
656.000000	0.538707
657.000000	0.538778
658.000000	0.538954
659.000000	0.539130
660.000000	0.539225
661.000000	0.539302
662.000000	0.539315
663.000000	0.539408
664.000000	0.539641
665.000000	0.539836
666.000000	0.540010
667.000000	0.540166
668.000000	0.540311
669.000000	0.540460
670.000000	0.540614
671.000000	0.540698
672.000000	0.540823
673.000000	0.540969
674.000000	0.541053
675.000000	0.541064
676.000000	0.541116
677.000000	0.541364
678.000000	0.541652
679.000000	0.541871
680.000000	0.541984
681.000000	0.542024
682.000000	0.542119
683.000000	0.542204
684.000000	0.542436
685.000000	0.542533
686.000000	0.542605
687.000000	0.542773
688.000000	0.542879
689.000000	0.542964
690.000000	0.543124
691.000000	0.543269
692.000000	0.543412
693.000000	0.543638
694.000000	0.543797
695.000000	0.543984
696.000000	0.544189
697.000000	0.544369
698.000000	0.544563
699.000000	0.544761
700.000000	0.544947
701.000000	0.545037
702.000000	0.545125
703.000000	0.545213
704.000000	0.545268
705.000000	0.545364
706.000000	0.545450
707.000000	0.545587
708.000000	0.545692
709.000000	0.545793
710.000000	0.545957
711.000000	0.546129
712.000000	0.546240
713.000000	0.546352
714.000000	0.546623
715.000000	0.546801
716.000000	0.546928
717.000000	0.547109
718.000000	0.547159
719.000000	0.547102
720.000000	0.547040
721.000000	0.547110
722.000000	0.547163
723.000000	0.547221
724.000000	0.547203
725.000000	0.547191
726.000000	0.547354
727.000000	0.547579
728.000000	0.547719
729.000000	0.547828
730.000000	0.547888
731.000000	0.547998
732.000000	0.548033
733.000000	0.548043
734.000000	0.548100
735.000000	0.548030
736.000000	0.548072
737.000000	0.548156
738.000000	0.548154
739.000000	0.548205
740.000000	0.548152
741.000000	0.548225
742.000000	0.548282
743.000000	0.548252
744.000000	0.548296
745.000000	0.548353
746.000000	0.548425
747.000000	0.548379
748.000000	0.548482
749.000000	0.548657
750.000000	0.548771
751.000000	0.548916
752.000000	0.548960
753.000000	0.548941
754.000000	0.548995
755.000000	0.549111
756.000000	0.549249
757.000000	0.549295
758.000000	0.549419
759.000000	0.549520
760.000000	0.549476
761.000000	0.549671
762.000000	0.549832
763.000000	0.549847
764.000000	0.549835
765.000000	0.549871
766.000000	0.549918
767.000000	0.549941
768.000000	0.550101
769.000000	0.550212
770.000000	0.550241
771.000000	0.550378
772.000000	0.550542
773.000000	0.550594
774.000000	0.550629
775.000000	0.550763
776.000000	0.550890
777.000000	0.550889
778.000000	0.550801
779.000000	0.550766
780.000000	0.550820
781.000000	0.550856
782.000000	0.550859
783.000000	0.550982
784.000000	0.551070
785.000000	0.551105
786.000000	0.551140
787.000000	0.551180
788.000000	0.551165
789.000000	0.551152
790.000000	0.551116
791.000000	0.551078
792.000000	0.550991
793.000000	0.550990
794.000000	0.551132
795.000000	0.551094
796.000000	0.551012
797.000000	0.550945
798.000000	0.550892
799.000000	0.551041
800.000000	0.551222
801.000000	0.551223
802.000000	0.551258
803.000000	0.551283
804.000000	0.551316
805.000000	0.551286
806.000000	0.551173
807.000000	0.551133
808.000000	0.551125
809.000000	0.551012
810.000000	0.550892
811.000000	0.550837
812.000000	0.550848
813.000000	0.550842
814.000000	0.550810
815.000000	0.550850
816.000000	0.550845
817.000000	0.550858
818.000000	0.550836
819.000000	0.550913
820.000000	0.551004
821.000000	0.550964
822.000000	0.550850
823.000000	0.550738
824.000000	0.550599
825.000000	0.550572
826.000000	0.550589
827.000000	0.550584
828.000000	0.550606
829.000000	0.550668
830.000000	0.550585
831.000000	0.550472
832.000000	0.550311
833.000000	0.550237
834.000000	0.550178
835.000000	0.550126
836.000000	0.550135
837.000000	0.550094
838.000000	0.550001
839.000000	0.549867
840.000000	0.549801
841.000000	0.549848
842.000000	0.549928
843.000000	0.549951
844.000000	0.549929
845.000000	0.549824
846.000000	0.549687
847.000000	0.549616
848.000000	0.549589
849.000000	0.549603
850.000000	0.549560
851.000000	0.549415
852.000000	0.549306
853.000000	0.549424
854.000000	0.549431
855.000000	0.549423
856.000000	0.549288
857.000000	0.549050
858.000000	0.548966
859.000000	0.548937
860.000000	0.548715
861.000000	0.548516
862.000000	0.548426
863.000000	0.548330
864.000000	0.548179
865.000000	0.548133
866.000000	0.548237
867.000000	0.548128
868.000000	0.548176
869.000000	0.548187
870.000000	0.547996
871.000000	0.547771
872.000000	0.547704
873.000000	0.547774
874.000000	0.547972
875.000000	0.547955
876.000000	0.547818
877.000000	0.547694
878.000000	0.547330
879.000000	0.547082
880.000000	0.546916
881.000000	0.546844
882.000000	0.546736
883.000000	0.546617
884.000000	0.546447
885.000000	0.546143
886.000000	0.545812
887.000000	0.545562
888.000000	0.545302
889.000000	0.545130
890.000000	0.544918
891.000000	0.544845
892.000000	0.544696
893.000000	0.544556
894.000000	0.544615
895.000000	0.544492
896.000000	0.544197
897.000000	0.543860
898.000000	0.543649
899.000000	0.543573
900.000000	0.543463
901.000000	0.543274
902.000000	0.543386
903.000000	0.543346
904.000000	0.543151
905.000000	0.542821
906.000000	0.542987
907.000000	0.542986
908.000000	0.542805
909.000000	0.542845
910.000000	0.542740
911.000000	0.542491
912.000000	0.542225
913.000000	0.542057
914.000000	0.541861
915.000000	0.541679
916.000000	0.541397
917.000000	0.541189
918.000000	0.541078
919.000000	0.540979
920.000000	0.540749
921.000000	0.540566
922.000000	0.540440
923.000000	0.540252
924.000000	0.540090
925.000000	0.539864
926.000000	0.539579
927.000000	0.539223
928.000000	0.538865
929.000000	0.538590
930.000000	0.538446
931.000000	0.538259
932.000000	0.538004
933.000000	0.537725
934.000000	0.537342
935.000000	0.536886
936.000000	0.536561
937.000000	0.536311
938.000000	0.535968
939.000000	0.535735
940.000000	0.535523
941.000000	0.535351
942.000000	0.535073
943.000000	0.534613
944.000000	0.533827
945.000000	0.533199
946.000000	0.532376
947.000000	0.531721
948.000000	0.531532
949.000000	0.531350
950.000000	0.531285
951.000000	0.531277
952.000000	0.531298
953.000000	0.531243
954.000000	0.531207
955.000000	0.531110
956.000000	0.530812
957.000000	0.530612
958.000000	0.530397
959.000000	0.530159
960.000000	0.530214
961.000000	0.529929
962.000000	0.529309
963.000000	0.529268
964.000000	0.529238
965.000000	0.529128
966.000000	0.528792
967.000000	0.528547
968.000000	0.528329
969.000000	0.528086
970.000000	0.527977
971.000000	0.527813
972.000000	0.527563
973.000000	0.527181
974.000000	0.526924
975.000000	0.526990
976.000000	0.527001
977.000000	0.526694
978.000000	0.526571
979.000000	0.526493
980.000000	0.526190
981.000000	0.526146
982.000000	0.525879
983.000000	0.525578
984.000000	0.525383
985.000000	0.525072
986.000000	0.524893
987.000000	0.524915
988.000000	0.524877
989.000000	0.524615
990.000000	0.524444
991.000000	0.524229
992.000000	0.523932
993.000000	0.524297
994.000000	0.524266
995.000000	0.523884
996.000000	0.523404
997.000000	0.523399
998.000000	0.523461
999.000000	0.523501
1000.000000	0.523643
1001.000000	0.523883
1002.000000	0.523487
1003.000000	0.523235
1004.000000	0.522982
1005.000000	0.522251
1006.000000	0.522348
1007.000000	0.523117
1008.000000	0.523838
1009.000000	0.524031
1010.000000	0.522989
1011.000000	0.522726
1012.000000	0.522637
1013.000000	0.522095
1014.000000	0.522611
1015.000000	0.523064
1016.000000	0.522622
1017.000000	0.522050
1018.000000	0.522037
1019.000000	0.522054
1020.000000	0.522155
1021.000000	0.521560
1022.000000	0.521463
1023.000000	0.521427
1024.000000	0.520264
1025.000000	0.520339
1026.000000	0.521385
1027.000000	0.521218
1028.000000	0.521492
1029.000000	0.521948
1030.000000	0.521841
1031.000000	0.522199
1032.000000	0.522340
1033.000000	0.522350
1034.000000	0.522345
1035.000000	0.522260
1036.000000	0.522025
1037.000000	0.521592
1038.000000	0.521280
1039.000000	0.520781
1040.000000	0.521223
1041.000000	0.521678
1042.000000	0.521783
1043.000000	0.522181
1044.000000	0.522065
1045.000000	0.522043
1046.000000	0.522253
1047.000000	0.522283
1048.000000	0.522023
1049.000000	0.522259
1050.000000	0.522851
1051.000000	0.523024
1052.000000	0.523014
1053.000000	0.523288
1054.000000	0.524029
1055.000000	0.524208
1056.000000	0.524656
1057.000000	0.524739
1058.000000	0.523675
1059.000000	0.522534
1060.000000	0.522574
1061.000000	0.523254
1062.000000	0.524085
1063.000000	0.525046
1064.000000	0.525558
1065.000000	0.525352
1066.000000	0.525633
1067.000000	0.526019
1068.000000	0.526295
1069.000000	0.526539
1070.000000	0.526754
1071.000000	0.527130
1072.000000	0.527171
1073.000000	0.527018
1074.000000	0.527098
1075.000000	0.526802
1076.000000	0.526820
1077.000000	0.527118
1078.000000	0.527304
1079.000000	0.527477
1080.000000	0.527773
1081.000000	0.527985
1082.000000	0.528428
1083.000000	0.528425
1084.000000	0.528055
1085.000000	0.528161
1086.000000	0.528318
1087.000000	0.528317
1088.000000	0.528329
1089.000000	0.528401
1090.000000	0.528229
1091.000000	0.527916
1092.000000	0.528181
1093.000000	0.529017
1094.000000	0.529029
1095.000000	0.528367
1096.000000	0.528686
1097.000000	0.529185
1098.000000	0.529567
1099.000000	0.530527
1100.000000	0.531096
1101.000000	0.531125
1102.000000	0.531201
1103.000000	0.531349
1104.000000	0.531490
1105.000000	0.531308
1106.000000	0.531363
1107.000000	0.531622
1108.000000	0.531688
1109.000000	0.531843
1110.000000	0.531792
1111.000000	0.531968
1112.000000	0.532164
1113.000000	0.532401
1114.000000	0.532838
1115.000000	0.533077
1116.000000	0.533288
1117.000000	0.533358
1118.000000	0.533233
1119.000000	0.533172
1120.000000	0.532866
1121.000000	0.532918
1122.000000	0.533639
1123.000000	0.534061
1124.000000	0.533985
1125.000000	0.534138
1126.000000	0.534011
1127.000000	0.533845
1128.000000	0.533709
1129.000000	0.533763
1130.000000	0.533899
1131.000000	0.534177
1132.000000	0.533964
1133.000000	0.533711
1134.000000	0.533664
1135.000000	0.533145
1136.000000	0.532986
1137.000000	0.533455
1138.000000	0.533364
1139.000000	0.533028
1140.000000	0.532978
1141.000000	0.532783
1142.000000	0.532715
1143.000000	0.532848
1144.000000	0.532929
1145.000000	0.532800
1146.000000	0.532337
1147.000000	0.532058
1148.000000	0.531473
1149.000000	0.531217
1150.000000	0.531059
1151.000000	0.531145
1152.000000	0.531402
1153.000000	0.531528
1154.000000	0.531796
1155.000000	0.531824
1156.000000	0.531548
1157.000000	0.531528
1158.000000	0.531419
1159.000000	0.531477
1160.000000	0.531927
1161.000000	0.531973
1162.000000	0.531992
1163.000000	0.532045
1164.000000	0.531864
1165.000000	0.531724
1166.000000	0.531762
1167.000000	0.531948
1168.000000	0.531960
1169.000000	0.532015
1170.000000	0.532053
1171.000000	0.532059
1172.000000	0.532208
1173.000000	0.532494
1174.000000	0.532509
1175.000000	0.532346
1176.000000	0.532256
1177.000000	0.532130
1178.000000	0.532055
1179.000000	0.532097
1180.000000	0.532054
1181.000000	0.532156
1182.000000	0.532100
1183.000000	0.532157
1184.000000	0.532245
1185.000000	0.532184
1186.000000	0.531990
1187.000000	0.531883
1188.000000	0.531734
1189.000000	0.531591
1190.000000	0.531543
1191.000000	0.531482
1192.000000	0.531566
1193.000000	0.531733
1194.000000	0.531749
1195.000000	0.531842
1196.000000	0.531946
1197.000000	0.531976
1198.000000	0.532017
1199.000000	0.532031
1200.000000	0.531963
1201.000000	0.531860
1202.000000	0.531803
1203.000000	0.531888
1204.000000	0.531952
1205.000000	0.532049
1206.000000	0.531972
1207.000000	0.531919
1208.000000	0.531864
1209.000000	0.531809
1210.000000	0.531808
1211.000000	0.531934
1212.000000	0.531918
1213.000000	0.531914
1214.000000	0.531932
1215.000000	0.531836
1216.000000	0.531817
1217.000000	0.531767
1218.000000	0.531731
1219.000000	0.531713
1220.000000	0.531915
1221.000000	0.532002
1222.000000	0.531958
1223.000000	0.531868
1224.000000	0.531639
1225.000000	0.531579
1226.000000	0.531755
1227.000000	0.531758
1228.000000	0.531994
1229.000000	0.532096
1230.000000	0.532071
1231.000000	0.531963
1232.000000	0.532055
1233.000000	0.532167
1234.000000	0.532159
1235.000000	0.532207
1236.000000	0.532191
1237.000000	0.532249
1238.000000	0.532197
1239.000000	0.532142
1240.000000	0.532082
1241.000000	0.532160
1242.000000	0.532133
1243.000000	0.532075
1244.000000	0.532086
1245.000000	0.532115
1246.000000	0.531987
1247.000000	0.531992
1248.000000	0.531981
1249.000000	0.531891
1250.000000	0.531937
1251.000000	0.532052
1252.000000	0.532037
1253.000000	0.532117
1254.000000	0.532018
1255.000000	0.531636
1256.000000	0.531481
1257.000000	0.531427
1258.000000	0.531387
1259.000000	0.531321
1260.000000	0.531389
1261.000000	0.531438
1262.000000	0.531389
1263.000000	0.531419
1264.000000	0.531351
1265.000000	0.531208
1266.000000	0.531018
1267.000000	0.530931
1268.000000	0.530873
1269.000000	0.530699
1270.000000	0.530665
1271.000000	0.530617
1272.000000	0.530526
1273.000000	0.530423
1274.000000	0.530388
1275.000000	0.530361
1276.000000	0.530352
1277.000000	0.530432
1278.000000	0.530494
1279.000000	0.530459
1280.000000	0.530275
1281.000000	0.530157
1282.000000	0.530064
1283.000000	0.530130
1284.000000	0.530281
1285.000000	0.530265
1286.000000	0.530152
1287.000000	0.530071
1288.000000	0.530041
1289.000000	0.529871
1290.000000	0.529635
1291.000000	0.529567
1292.000000	0.529530
1293.000000	0.529444
1294.000000	0.529680
1295.000000	0.529808
1296.000000	0.529636
1297.000000	0.529600
1298.000000	0.529576
1299.000000	0.529533
1300.000000	0.529621
1301.000000	0.529619
1302.000000	0.529510
1303.000000	0.529489
1304.000000	0.529349
1305.000000	0.529275
1306.000000	0.529143
1307.000000	0.528973
1308.000000	0.528896
1309.000000	0.528866
1310.000000	0.528751
1311.000000	0.528721
1312.000000	0.528492
1313.000000	0.528166
1314.000000	0.528017
1315.000000	0.527703
1316.000000	0.527545
1317.000000	0.527590
1318.000000	0.527524
1319.000000	0.527308
1320.000000	0.527099
1321.000000	0.526812
1322.000000	0.526392
1323.000000	0.526194
1324.000000	0.526104
1325.000000	0.525706
1326.000000	0.525322
1327.000000	0.524955
1328.000000	0.524652
1329.000000	0.524278
1330.000000	0.523983
1331.000000	0.523622
1332.000000	0.523295
1333.000000	0.522911
1334.000000	0.522573
1335.000000	0.522312
1336.000000	0.522029
1337.000000	0.521714
1338.000000	0.521336
1339.000000	0.521028
1340.000000	0.520654
1341.000000	0.520293
1342.000000	0.519948
1343.000000	0.519724
1344.000000	0.519512
1345.000000	0.519183
1346.000000	0.518969
1347.000000	0.518475
1348.000000	0.517976
1349.000000	0.517490
1350.000000	0.517242
1351.000000	0.517008
1352.000000	0.516593
1353.000000	0.516322
1354.000000	0.515988
1355.000000	0.515466
1356.000000	0.515140
1357.000000	0.514725
1358.000000	0.514233
1359.000000	0.513923
1360.000000	0.513586
1361.000000	0.513434
1362.000000	0.513010
1363.000000	0.512394
1364.000000	0.511836
1365.000000	0.511129
1366.000000	0.510527
1367.000000	0.510013
1368.000000	0.509402
1369.000000	0.508842
1370.000000	0.507857
1371.000000	0.506470
1372.000000	0.505055
1373.000000	0.503333
1374.000000	0.501364
1375.000000	0.499349
1376.000000	0.497028
1377.000000	0.494104
1378.000000	0.490449
1379.000000	0.486160
1380.000000	0.481140
1381.000000	0.475322
1382.000000	0.469193
1383.000000	0.462668
1384.000000	0.455792
1385.000000	0.449165
1386.000000	0.442926
1387.000000	0.437472
1388.000000	0.433041
1389.000000	0.429666
1390.000000	0.427452
1391.000000	0.426137
1392.000000	0.425768
1393.000000	0.425901
1394.000000	0.427246
1395.000000	0.428237
1396.000000	0.429816
1397.000000	0.430647
1398.000000	0.431347
1399.000000	0.431602
1400.000000	0.431455
1401.000000	0.430878
1402.000000	0.430027
1403.000000	0.428754
1404.000000	0.427232
1405.000000	0.425728
1406.000000	0.424253
1407.000000	0.422905
1408.000000	0.421627
1409.000000	0.420461
1410.000000	0.419401
1411.000000	0.418440
1412.000000	0.417647
1413.000000	0.417075
1414.000000	0.416768
1415.000000	0.416718
1416.000000	0.416764
1417.000000	0.416922
1418.000000	0.417049
1419.000000	0.417281
1420.000000	0.417486
1421.000000	0.417901
1422.000000	0.418691
1423.000000	0.419569
1424.000000	0.420284
1425.000000	0.421064
1426.000000	0.421647
1427.000000	0.422129
1428.000000	0.422717
1429.000000	0.423339
1430.000000	0.424028
1431.000000	0.424668
1432.000000	0.425173
1433.000000	0.425628
1434.000000	0.426100
1435.000000	0.426607
1436.000000	0.427094
1437.000000	0.427613
1438.000000	0.428012
1439.000000	0.428378
1440.000000	0.428630
1441.000000	0.428845
1442.000000	0.429090
1443.000000	0.429137
1444.000000	0.429330
1445.000000	0.429577
1446.000000	0.429701
1447.000000	0.429820
1448.000000	0.429916
1449.000000	0.429936
1450.000000	0.430038
1451.000000	0.430207
1452.000000	0.430111
1453.000000	0.429982
1454.000000	0.429890
1455.000000	0.429766
1456.000000	0.429773
1457.000000	0.429897
1458.000000	0.430039
1459.000000	0.430042
1460.000000	0.430023
1461.000000	0.430151
1462.000000	0.430276
1463.000000	0.430378
1464.000000	0.430673
1465.000000	0.431074
1466.000000	0.431460
1467.000000	0.431896
1468.000000	0.432397
1469.000000	0.432986
1470.000000	0.433517
1471.000000	0.434191
1472.000000	0.434917
1473.000000	0.435712
1474.000000	0.436428
1475.000000	0.437258
1476.000000	0.438151
1477.000000	0.438933
1478.000000	0.439786
1479.000000	0.440539
1480.000000	0.441236
1481.000000	0.441890
1482.000000	0.442513
1483.000000	0.443269
1484.000000	0.444060
1485.000000	0.444808
1486.000000	0.445625
1487.000000	0.446403
1488.000000	0.447136
1489.000000	0.447921
1490.000000	0.448561
1491.000000	0.449297
1492.000000	0.450020
1493.000000	0.450748
1494.000000	0.451460
1495.000000	0.452157
1496.000000	0.452796
1497.000000	0.453478
1498.000000	0.454231
1499.000000	0.454906
1500.000000	0.455607
1501.000000	0.456196
1502.000000	0.456692
1503.000000	0.457363
1504.000000	0.457942
1505.000000	0.458490
1506.000000	0.459129
1507.000000	0.459669
1508.000000	0.460258
1509.000000	0.460777
1510.000000	0.461195
1511.000000	0.461692
1512.000000	0.462142
1513.000000	0.462676
1514.000000	0.463443
1515.000000	0.463972
1516.000000	0.464415
1517.000000	0.464909
1518.000000	0.465108
1519.000000	0.465289
1520.000000	0.465751
1521.000000	0.466056
1522.000000	0.466431
1523.000000	0.466782
1524.000000	0.466897
1525.000000	0.467231
1526.000000	0.467583
1527.000000	0.467950
1528.000000	0.468442
1529.000000	0.468781
1530.000000	0.469012
1531.000000	0.469403
1532.000000	0.469850
1533.000000	0.470141
1534.000000	0.470375
1535.000000	0.470790
1536.000000	0.471161
1537.000000	0.471611
1538.000000	0.472065
1539.000000	0.472224
1540.000000	0.472418
1541.000000	0.472794
1542.000000	0.473204
1543.000000	0.473668
1544.000000	0.474038
1545.000000	0.474343
1546.000000	0.474667
1547.000000	0.474965
1548.000000	0.475318
1549.000000	0.475536
1550.000000	0.475639
1551.000000	0.475878
1552.000000	0.476044
1553.000000	0.476126
1554.000000	0.476288
1555.000000	0.476415
1556.000000	0.476535
1557.000000	0.476728
1558.000000	0.476861
1559.000000	0.476835
1560.000000	0.476956
1561.000000	0.477140
1562.000000	0.477251
1563.000000	0.477563
1564.000000	0.477662
1565.000000	0.477612
1566.000000	0.477552
1567.000000	0.477483
1568.000000	0.477528
1569.000000	0.477711
1570.000000	0.477852
1571.000000	0.478078
1572.000000	0.478213
1573.000000	0.478304
1574.000000	0.478404
1575.000000	0.478497
1576.000000	0.478595
1577.000000	0.478687
1578.000000	0.478748
1579.000000	0.478825
1580.000000	0.478977
1581.000000	0.479297
1582.000000	0.479456
1583.000000	0.479603
1584.000000	0.479679
1585.000000	0.479753
1586.000000	0.479858
1587.000000	0.479980
1588.000000	0.480072
1589.000000	0.480174
1590.000000	0.480215
1591.000000	0.480171
1592.000000	0.480286
1593.000000	0.480574
1594.000000	0.480681
1595.000000	0.480907
1596.000000	0.480981
1597.000000	0.480814
1598.000000	0.480823
1599.000000	0.480963
1600.000000	0.481029
1601.000000	0.481272
1602.000000	0.481368
1603.000000	0.481445
1604.000000	0.481450
1605.000000	0.481350
1606.000000	0.481355
1607.000000	0.481385
1608.000000	0.481488
1609.000000	0.481869
1610.000000	0.482008
1611.000000	0.482125
1612.000000	0.482170
1613.000000	0.482180
1614.000000	0.482211
1615.000000	0.482327
1616.000000	0.482458
1617.000000	0.482550
1618.000000	0.482581
1619.000000	0.482519
1620.000000	0.482600
1621.000000	0.482715
1622.000000	0.482934
1623.000000	0.483290
1624.000000	0.483472
1625.000000	0.483357
1626.000000	0.483392
1627.000000	0.483426
1628.000000	0.483625
1629.000000	0.483980
1630.000000	0.484294
1631.000000	0.484564
1632.000000	0.484747
1633.000000	0.484942
1634.000000	0.485062
1635.000000	0.485214
1636.000000	0.485230
1637.000000	0.485045
1638.000000	0.485073
1639.000000	0.485207
1640.000000	0.485349
1641.000000	0.485809
1642.000000	0.485991
1643.000000	0.486039
1644.000000	0.486167
1645.000000	0.486279
1646.000000	0.486283
1647.000000	0.486318
1648.000000	0.486318
1649.000000	0.486351
1650.000000	0.486439
1651.000000	0.486663
1652.000000	0.486756
1653.000000	0.486644
1654.000000	0.486755
1655.000000	0.486845
1656.000000	0.486851
1657.000000	0.487089
1658.000000	0.487136
1659.000000	0.487158
1660.000000	0.487309
1661.000000	0.487336
1662.000000	0.487492
1663.000000	0.487698
1664.000000	0.487882
1665.000000	0.488135
1666.000000	0.488378
1667.000000	0.488465
1668.000000	0.488705
1669.000000	0.489008
1670.000000	0.489064
1671.000000	0.489209
1672.000000	0.489403
1673.000000	0.489462
1674.000000	0.489514
1675.000000	0.489710
1676.000000	0.489673
1677.000000	0.489407
1678.000000	0.489324
1679.000000	0.489371
1680.000000	0.489296
1681.000000	0.489399
1682.000000	0.489663
1683.000000	0.489822
1684.000000	0.490053
1685.000000	0.490170
1686.000000	0.489934
1687.000000	0.489755
1688.000000	0.489561
1689.000000	0.489542
1690.000000	0.489637
1691.000000	0.489854
1692.000000	0.489942
1693.000000	0.489763
1694.000000	0.489667
1695.000000	0.489683
1696.000000	0.489702
1697.000000	0.489570
1698.000000	0.489372
1699.000000	0.489247
1700.000000	0.489049
1701.000000	0.489048
1702.000000	0.488898
1703.000000	0.488749
1704.000000	0.488856
1705.000000	0.488816
1706.000000	0.488691
1707.000000	0.488719
1708.000000	0.488744
1709.000000	0.488680
1710.000000	0.488876
1711.000000	0.488975
1712.000000	0.488934
1713.000000	0.488968
1714.000000	0.489152
1715.000000	0.489273
1716.000000	0.489411
1717.000000	0.489486
1718.000000	0.489450
1719.000000	0.489408
1720.000000	0.489459
1721.000000	0.489408
1722.000000	0.489266
1723.000000	0.489221
1724.000000	0.489188
1725.000000	0.489186
1726.000000	0.489154
1727.000000	0.489098
1728.000000	0.488881
1729.000000	0.488729
1730.000000	0.488805
1731.000000	0.488823
1732.000000	0.488948
1733.000000	0.488979
1734.000000	0.488714
1735.000000	0.488640
1736.000000	0.488527
1737.000000	0.488400
1738.000000	0.488374
1739.000000	0.488323
1740.000000	0.488201
1741.000000	0.488021
1742.000000	0.487865
1743.000000	0.487809
1744.000000	0.487636
1745.000000	0.487591
1746.000000	0.487731
1747.000000	0.487672
1748.000000	0.487453
1749.000000	0.486992
1750.000000	0.486663
1751.000000	0.486514
1752.000000	0.486496
1753.000000	0.486505
1754.000000	0.486429
1755.000000	0.486210
1756.000000	0.486023
1757.000000	0.485814
1758.000000	0.485646
1759.000000	0.485547
1760.000000	0.485333
1761.000000	0.484944
1762.000000	0.484662
1763.000000	0.484344
1764.000000	0.484151
1765.000000	0.484107
1766.000000	0.483971
1767.000000	0.483717
1768.000000	0.483437
1769.000000	0.483144
1770.000000	0.483110
1771.000000	0.483191
1772.000000	0.483154
1773.000000	0.483156
1774.000000	0.483092
1775.000000	0.482994
1776.000000	0.482904
1777.000000	0.482744
1778.000000	0.482657
1779.000000	0.482504
1780.000000	0.482520
1781.000000	0.482679
1782.000000	0.482644
1783.000000	0.482663
1784.000000	0.482662
1785.000000	0.482429
1786.000000	0.482440
1787.000000	0.482386
1788.000000	0.482338
1789.000000	0.482483
1790.000000	0.482305
1791.000000	0.482188
1792.000000	0.482169
1793.000000	0.482091
1794.000000	0.482089
1795.000000	0.482165
1796.000000	0.482150
1797.000000	0.482162
1798.000000	0.482283
1799.000000	0.482406
1800.000000	0.482585
1801.000000	0.483108
1802.000000	0.482678
1803.000000	0.481487
1804.000000	0.481498
1805.000000	0.482368
1806.000000	0.482503
1807.000000	0.483252
1808.000000	0.483240
1809.000000	0.482360
1810.000000	0.481050
1811.000000	0.480922
1812.000000	0.481355
1813.000000	0.481303
1814.000000	0.481804
1815.000000	0.482035
1816.000000	0.481877
1817.000000	0.481564
1818.000000	0.481655
1819.000000	0.481189
1820.000000	0.481214
1821.000000	0.480658
1822.000000	0.480296
1823.000000	0.480165
1824.000000	0.479734
1825.000000	0.478411
1826.000000	0.478210
1827.000000	0.478413
1828.000000	0.478760
1829.000000	0.478685
1830.000000	0.478527
1831.000000	0.478294
1832.000000	0.477324
1833.000000	0.476867
1834.000000	0.476767
1835.000000	0.476724
1836.000000	0.476744
1837.000000	0.476582
1838.000000	0.476689
1839.000000	0.476067
1840.000000	0.475215
1841.000000	0.474002
1842.000000	0.473054
1843.000000	0.471860
1844.000000	0.471395
1845.000000	0.471264
1846.000000	0.470943
1847.000000	0.471091
1848.000000	0.470163
1849.000000	0.469058
1850.000000	0.468485
1851.000000	0.467909
1852.000000	0.467587
1853.000000	0.466959
1854.000000	0.465858
1855.000000	0.464891
1856.000000	0.463675
1857.000000	0.462526
1858.000000	0.461496
1859.000000	0.460402
1860.000000	0.459282
1861.000000	0.457649
1862.000000	0.455541
1863.000000	0.452949
1864.000000	0.450751
1865.000000	0.448219
1866.000000	0.445678
1867.000000	0.443427
1868.000000	0.440986
1869.000000	0.437426
1870.000000	0.433895
1871.000000	0.430771
1872.000000	0.426541
1873.000000	0.422311
1874.000000	0.418125
1875.000000	0.413829
1876.000000	0.408847
1877.000000	0.403426
1878.000000	0.398555
1879.000000	0.392554
1880.000000	0.385609
1881.000000	0.379275
1882.000000	0.373055
1883.000000	0.365921
1884.000000	0.358863
1885.000000	0.351712
1886.000000	0.344087
1887.000000	0.335662
1888.000000	0.327372
1889.000000	0.319529
1890.000000	0.311913
1891.000000	0.304574
1892.000000	0.296971
1893.000000	0.289141
1894.000000	0.282005
1895.000000	0.275085
1896.000000	0.268295
1897.000000	0.262495
1898.000000	0.257518
1899.000000	0.252511
1900.000000	0.248639
1901.000000	0.245568
1902.000000	0.242541
1903.000000	0.239837
1904.000000	0.237686
1905.000000	0.236058
1906.000000	0.234766
1907.000000	0.233977
1908.000000	0.233892
1909.000000	0.234367
1910.000000	0.234773
1911.000000	0.235307
1912.000000	0.236140
1913.000000	0.236793
1914.000000	0.237312
1915.000000	0.238251
1916.000000	0.240158
1917.000000	0.241492
1918.000000	0.242879
1919.000000	0.244156
1920.000000	0.245588
1921.000000	0.246189
1922.000000	0.247147
1923.000000	0.248610
1924.000000	0.249548
1925.000000	0.250835
1926.000000	0.252683
1927.000000	0.254551
1928.000000	0.255866
1929.000000	0.257242
1930.000000	0.258170
1931.000000	0.258841
1932.000000	0.259555
1933.000000	0.260960
1934.000000	0.262401
1935.000000	0.263372
1936.000000	0.264434
1937.000000	0.265310
1938.000000	0.266196
1939.000000	0.266951
1940.000000	0.267692
1941.000000	0.268390
1942.000000	0.268937
1943.000000	0.269116
1944.000000	0.269629
1945.000000	0.269640
1946.000000	0.269956
1947.000000	0.270939
1948.000000	0.271535
1949.000000	0.272200
1950.000000	0.272635
1951.000000	0.272884
1952.000000	0.272772
1953.000000	0.272656
1954.000000	0.273185
1955.000000	0.274210
1956.000000	0.274664
1957.000000	0.275608
1958.000000	0.276561
1959.000000	0.276774
1960.000000	0.277321
1961.000000	0.278151
1962.000000	0.278837
1963.000000	0.279379
1964.000000	0.280261
1965.000000	0.281334
1966.000000	0.281912
1967.000000	0.282546
1968.000000	0.283077
1969.000000	0.283186
1970.000000	0.283697
1971.000000	0.284259
1972.000000	0.284461
1973.000000	0.284706
1974.000000	0.285122
1975.000000	0.285602
1976.000000	0.285955
1977.000000	0.286536
1978.000000	0.287773
1979.000000	0.288453
1980.000000	0.289728
1981.000000	0.291847
1982.000000	0.292935
1983.000000	0.294559
1984.000000	0.295828
1985.000000	0.296454
1986.000000	0.297234
1987.000000	0.298212
1988.000000	0.299234
1989.000000	0.299915
1990.000000	0.301066
1991.000000	0.301897
1992.000000	0.302426
1993.000000	0.303411
1994.000000	0.304978
1995.000000	0.307014
1996.000000	0.309318
1997.000000	0.310846
1998.000000	0.311780
1999.000000	0.312986
2000.000000	0.313922
2001.000000	0.314709
2002.000000	0.316105
2003.000000	0.317771
2004.000000	0.318891
2005.000000	0.320001
2006.000000	0.321211
2007.000000	0.321946
2008.000000	0.323116
2009.000000	0.324707
2010.000000	0.325833
2011.000000	0.326641
2012.000000	0.327949
2013.000000	0.329148
2014.000000	0.330002
2015.000000	0.332473
2016.000000	0.334283
2017.000000	0.335511
2018.000000	0.337204
2019.000000	0.338586
2020.000000	0.340037
2021.000000	0.341235
2022.000000	0.342356
2023.000000	0.343551
2024.000000	0.344402
2025.000000	0.345466
2026.000000	0.346533
2027.000000	0.348285
2028.000000	0.349026
2029.000000	0.349627
2030.000000	0.350609
2031.000000	0.351482
2032.000000	0.352594
2033.000000	0.354243
2034.000000	0.355430
2035.000000	0.356579
2036.000000	0.357131
2037.000000	0.357365
2038.000000	0.358066
2039.000000	0.358466
2040.000000	0.359628
2041.000000	0.361375
2042.000000	0.362145
2043.000000	0.362843
2044.000000	0.363406
2045.000000	0.363457
2046.000000	0.363895
2047.000000	0.364398
2048.000000	0.364520
2049.000000	0.365814
2050.000000	0.367780
2051.000000	0.368772
2052.000000	0.370036
2053.000000	0.370544
2054.000000	0.370243
2055.000000	0.370267
2056.000000	0.370419
2057.000000	0.371258
2058.000000	0.372596
2059.000000	0.373875
2060.000000	0.374992
2061.000000	0.376602
2062.000000	0.377099
2063.000000	0.376961
2064.000000	0.376892
2065.000000	0.376383
2066.000000	0.376400
2067.000000	0.377058
2068.000000	0.377241
2069.000000	0.378414
2070.000000	0.379740
2071.000000	0.380324
2072.000000	0.381337
2073.000000	0.381883
2074.000000	0.381589
2075.000000	0.382032
2076.000000	0.382859
2077.000000	0.383495
2078.000000	0.384173
2079.000000	0.385045
2080.000000	0.386099
2081.000000	0.387048
2082.000000	0.388468
2083.000000	0.389273
2084.000000	0.389415
2085.000000	0.389384
2086.000000	0.389037
2087.000000	0.388761
2088.000000	0.388979
2089.000000	0.389453
2090.000000	0.389870
2091.000000	0.390577
2092.000000	0.391121
2093.000000	0.391533
2094.000000	0.392188
2095.000000	0.393287
2096.000000	0.393976
2097.000000	0.394665
2098.000000	0.394698
2099.000000	0.395177
2100.000000	0.395466
2101.000000	0.395953
2102.000000	0.397216
2103.000000	0.397961
2104.000000	0.398537
2105.000000	0.398969
2106.000000	0.399131
2107.000000	0.399689
2108.000000	0.400104
2109.000000	0.400838
2110.000000	0.402087
2111.000000	0.402458
2112.000000	0.402527
2113.000000	0.401875
2114.000000	0.401047
2115.000000	0.401863
2116.000000	0.402607
2117.000000	0.403535
2118.000000	0.404427
2119.000000	0.404343
2120.000000	0.404878
2121.000000	0.405525
2122.000000	0.406063
2123.000000	0.406572
2124.000000	0.407344
2125.000000	0.408477
2126.000000	0.408902
2127.000000	0.409385
2128.000000	0.409849
2129.000000	0.409641
2130.000000	0.409290
2131.000000	0.409484
2132.000000	0.409392
2133.000000	0.409418
2134.000000	0.410119
2135.000000	0.410969
2136.000000	0.411916
2137.000000	0.412310
2138.000000	0.412227
2139.000000	0.412669
2140.000000	0.412888
2141.000000	0.413080
2142.000000	0.413837
2143.000000	0.413905
2144.000000	0.413694
2145.000000	0.413777
2146.000000	0.414053
2147.000000	0.414390
2148.000000	0.414385
2149.000000	0.414708
2150.000000	0.415164
2151.000000	0.415164
2152.000000	0.414733
2153.000000	0.414739
2154.000000	0.414659
2155.000000	0.414372
2156.000000	0.414180
2157.000000	0.414458
2158.000000	0.414079
2159.000000	0.413293
2160.000000	0.413181
2161.000000	0.413116
2162.000000	0.412990
2163.000000	0.413086
2164.000000	0.412704
2165.000000	0.411497
2166.000000	0.411024
2167.000000	0.411298
2168.000000	0.412231
2169.000000	0.413259
2170.000000	0.414159
2171.000000	0.414892
2172.000000	0.414959
2173.000000	0.415587
2174.000000	0.416929
2175.000000	0.417366
2176.000000	0.417722
2177.000000	0.417678
2178.000000	0.416896
2179.000000	0.416573
2180.000000	0.415855
2181.000000	0.415759
2182.000000	0.415689
2183.000000	0.414753
2184.000000	0.414125
2185.000000	0.413429
2186.000000	0.411621
2187.000000	0.410841
2188.000000	0.410408
2189.000000	0.409523
2190.000000	0.409915
2191.000000	0.410413
2192.000000	0.410352
2193.000000	0.410263
2194.000000	0.409834
2195.000000	0.408325
2196.000000	0.408436
2197.000000	0.408951
2198.000000	0.409612
2199.000000	0.412151
2200.000000	0.413240
2201.000000	0.414166
2202.000000	0.414253
2203.000000	0.411986
2204.000000	0.411936
2205.000000	0.411100
2206.000000	0.409103
2207.000000	0.407334
2208.000000	0.404347
2209.000000	0.402850
2210.000000	0.402518
2211.000000	0.403281
2212.000000	0.405807
2213.000000	0.405576
2214.000000	0.403051
2215.000000	0.402367
2216.000000	0.400830
2217.000000	0.400298
2218.000000	0.401281
2219.000000	0.401264
2220.000000	0.400543
2221.000000	0.400977
2222.000000	0.402975
2223.000000	0.403277
2224.000000	0.402108
2225.000000	0.403490
2226.000000	0.404328
2227.000000	0.401969
2228.000000	0.402687
2229.000000	0.402051
2230.000000	0.399777
2231.000000	0.399839
2232.000000	0.400133
2233.000000	0.399876
2234.000000	0.400014
2235.000000	0.399371
2236.000000	0.398062
2237.000000	0.395801
2238.000000	0.394492
2239.000000	0.392121
2240.000000	0.391589
2241.000000	0.392180
2242.000000	0.391669
2243.000000	0.392240
2244.000000	0.392021
2245.000000	0.390483
2246.000000	0.390373
2247.000000	0.390643
2248.000000	0.391302
2249.000000	0.392971
2250.000000	0.394242
2251.000000	0.394717
2252.000000	0.392397
2253.000000	0.391400
2254.000000	0.391086
2255.000000	0.392348
2256.000000	0.395217
2257.000000	0.396806
2258.000000	0.395965
2259.000000	0.393729
2260.000000	0.392028
2261.000000	0.391188
2262.000000	0.391324
2263.000000	0.390654
2264.000000	0.390314
2265.000000	0.389464
2266.000000	0.387391
2267.000000	0.386044
2268.000000	0.385095
2269.000000	0.384236
2270.000000	0.383758
2271.000000	0.382505
2272.000000	0.382217
2273.000000	0.380565
2274.000000	0.377059
2275.000000	0.374104
2276.000000	0.371178
2277.000000	0.366688
2278.000000	0.362365
2279.000000	0.359462
2280.000000	0.356846
2281.000000	0.354300
2282.000000	0.352572
2283.000000	0.350081
2284.000000	0.346383
2285.000000	0.340496
2286.000000	0.335308
2287.000000	0.330604
2288.000000	0.326257
2289.000000	0.324533
2290.000000	0.322487
2291.000000	0.322419
2292.000000	0.323844
2293.000000	0.324772
2294.000000	0.325155
2295.000000	0.325923
2296.000000	0.324931
2297.000000	0.322662
2298.000000	0.320492
2299.000000	0.317625
2300.000000	0.314714
2301.000000	0.310868
2302.000000	0.307544
2303.000000	0.303397
2304.000000	0.301264
2305.000000	0.302236
2306.000000	0.300119
2307.000000	0.298293
2308.000000	0.294088
2309.000000	0.285648
2310.000000	0.279832
2311.000000	0.275390
2312.000000	0.272404
2313.000000	0.274984
2314.000000	0.276535
2315.000000	0.277900
2316.000000	0.283225
2317.000000	0.286347
2318.000000	0.286576
2319.000000	0.289893
2320.000000	0.291399
2321.000000	0.293267
2322.000000	0.298900
2323.000000	0.303468
2324.000000	0.307938
2325.000000	0.311145
2326.000000	0.313543
2327.000000	0.314212
2328.000000	0.314712
2329.000000	0.317100
2330.000000	0.318614
2331.000000	0.320860
2332.000000	0.324625
2333.000000	0.329075
2334.000000	0.330911
2335.000000	0.332749
2336.000000	0.334626
2337.000000	0.333654
2338.000000	0.329530
2339.000000	0.328112
2340.000000	0.326749
2341.000000	0.324788
2342.000000	0.323330
2343.000000	0.322417
2344.000000	0.319420
2345.000000	0.318668
2346.000000	0.321026
2347.000000	0.320677
2348.000000	0.319550
2349.000000	0.320325
2350.000000	0.317893
2351.000000	0.315339
2352.000000	0.314862
2353.000000	0.312082
2354.000000	0.310189
2355.000000	0.312871
2356.000000	0.314011
2357.000000	0.315149
2358.000000	0.314824
2359.000000	0.310061
2360.000000	0.306935
2361.000000	0.304626
2362.000000	0.304324
2363.000000	0.306994
2364.000000	0.302875
2365.000000	0.299711
2366.000000	0.298716
2367.000000	0.294034
2368.000000	0.296944
2369.000000	0.299582
2370.000000	0.297881
2371.000000	0.299633
2372.000000	0.297548
2373.000000	0.295350
2374.000000	0.293118
2375.000000	0.287568
2376.000000	0.282520
2377.000000	0.275999
2378.000000	0.274386
2379.000000	0.276352
2380.000000	0.279221
2381.000000	0.284398
2382.000000	0.283202
2383.000000	0.279947
2384.000000	0.274061
2385.000000	0.270537
2386.000000	0.271462
2387.000000	0.266526
2388.000000	0.267256
2389.000000	0.268165
2390.000000	0.264636
2391.000000	0.264831
2392.000000	0.264649
2393.000000	0.267341
2394.000000	0.272383
2395.000000	0.278864
2396.000000	0.286045
2397.000000	0.286097
2398.000000	0.283154
2399.000000	0.277761
2400.000000	0.272121
2401.000000	0.270689
2402.000000	0.269295
2403.000000	0.273306
2404.000000	0.275831
2405.000000	0.272458
2406.000000	0.271416
2407.000000	0.273025
2408.000000	0.277398
2409.000000	0.279206
2410.000000	0.281769
2411.000000	0.282085
2412.000000	0.274997
2413.000000	0.273036
2414.000000	0.270261
2415.000000	0.266968
2416.000000	0.262455
2417.000000	0.259474
2418.000000	0.265167
2419.000000	0.260973
2420.000000	0.256931
2421.000000	0.262006
2422.000000	0.255813
2423.000000	0.243532
2424.000000	0.242660
2425.000000	0.233975
2426.000000	0.228129
2427.000000	0.236886
2428.000000	0.234982
2429.000000	0.234848
2430.000000	0.234244
2431.000000	0.235005
2432.000000	0.248390
2433.000000	0.257989
2434.000000	0.258245
2435.000000	0.252069
2436.000000	0.237062
2437.000000	0.232650
2438.000000	0.237102
2439.000000	0.234834
2440.000000	0.236086
2441.000000	0.224266
2442.000000	0.212658
2443.000000	0.215970
2444.000000	0.212650
2445.000000	0.216768
2446.000000	0.231222
2447.000000	0.239768
2448.000000	0.249176
2449.000000	0.245013
2450.000000	0.225174
2451.000000	0.212932
2452.000000	0.208220
2453.000000	0.206465
2454.000000	0.211533
2455.000000	0.208472
2456.000000	0.196989
2457.000000	0.204256
2458.000000	0.215431
2459.000000	0.216213
2460.000000	0.219078
2461.000000	0.214619
2462.000000	0.204428
2463.000000	0.209171
2464.000000	0.205102
2465.000000	0.199813
2466.000000	0.209959
2467.000000	0.208566
2468.000000	0.220002
2469.000000	0.231587
2470.000000	0.233015
2471.000000	0.246422
2472.000000	0.257470
2473.000000	0.269431
2474.000000	0.272066
2475.000000	0.261220
2476.000000	0.254610
2477.000000	0.241242
2478.000000	0.249674
2479.000000	0.255636
2480.000000	0.236966
2481.000000	0.243383
2482.000000	0.246350
2483.000000	0.262006
2484.000000	0.287720
2485.000000	0.279541
2486.000000	0.240005
2487.000000	0.195651
2488.000000	0.167656
2489.000000	0.144652
2490.000000	0.128433
2491.000000	0.156560
2492.000000	0.157126
2493.000000	0.176316
2494.000000	0.204420
2495.000000	0.206790
2496.000000	0.199150
2497.000000	0.205287
2498.000000	0.195506
2499.000000	0.146280
2500.000000	0.131089
