# Wavelength	SM1200H-60_HEX-30_FV7-10_00000.asd.rts.txt
350.000000	0.417674
351.000000	0.405453
352.000000	0.417628
353.000000	0.426247
354.000000	0.421757
355.000000	0.410201
356.000000	0.412921
357.000000	0.425081
358.000000	0.416767
359.000000	0.415568
360.000000	0.421793
361.000000	0.428402
362.000000	0.433578
363.000000	0.437856
364.000000	0.439623
365.000000	0.433407
366.000000	0.431738
367.000000	0.435362
368.000000	0.436265
369.000000	0.434415
370.000000	0.432662
371.000000	0.434133
372.000000	0.433858
373.000000	0.434087
374.000000	0.436587
375.000000	0.436100
376.000000	0.436818
377.000000	0.438990
378.000000	0.439743
379.000000	0.441238
380.000000	0.441507
381.000000	0.439724
382.000000	0.441798
383.000000	0.443056
384.000000	0.441139
385.000000	0.440598
386.000000	0.442808
387.000000	0.446543
388.000000	0.447047
389.000000	0.446234
390.000000	0.446193
391.000000	0.448225
392.000000	0.448603
393.000000	0.448688
394.000000	0.449700
395.000000	0.450208
396.000000	0.450295
397.000000	0.450374
398.000000	0.451719
399.000000	0.452359
400.000000	0.451816
401.000000	0.450198
402.000000	0.452233
403.000000	0.454422
404.000000	0.453846
405.000000	0.454648
406.000000	0.455434
407.000000	0.455728
408.000000	0.456719
409.000000	0.457356
410.000000	0.457735
411.000000	0.458484
412.000000	0.458362
413.000000	0.458097
414.000000	0.458639
415.000000	0.459278
416.000000	0.459664
417.000000	0.459838
418.000000	0.460681
419.000000	0.461067
420.000000	0.461142
421.000000	0.462142
422.000000	0.461986
423.000000	0.461729
424.000000	0.463181
425.000000	0.463619
426.000000	0.463897
427.000000	0.464713
428.000000	0.465021
429.000000	0.465212
430.000000	0.465516
431.000000	0.465950
432.000000	0.466438
433.000000	0.466904
434.000000	0.467437
435.000000	0.467357
436.000000	0.467329
437.000000	0.467939
438.000000	0.468442
439.000000	0.468686
440.000000	0.468909
441.000000	0.469418
442.000000	0.469968
443.000000	0.470328
444.000000	0.470565
445.000000	0.470728
446.000000	0.471109
447.000000	0.471612
448.000000	0.471646
449.000000	0.471977
450.000000	0.472942
451.000000	0.473276
452.000000	0.473571
453.000000	0.473944
454.000000	0.474458
455.000000	0.474666
456.000000	0.474949
457.000000	0.475612
458.000000	0.475826
459.000000	0.475759
460.000000	0.475801
461.000000	0.475876
462.000000	0.476425
463.000000	0.477151
464.000000	0.477408
465.000000	0.477530
466.000000	0.477630
467.000000	0.477979
468.000000	0.478454
469.000000	0.478837
470.000000	0.479193
471.000000	0.479120
472.000000	0.479248
473.000000	0.479877
474.000000	0.480010
475.000000	0.479876
476.000000	0.479978
477.000000	0.480555
478.000000	0.480722
479.000000	0.480830
480.000000	0.481047
481.000000	0.481173
482.000000	0.481466
483.000000	0.481762
484.000000	0.482216
485.000000	0.482560
486.000000	0.482929
487.000000	0.483048
488.000000	0.483248
489.000000	0.483592
490.000000	0.483934
491.000000	0.484280
492.000000	0.484702
493.000000	0.485025
494.000000	0.485335
495.000000	0.485688
496.000000	0.486045
497.000000	0.486483
498.000000	0.486828
499.000000	0.487162
500.000000	0.487525
501.000000	0.487796
502.000000	0.488064
503.000000	0.488347
504.000000	0.488758
505.000000	0.489191
506.000000	0.489523
507.000000	0.489735
508.000000	0.489960
509.000000	0.490236
510.000000	0.490681
511.000000	0.491118
512.000000	0.491534
513.000000	0.491925
514.000000	0.492352
515.000000	0.492747
516.000000	0.492919
517.000000	0.493204
518.000000	0.493552
519.000000	0.493769
520.000000	0.494110
521.000000	0.494460
522.000000	0.494771
523.000000	0.495046
524.000000	0.495417
525.000000	0.495805
526.000000	0.496103
527.000000	0.496435
528.000000	0.496725
529.000000	0.496971
530.000000	0.497164
531.000000	0.497523
532.000000	0.497958
533.000000	0.498233
534.000000	0.498503
535.000000	0.498793
536.000000	0.499070
537.000000	0.499391
538.000000	0.499733
539.000000	0.500019
540.000000	0.500342
541.000000	0.500619
542.000000	0.500857
543.000000	0.501212
544.000000	0.501572
545.000000	0.501806
546.000000	0.502224
547.000000	0.502565
548.000000	0.502852
549.000000	0.503121
550.000000	0.503436
551.000000	0.503805
552.000000	0.504119
553.000000	0.504458
554.000000	0.504770
555.000000	0.505047
556.000000	0.505411
557.000000	0.505693
558.000000	0.506049
559.000000	0.506391
560.000000	0.506667
561.000000	0.507008
562.000000	0.507363
563.000000	0.507707
564.000000	0.508072
565.000000	0.508317
566.000000	0.508663
567.000000	0.509009
568.000000	0.509265
569.000000	0.509536
570.000000	0.509882
571.000000	0.510263
572.000000	0.510583
573.000000	0.510941
574.000000	0.511247
575.000000	0.511473
576.000000	0.511710
577.000000	0.511936
578.000000	0.512235
579.000000	0.512587
580.000000	0.512910
581.000000	0.513182
582.000000	0.513484
583.000000	0.513737
584.000000	0.513985
585.000000	0.514344
586.000000	0.514685
587.000000	0.514943
588.000000	0.515109
589.000000	0.515377
590.000000	0.515688
591.000000	0.515972
592.000000	0.516181
593.000000	0.516391
594.000000	0.516618
595.000000	0.516841
596.000000	0.517074
597.000000	0.517366
598.000000	0.517597
599.000000	0.517725
600.000000	0.517926
601.000000	0.518181
602.000000	0.518328
603.000000	0.518441
604.000000	0.518594
605.000000	0.518832
606.000000	0.518931
607.000000	0.518940
608.000000	0.519085
609.000000	0.519227
610.000000	0.519345
611.000000	0.519451
612.000000	0.519574
613.000000	0.519710
614.000000	0.519926
615.000000	0.520227
616.000000	0.520435
617.000000	0.520509
618.000000	0.520728
619.000000	0.520956
620.000000	0.521088
621.000000	0.521146
622.000000	0.521266
623.000000	0.521369
624.000000	0.521400
625.000000	0.521552
626.000000	0.521709
627.000000	0.521836
628.000000	0.522038
629.000000	0.522262
630.000000	0.522355
631.000000	0.522600
632.000000	0.522744
633.000000	0.522813
634.000000	0.522862
635.000000	0.522966
636.000000	0.523135
637.000000	0.523313
638.000000	0.523444
639.000000	0.523554
640.000000	0.523698
641.000000	0.523665
642.000000	0.523719
643.000000	0.523856
644.000000	0.523983
645.000000	0.524026
646.000000	0.524132
647.000000	0.524336
648.000000	0.524478
649.000000	0.524610
650.000000	0.524734
651.000000	0.524883
652.000000	0.525019
653.000000	0.525192
654.000000	0.525341
655.000000	0.525453
656.000000	0.525550
657.000000	0.525584
658.000000	0.525770
659.000000	0.525935
660.000000	0.526002
661.000000	0.526185
662.000000	0.526334
663.000000	0.526498
664.000000	0.526647
665.000000	0.526797
666.000000	0.526933
667.000000	0.527010
668.000000	0.527208
669.000000	0.527371
670.000000	0.527445
671.000000	0.527603
672.000000	0.527776
673.000000	0.527922
674.000000	0.528048
675.000000	0.528144
676.000000	0.528268
677.000000	0.528500
678.000000	0.528691
679.000000	0.528833
680.000000	0.528947
681.000000	0.528994
682.000000	0.529145
683.000000	0.529305
684.000000	0.529510
685.000000	0.529642
686.000000	0.529784
687.000000	0.529978
688.000000	0.530114
689.000000	0.530209
690.000000	0.530347
691.000000	0.530511
692.000000	0.530578
693.000000	0.530659
694.000000	0.530833
695.000000	0.530977
696.000000	0.531099
697.000000	0.531257
698.000000	0.531454
699.000000	0.531644
700.000000	0.531801
701.000000	0.531903
702.000000	0.532050
703.000000	0.532222
704.000000	0.532332
705.000000	0.532475
706.000000	0.532584
707.000000	0.532693
708.000000	0.532785
709.000000	0.532862
710.000000	0.532961
711.000000	0.533052
712.000000	0.533155
713.000000	0.533310
714.000000	0.533486
715.000000	0.533597
716.000000	0.533690
717.000000	0.533819
718.000000	0.533939
719.000000	0.534014
720.000000	0.534059
721.000000	0.534160
722.000000	0.534181
723.000000	0.534220
724.000000	0.534389
725.000000	0.534477
726.000000	0.534606
727.000000	0.534740
728.000000	0.534818
729.000000	0.534890
730.000000	0.534927
731.000000	0.535048
732.000000	0.535107
733.000000	0.535138
734.000000	0.535209
735.000000	0.535180
736.000000	0.535275
737.000000	0.535406
738.000000	0.535476
739.000000	0.535588
740.000000	0.535563
741.000000	0.535669
742.000000	0.535773
743.000000	0.535799
744.000000	0.535877
745.000000	0.535955
746.000000	0.536057
747.000000	0.536066
748.000000	0.536181
749.000000	0.536341
750.000000	0.536438
751.000000	0.536568
752.000000	0.536637
753.000000	0.536652
754.000000	0.536661
755.000000	0.536713
756.000000	0.536797
757.000000	0.536813
758.000000	0.536882
759.000000	0.536990
760.000000	0.537044
761.000000	0.537324
762.000000	0.537470
763.000000	0.537423
764.000000	0.537449
765.000000	0.537490
766.000000	0.537525
767.000000	0.537532
768.000000	0.537572
769.000000	0.537543
770.000000	0.537468
771.000000	0.537537
772.000000	0.537688
773.000000	0.537731
774.000000	0.537682
775.000000	0.537752
776.000000	0.537867
777.000000	0.537917
778.000000	0.537951
779.000000	0.537974
780.000000	0.537998
781.000000	0.538001
782.000000	0.538060
783.000000	0.538257
784.000000	0.538347
785.000000	0.538420
786.000000	0.538421
787.000000	0.538364
788.000000	0.538457
789.000000	0.538529
790.000000	0.538515
791.000000	0.538483
792.000000	0.538532
793.000000	0.538610
794.000000	0.538645
795.000000	0.538561
796.000000	0.538474
797.000000	0.538406
798.000000	0.538297
799.000000	0.538343
800.000000	0.538400
801.000000	0.538290
802.000000	0.538254
803.000000	0.538333
804.000000	0.538514
805.000000	0.538471
806.000000	0.538329
807.000000	0.538305
808.000000	0.538383
809.000000	0.538379
810.000000	0.538362
811.000000	0.538383
812.000000	0.538406
813.000000	0.538452
814.000000	0.538528
815.000000	0.538667
816.000000	0.538760
817.000000	0.538827
818.000000	0.538780
819.000000	0.538782
820.000000	0.538828
821.000000	0.538813
822.000000	0.538765
823.000000	0.538739
824.000000	0.538637
825.000000	0.538531
826.000000	0.538433
827.000000	0.538316
828.000000	0.538263
829.000000	0.538347
830.000000	0.538335
831.000000	0.538303
832.000000	0.538206
833.000000	0.538181
834.000000	0.538187
835.000000	0.538194
836.000000	0.538046
837.000000	0.537903
838.000000	0.537847
839.000000	0.537822
840.000000	0.537829
841.000000	0.537864
842.000000	0.537849
843.000000	0.537826
844.000000	0.537760
845.000000	0.537618
846.000000	0.537506
847.000000	0.537454
848.000000	0.537383
849.000000	0.537258
850.000000	0.537072
851.000000	0.536864
852.000000	0.536793
853.000000	0.536991
854.000000	0.537028
855.000000	0.537030
856.000000	0.536959
857.000000	0.536803
858.000000	0.536795
859.000000	0.536839
860.000000	0.536692
861.000000	0.536623
862.000000	0.536701
863.000000	0.536757
864.000000	0.536645
865.000000	0.536556
866.000000	0.536572
867.000000	0.536364
868.000000	0.536265
869.000000	0.536129
870.000000	0.535866
871.000000	0.535734
872.000000	0.535677
873.000000	0.535575
874.000000	0.535632
875.000000	0.535668
876.000000	0.535580
877.000000	0.535214
878.000000	0.534872
879.000000	0.534662
880.000000	0.534388
881.000000	0.534205
882.000000	0.534059
883.000000	0.534012
884.000000	0.534019
885.000000	0.533891
886.000000	0.533659
887.000000	0.533430
888.000000	0.533236
889.000000	0.533140
890.000000	0.533013
891.000000	0.533025
892.000000	0.532900
893.000000	0.532737
894.000000	0.532749
895.000000	0.532568
896.000000	0.532288
897.000000	0.531972
898.000000	0.531688
899.000000	0.531483
900.000000	0.531359
901.000000	0.531242
902.000000	0.531194
903.000000	0.530988
904.000000	0.530731
905.000000	0.530439
906.000000	0.530350
907.000000	0.530261
908.000000	0.530202
909.000000	0.530153
910.000000	0.529950
911.000000	0.529734
912.000000	0.529644
913.000000	0.529402
914.000000	0.529120
915.000000	0.528920
916.000000	0.528639
917.000000	0.528409
918.000000	0.528198
919.000000	0.527923
920.000000	0.527589
921.000000	0.527320
922.000000	0.527159
923.000000	0.527052
924.000000	0.527043
925.000000	0.526974
926.000000	0.526791
927.000000	0.526427
928.000000	0.526080
929.000000	0.525798
930.000000	0.525562
931.000000	0.525291
932.000000	0.525012
933.000000	0.524773
934.000000	0.524447
935.000000	0.524056
936.000000	0.523835
937.000000	0.523712
938.000000	0.523301
939.000000	0.523126
940.000000	0.522976
941.000000	0.522525
942.000000	0.522160
943.000000	0.521883
944.000000	0.521401
945.000000	0.520725
946.000000	0.520063
947.000000	0.519607
948.000000	0.519352
949.000000	0.519136
950.000000	0.519111
951.000000	0.519181
952.000000	0.519208
953.000000	0.519064
954.000000	0.518831
955.000000	0.518536
956.000000	0.518468
957.000000	0.518223
958.000000	0.517833
959.000000	0.517705
960.000000	0.517643
961.000000	0.517494
962.000000	0.517238
963.000000	0.517107
964.000000	0.517057
965.000000	0.516995
966.000000	0.516678
967.000000	0.516372
968.000000	0.516112
969.000000	0.515831
970.000000	0.515620
971.000000	0.515378
972.000000	0.515113
973.000000	0.514728
974.000000	0.514333
975.000000	0.514134
976.000000	0.514131
977.000000	0.514162
978.000000	0.513811
979.000000	0.513704
980.000000	0.513556
981.000000	0.513511
982.000000	0.513282
983.000000	0.513136
984.000000	0.513024
985.000000	0.512342
986.000000	0.512455
987.000000	0.512699
988.000000	0.512309
989.000000	0.511907
990.000000	0.511795
991.000000	0.511802
992.000000	0.511755
993.000000	0.512075
994.000000	0.511916
995.000000	0.511495
996.000000	0.511153
997.000000	0.511005
998.000000	0.511264
999.000000	0.511807
1000.000000	0.511619
1001.000000	0.511990
1002.000000	0.511938
1003.000000	0.510762
1004.000000	0.510172
1005.000000	0.509612
1006.000000	0.509248
1007.000000	0.508825
1008.000000	0.509447
1009.000000	0.510022
1010.000000	0.509338
1011.000000	0.509763
1012.000000	0.509978
1013.000000	0.509171
1014.000000	0.509444
1015.000000	0.509322
1016.000000	0.508932
1017.000000	0.509049
1018.000000	0.509155
1019.000000	0.509288
1020.000000	0.509771
1021.000000	0.509396
1022.000000	0.508893
1023.000000	0.509074
1024.000000	0.508845
1025.000000	0.509442
1026.000000	0.509852
1027.000000	0.509457
1028.000000	0.509523
1029.000000	0.509552
1030.000000	0.509470
1031.000000	0.509786
1032.000000	0.509795
1033.000000	0.509636
1034.000000	0.509893
1035.000000	0.510994
1036.000000	0.511095
1037.000000	0.510712
1038.000000	0.510451
1039.000000	0.509738
1040.000000	0.509807
1041.000000	0.510067
1042.000000	0.510165
1043.000000	0.510131
1044.000000	0.509906
1045.000000	0.510023
1046.000000	0.510115
1047.000000	0.510394
1048.000000	0.511068
1049.000000	0.511226
1050.000000	0.511206
1051.000000	0.511266
1052.000000	0.511020
1053.000000	0.510838
1054.000000	0.510971
1055.000000	0.511090
1056.000000	0.511262
1057.000000	0.511545
1058.000000	0.511380
1059.000000	0.511336
1060.000000	0.511810
1061.000000	0.511913
1062.000000	0.512361
1063.000000	0.513304
1064.000000	0.513503
1065.000000	0.512996
1066.000000	0.513149
1067.000000	0.513136
1068.000000	0.513242
1069.000000	0.513765
1070.000000	0.514037
1071.000000	0.514155
1072.000000	0.514375
1073.000000	0.514714
1074.000000	0.515218
1075.000000	0.515282
1076.000000	0.515313
1077.000000	0.515447
1078.000000	0.515077
1079.000000	0.514996
1080.000000	0.515115
1081.000000	0.515266
1082.000000	0.515586
1083.000000	0.515731
1084.000000	0.515963
1085.000000	0.516184
1086.000000	0.516135
1087.000000	0.516408
1088.000000	0.516842
1089.000000	0.517111
1090.000000	0.517566
1091.000000	0.517502
1092.000000	0.517304
1093.000000	0.517791
1094.000000	0.517849
1095.000000	0.517712
1096.000000	0.517728
1097.000000	0.517623
1098.000000	0.517731
1099.000000	0.517906
1100.000000	0.518134
1101.000000	0.518469
1102.000000	0.518622
1103.000000	0.518559
1104.000000	0.518770
1105.000000	0.519129
1106.000000	0.519367
1107.000000	0.519727
1108.000000	0.519829
1109.000000	0.519913
1110.000000	0.519567
1111.000000	0.519566
1112.000000	0.519514
1113.000000	0.519710
1114.000000	0.520215
1115.000000	0.520442
1116.000000	0.520727
1117.000000	0.520835
1118.000000	0.520661
1119.000000	0.520588
1120.000000	0.520523
1121.000000	0.520458
1122.000000	0.520517
1123.000000	0.520841
1124.000000	0.520855
1125.000000	0.521027
1126.000000	0.521355
1127.000000	0.521432
1128.000000	0.521411
1129.000000	0.521353
1130.000000	0.521390
1131.000000	0.521364
1132.000000	0.521293
1133.000000	0.521420
1134.000000	0.521412
1135.000000	0.521173
1136.000000	0.520968
1137.000000	0.520732
1138.000000	0.520491
1139.000000	0.520341
1140.000000	0.520282
1141.000000	0.520107
1142.000000	0.520123
1143.000000	0.520298
1144.000000	0.520409
1145.000000	0.520441
1146.000000	0.520121
1147.000000	0.519823
1148.000000	0.519014
1149.000000	0.518764
1150.000000	0.518703
1151.000000	0.518722
1152.000000	0.518928
1153.000000	0.518993
1154.000000	0.519077
1155.000000	0.518967
1156.000000	0.518712
1157.000000	0.518531
1158.000000	0.518027
1159.000000	0.517846
1160.000000	0.517930
1161.000000	0.517871
1162.000000	0.517957
1163.000000	0.518247
1164.000000	0.518222
1165.000000	0.518028
1166.000000	0.518092
1167.000000	0.518161
1168.000000	0.518195
1169.000000	0.518440
1170.000000	0.518486
1171.000000	0.518405
1172.000000	0.518496
1173.000000	0.518562
1174.000000	0.518594
1175.000000	0.518688
1176.000000	0.518624
1177.000000	0.518531
1178.000000	0.518481
1179.000000	0.518438
1180.000000	0.518257
1181.000000	0.518070
1182.000000	0.517987
1183.000000	0.518065
1184.000000	0.518119
1185.000000	0.518159
1186.000000	0.518360
1187.000000	0.518330
1188.000000	0.518135
1189.000000	0.517979
1190.000000	0.517846
1191.000000	0.517721
1192.000000	0.517735
1193.000000	0.517853
1194.000000	0.517816
1195.000000	0.517850
1196.000000	0.517859
1197.000000	0.517811
1198.000000	0.517769
1199.000000	0.517804
1200.000000	0.517821
1201.000000	0.517891
1202.000000	0.517920
1203.000000	0.517918
1204.000000	0.517906
1205.000000	0.517965
1206.000000	0.517843
1207.000000	0.517803
1208.000000	0.517776
1209.000000	0.517693
1210.000000	0.517701
1211.000000	0.517886
1212.000000	0.517921
1213.000000	0.518026
1214.000000	0.518066
1215.000000	0.517955
1216.000000	0.517938
1217.000000	0.517809
1218.000000	0.517732
1219.000000	0.517709
1220.000000	0.517950
1221.000000	0.518052
1222.000000	0.517905
1223.000000	0.517726
1224.000000	0.517568
1225.000000	0.517412
1226.000000	0.517360
1227.000000	0.517288
1228.000000	0.517340
1229.000000	0.517315
1230.000000	0.517257
1231.000000	0.517111
1232.000000	0.517074
1233.000000	0.517222
1234.000000	0.517378
1235.000000	0.517510
1236.000000	0.517671
1237.000000	0.517832
1238.000000	0.517846
1239.000000	0.517852
1240.000000	0.517873
1241.000000	0.517901
1242.000000	0.517886
1243.000000	0.517749
1244.000000	0.517619
1245.000000	0.517486
1246.000000	0.517243
1247.000000	0.517357
1248.000000	0.517400
1249.000000	0.517327
1250.000000	0.517418
1251.000000	0.517337
1252.000000	0.517321
1253.000000	0.517540
1254.000000	0.517562
1255.000000	0.517422
1256.000000	0.517342
1257.000000	0.517236
1258.000000	0.517245
1259.000000	0.517227
1260.000000	0.517239
1261.000000	0.517228
1262.000000	0.517176
1263.000000	0.517063
1264.000000	0.517021
1265.000000	0.517054
1266.000000	0.517082
1267.000000	0.517127
1268.000000	0.517085
1269.000000	0.516902
1270.000000	0.516802
1271.000000	0.516698
1272.000000	0.516538
1273.000000	0.516510
1274.000000	0.516445
1275.000000	0.516421
1276.000000	0.516512
1277.000000	0.516666
1278.000000	0.516769
1279.000000	0.516755
1280.000000	0.516604
1281.000000	0.516427
1282.000000	0.516174
1283.000000	0.516136
1284.000000	0.516121
1285.000000	0.516046
1286.000000	0.515925
1287.000000	0.515890
1288.000000	0.515852
1289.000000	0.515758
1290.000000	0.515676
1291.000000	0.515654
1292.000000	0.515650
1293.000000	0.515530
1294.000000	0.515395
1295.000000	0.515281
1296.000000	0.515098
1297.000000	0.514955
1298.000000	0.514891
1299.000000	0.514942
1300.000000	0.515086
1301.000000	0.515110
1302.000000	0.514939
1303.000000	0.514836
1304.000000	0.514536
1305.000000	0.514034
1306.000000	0.513761
1307.000000	0.513654
1308.000000	0.513546
1309.000000	0.513548
1310.000000	0.513507
1311.000000	0.513564
1312.000000	0.513343
1313.000000	0.513056
1314.000000	0.512863
1315.000000	0.512459
1316.000000	0.512132
1317.000000	0.512189
1318.000000	0.512163
1319.000000	0.511939
1320.000000	0.511786
1321.000000	0.511387
1322.000000	0.510980
1323.000000	0.510840
1324.000000	0.510669
1325.000000	0.510450
1326.000000	0.510136
1327.000000	0.509842
1328.000000	0.509722
1329.000000	0.509324
1330.000000	0.508852
1331.000000	0.508419
1332.000000	0.507871
1333.000000	0.507443
1334.000000	0.507187
1335.000000	0.506907
1336.000000	0.506628
1337.000000	0.506331
1338.000000	0.505965
1339.000000	0.505703
1340.000000	0.505241
1341.000000	0.504745
1342.000000	0.504237
1343.000000	0.503750
1344.000000	0.503352
1345.000000	0.502993
1346.000000	0.502726
1347.000000	0.502210
1348.000000	0.501819
1349.000000	0.501417
1350.000000	0.501112
1351.000000	0.500797
1352.000000	0.500445
1353.000000	0.500096
1354.000000	0.499620
1355.000000	0.499189
1356.000000	0.498814
1357.000000	0.498284
1358.000000	0.497768
1359.000000	0.497266
1360.000000	0.496809
1361.000000	0.496519
1362.000000	0.496014
1363.000000	0.495369
1364.000000	0.494837
1365.000000	0.494193
1366.000000	0.493606
1367.000000	0.493153
1368.000000	0.492547
1369.000000	0.491888
1370.000000	0.490962
1371.000000	0.489757
1372.000000	0.488551
1373.000000	0.487233
1374.000000	0.485675
1375.000000	0.483860
1376.000000	0.481887
1377.000000	0.479538
1378.000000	0.476543
1379.000000	0.473191
1380.000000	0.469280
1381.000000	0.464575
1382.000000	0.459576
1383.000000	0.454324
1384.000000	0.448957
1385.000000	0.443763
1386.000000	0.438862
1387.000000	0.434542
1388.000000	0.430821
1389.000000	0.427935
1390.000000	0.425935
1391.000000	0.424548
1392.000000	0.423927
1393.000000	0.423707
1394.000000	0.424458
1395.000000	0.424829
1396.000000	0.425589
1397.000000	0.425817
1398.000000	0.425917
1399.000000	0.425577
1400.000000	0.424968
1401.000000	0.424042
1402.000000	0.422835
1403.000000	0.421199
1404.000000	0.419540
1405.000000	0.417749
1406.000000	0.416015
1407.000000	0.414391
1408.000000	0.412671
1409.000000	0.411081
1410.000000	0.409557
1411.000000	0.408135
1412.000000	0.407076
1413.000000	0.406159
1414.000000	0.405233
1415.000000	0.404410
1416.000000	0.403633
1417.000000	0.403000
1418.000000	0.402373
1419.000000	0.401849
1420.000000	0.401224
1421.000000	0.400678
1422.000000	0.400392
1423.000000	0.400241
1424.000000	0.399940
1425.000000	0.399716
1426.000000	0.399446
1427.000000	0.399154
1428.000000	0.399027
1429.000000	0.398908
1430.000000	0.398843
1431.000000	0.398781
1432.000000	0.398559
1433.000000	0.398293
1434.000000	0.397992
1435.000000	0.397597
1436.000000	0.397327
1437.000000	0.397117
1438.000000	0.396909
1439.000000	0.396887
1440.000000	0.396647
1441.000000	0.396323
1442.000000	0.396022
1443.000000	0.395546
1444.000000	0.395087
1445.000000	0.394719
1446.000000	0.394359
1447.000000	0.393961
1448.000000	0.393742
1449.000000	0.393489
1450.000000	0.393134
1451.000000	0.392890
1452.000000	0.392491
1453.000000	0.392118
1454.000000	0.391873
1455.000000	0.391507
1456.000000	0.391246
1457.000000	0.391181
1458.000000	0.391084
1459.000000	0.391037
1460.000000	0.391014
1461.000000	0.390897
1462.000000	0.390857
1463.000000	0.390914
1464.000000	0.391097
1465.000000	0.391295
1466.000000	0.391418
1467.000000	0.391578
1468.000000	0.391706
1469.000000	0.391974
1470.000000	0.392311
1471.000000	0.392771
1472.000000	0.393280
1473.000000	0.393883
1474.000000	0.394417
1475.000000	0.394939
1476.000000	0.395601
1477.000000	0.396239
1478.000000	0.396960
1479.000000	0.397746
1480.000000	0.398453
1481.000000	0.399154
1482.000000	0.399952
1483.000000	0.400653
1484.000000	0.401255
1485.000000	0.401967
1486.000000	0.402589
1487.000000	0.403363
1488.000000	0.404375
1489.000000	0.405226
1490.000000	0.405849
1491.000000	0.406701
1492.000000	0.407598
1493.000000	0.408416
1494.000000	0.409269
1495.000000	0.410042
1496.000000	0.410671
1497.000000	0.411343
1498.000000	0.412047
1499.000000	0.412757
1500.000000	0.413519
1501.000000	0.414132
1502.000000	0.414813
1503.000000	0.415590
1504.000000	0.416122
1505.000000	0.416628
1506.000000	0.417226
1507.000000	0.417838
1508.000000	0.418516
1509.000000	0.419137
1510.000000	0.419608
1511.000000	0.420018
1512.000000	0.420455
1513.000000	0.420932
1514.000000	0.421439
1515.000000	0.421830
1516.000000	0.422286
1517.000000	0.422814
1518.000000	0.423196
1519.000000	0.423422
1520.000000	0.423654
1521.000000	0.423757
1522.000000	0.424034
1523.000000	0.424438
1524.000000	0.424632
1525.000000	0.425006
1526.000000	0.425290
1527.000000	0.425481
1528.000000	0.425913
1529.000000	0.426131
1530.000000	0.426175
1531.000000	0.426477
1532.000000	0.426722
1533.000000	0.426844
1534.000000	0.427131
1535.000000	0.427435
1536.000000	0.427707
1537.000000	0.428224
1538.000000	0.428554
1539.000000	0.428701
1540.000000	0.428985
1541.000000	0.429222
1542.000000	0.429560
1543.000000	0.430022
1544.000000	0.430268
1545.000000	0.430540
1546.000000	0.430779
1547.000000	0.430840
1548.000000	0.431066
1549.000000	0.431143
1550.000000	0.431112
1551.000000	0.431256
1552.000000	0.431353
1553.000000	0.431458
1554.000000	0.431503
1555.000000	0.431524
1556.000000	0.431568
1557.000000	0.431532
1558.000000	0.431573
1559.000000	0.431603
1560.000000	0.431687
1561.000000	0.431839
1562.000000	0.431891
1563.000000	0.432057
1564.000000	0.432192
1565.000000	0.432265
1566.000000	0.432238
1567.000000	0.432295
1568.000000	0.432338
1569.000000	0.432327
1570.000000	0.432467
1571.000000	0.432804
1572.000000	0.432893
1573.000000	0.432898
1574.000000	0.432941
1575.000000	0.432877
1576.000000	0.432977
1577.000000	0.433257
1578.000000	0.433324
1579.000000	0.433378
1580.000000	0.433419
1581.000000	0.433419
1582.000000	0.433486
1583.000000	0.433622
1584.000000	0.433659
1585.000000	0.433813
1586.000000	0.433878
1587.000000	0.433844
1588.000000	0.433888
1589.000000	0.433947
1590.000000	0.433960
1591.000000	0.434000
1592.000000	0.434051
1593.000000	0.434132
1594.000000	0.434190
1595.000000	0.434306
1596.000000	0.434465
1597.000000	0.434655
1598.000000	0.434771
1599.000000	0.435038
1600.000000	0.435051
1601.000000	0.434919
1602.000000	0.434949
1603.000000	0.435025
1604.000000	0.435019
1605.000000	0.435097
1606.000000	0.435150
1607.000000	0.435098
1608.000000	0.435183
1609.000000	0.435508
1610.000000	0.435649
1611.000000	0.435836
1612.000000	0.435929
1613.000000	0.435959
1614.000000	0.436114
1615.000000	0.436390
1616.000000	0.436649
1617.000000	0.436990
1618.000000	0.437155
1619.000000	0.437124
1620.000000	0.437202
1621.000000	0.437286
1622.000000	0.437531
1623.000000	0.437841
1624.000000	0.438129
1625.000000	0.438306
1626.000000	0.438409
1627.000000	0.438486
1628.000000	0.438690
1629.000000	0.438875
1630.000000	0.439133
1631.000000	0.439457
1632.000000	0.439599
1633.000000	0.439613
1634.000000	0.439805
1635.000000	0.440093
1636.000000	0.440300
1637.000000	0.440654
1638.000000	0.440850
1639.000000	0.440892
1640.000000	0.441090
1641.000000	0.441438
1642.000000	0.441702
1643.000000	0.442052
1644.000000	0.442375
1645.000000	0.442696
1646.000000	0.442910
1647.000000	0.443112
1648.000000	0.443265
1649.000000	0.443418
1650.000000	0.443666
1651.000000	0.444043
1652.000000	0.444376
1653.000000	0.444666
1654.000000	0.444919
1655.000000	0.445062
1656.000000	0.445148
1657.000000	0.445269
1658.000000	0.445369
1659.000000	0.445584
1660.000000	0.445809
1661.000000	0.445904
1662.000000	0.446074
1663.000000	0.446205
1664.000000	0.446486
1665.000000	0.446881
1666.000000	0.447219
1667.000000	0.447483
1668.000000	0.447824
1669.000000	0.448108
1670.000000	0.448359
1671.000000	0.448909
1672.000000	0.449190
1673.000000	0.449207
1674.000000	0.449372
1675.000000	0.449588
1676.000000	0.449802
1677.000000	0.449864
1678.000000	0.449952
1679.000000	0.449967
1680.000000	0.449907
1681.000000	0.450108
1682.000000	0.450249
1683.000000	0.450351
1684.000000	0.450456
1685.000000	0.450482
1686.000000	0.450497
1687.000000	0.450600
1688.000000	0.450624
1689.000000	0.450664
1690.000000	0.450758
1691.000000	0.450853
1692.000000	0.450913
1693.000000	0.450989
1694.000000	0.450931
1695.000000	0.450906
1696.000000	0.450955
1697.000000	0.450874
1698.000000	0.450772
1699.000000	0.450768
1700.000000	0.450683
1701.000000	0.450845
1702.000000	0.450993
1703.000000	0.451070
1704.000000	0.451449
1705.000000	0.451554
1706.000000	0.451408
1707.000000	0.451489
1708.000000	0.451477
1709.000000	0.451486
1710.000000	0.451894
1711.000000	0.452111
1712.000000	0.452206
1713.000000	0.452340
1714.000000	0.452557
1715.000000	0.452688
1716.000000	0.452855
1717.000000	0.452890
1718.000000	0.452633
1719.000000	0.452621
1720.000000	0.452721
1721.000000	0.452841
1722.000000	0.453184
1723.000000	0.453368
1724.000000	0.453556
1725.000000	0.453630
1726.000000	0.453408
1727.000000	0.453413
1728.000000	0.453327
1729.000000	0.453253
1730.000000	0.453553
1731.000000	0.453608
1732.000000	0.453447
1733.000000	0.453657
1734.000000	0.453850
1735.000000	0.453951
1736.000000	0.454121
1737.000000	0.454250
1738.000000	0.454277
1739.000000	0.454329
1740.000000	0.454487
1741.000000	0.454420
1742.000000	0.454117
1743.000000	0.454189
1744.000000	0.454343
1745.000000	0.454383
1746.000000	0.454557
1747.000000	0.454455
1748.000000	0.454286
1749.000000	0.454019
1750.000000	0.453843
1751.000000	0.453850
1752.000000	0.453968
1753.000000	0.454079
1754.000000	0.454147
1755.000000	0.454127
1756.000000	0.454091
1757.000000	0.454040
1758.000000	0.454003
1759.000000	0.453810
1760.000000	0.453839
1761.000000	0.453970
1762.000000	0.454060
1763.000000	0.454415
1764.000000	0.454510
1765.000000	0.454338
1766.000000	0.454282
1767.000000	0.454061
1768.000000	0.453825
1769.000000	0.453673
1770.000000	0.453697
1771.000000	0.453721
1772.000000	0.453724
1773.000000	0.453788
1774.000000	0.453841
1775.000000	0.453967
1776.000000	0.453948
1777.000000	0.453766
1778.000000	0.453872
1779.000000	0.454005
1780.000000	0.454049
1781.000000	0.454245
1782.000000	0.454346
1783.000000	0.454260
1784.000000	0.454539
1785.000000	0.454743
1786.000000	0.454955
1787.000000	0.455054
1788.000000	0.455127
1789.000000	0.455295
1790.000000	0.455224
1791.000000	0.455175
1792.000000	0.455175
1793.000000	0.455234
1794.000000	0.455532
1795.000000	0.455612
1796.000000	0.455523
1797.000000	0.455506
1798.000000	0.455299
1799.000000	0.455268
1800.000000	0.455427
1801.000000	0.455826
1802.000000	0.455612
1803.000000	0.454556
1804.000000	0.454318
1805.000000	0.454560
1806.000000	0.454521
1807.000000	0.454939
1808.000000	0.454639
1809.000000	0.453332
1810.000000	0.453001
1811.000000	0.452574
1812.000000	0.451952
1813.000000	0.451479
1814.000000	0.451283
1815.000000	0.451187
1816.000000	0.450888
1817.000000	0.450788
1818.000000	0.451165
1819.000000	0.451837
1820.000000	0.452347
1821.000000	0.452585
1822.000000	0.452532
1823.000000	0.451888
1824.000000	0.451837
1825.000000	0.451875
1826.000000	0.451693
1827.000000	0.451429
1828.000000	0.451479
1829.000000	0.451040
1830.000000	0.450228
1831.000000	0.449782
1832.000000	0.449490
1833.000000	0.449191
1834.000000	0.448946
1835.000000	0.448736
1836.000000	0.448665
1837.000000	0.448467
1838.000000	0.447921
1839.000000	0.447391
1840.000000	0.447439
1841.000000	0.447417
1842.000000	0.446864
1843.000000	0.445900
1844.000000	0.445406
1845.000000	0.444392
1846.000000	0.443887
1847.000000	0.443836
1848.000000	0.443754
1849.000000	0.443420
1850.000000	0.442555
1851.000000	0.441649
1852.000000	0.440435
1853.000000	0.439518
1854.000000	0.438277
1855.000000	0.436785
1856.000000	0.435014
1857.000000	0.433633
1858.000000	0.431857
1859.000000	0.430111
1860.000000	0.428890
1861.000000	0.427684
1862.000000	0.425725
1863.000000	0.423119
1864.000000	0.421194
1865.000000	0.419531
1866.000000	0.417021
1867.000000	0.414539
1868.000000	0.412000
1869.000000	0.407452
1870.000000	0.402275
1871.000000	0.398029
1872.000000	0.393985
1873.000000	0.390277
1874.000000	0.387899
1875.000000	0.384393
1876.000000	0.380456
1877.000000	0.375523
1878.000000	0.370731
1879.000000	0.365394
1880.000000	0.359747
1881.000000	0.354342
1882.000000	0.348190
1883.000000	0.341969
1884.000000	0.335778
1885.000000	0.329344
1886.000000	0.322496
1887.000000	0.315429
1888.000000	0.307896
1889.000000	0.300179
1890.000000	0.293105
1891.000000	0.286220
1892.000000	0.279075
1893.000000	0.272000
1894.000000	0.265183
1895.000000	0.258594
1896.000000	0.252266
1897.000000	0.246386
1898.000000	0.240898
1899.000000	0.235570
1900.000000	0.230486
1901.000000	0.226183
1902.000000	0.222255
1903.000000	0.218578
1904.000000	0.215738
1905.000000	0.213045
1906.000000	0.210758
1907.000000	0.208882
1908.000000	0.207776
1909.000000	0.206472
1910.000000	0.205651
1911.000000	0.205299
1912.000000	0.204567
1913.000000	0.204171
1914.000000	0.204099
1915.000000	0.203531
1916.000000	0.203247
1917.000000	0.203165
1918.000000	0.203322
1919.000000	0.203532
1920.000000	0.204197
1921.000000	0.204570
1922.000000	0.204539
1923.000000	0.203949
1924.000000	0.203419
1925.000000	0.203470
1926.000000	0.203582
1927.000000	0.204510
1928.000000	0.205550
1929.000000	0.207120
1930.000000	0.208255
1931.000000	0.208858
1932.000000	0.209688
1933.000000	0.209985
1934.000000	0.209218
1935.000000	0.209463
1936.000000	0.209485
1937.000000	0.209170
1938.000000	0.209807
1939.000000	0.210289
1940.000000	0.210890
1941.000000	0.211439
1942.000000	0.212209
1943.000000	0.212613
1944.000000	0.212675
1945.000000	0.212788
1946.000000	0.212866
1947.000000	0.212790
1948.000000	0.212897
1949.000000	0.212931
1950.000000	0.212788
1951.000000	0.212577
1952.000000	0.212319
1953.000000	0.211851
1954.000000	0.211976
1955.000000	0.211941
1956.000000	0.212092
1957.000000	0.212867
1958.000000	0.212725
1959.000000	0.213168
1960.000000	0.213488
1961.000000	0.213173
1962.000000	0.213167
1963.000000	0.213417
1964.000000	0.213449
1965.000000	0.213486
1966.000000	0.213867
1967.000000	0.214530
1968.000000	0.214871
1969.000000	0.215219
1970.000000	0.216002
1971.000000	0.216399
1972.000000	0.216174
1973.000000	0.216239
1974.000000	0.216252
1975.000000	0.216326
1976.000000	0.216124
1977.000000	0.217307
1978.000000	0.218218
1979.000000	0.218998
1980.000000	0.219857
1981.000000	0.220646
1982.000000	0.221674
1983.000000	0.222246
1984.000000	0.222889
1985.000000	0.223686
1986.000000	0.224348
1987.000000	0.224777
1988.000000	0.225626
1989.000000	0.225975
1990.000000	0.226668
1991.000000	0.227075
1992.000000	0.227713
1993.000000	0.229419
1994.000000	0.231013
1995.000000	0.232771
1996.000000	0.234150
1997.000000	0.235382
1998.000000	0.236483
1999.000000	0.237512
2000.000000	0.238203
2001.000000	0.239203
2002.000000	0.240211
2003.000000	0.240976
2004.000000	0.241902
2005.000000	0.243211
2006.000000	0.245086
2007.000000	0.246631
2008.000000	0.248307
2009.000000	0.250508
2010.000000	0.252066
2011.000000	0.253156
2012.000000	0.254533
2013.000000	0.255828
2014.000000	0.256632
2015.000000	0.258127
2016.000000	0.258794
2017.000000	0.259640
2018.000000	0.260953
2019.000000	0.262227
2020.000000	0.263912
2021.000000	0.265332
2022.000000	0.266777
2023.000000	0.268037
2024.000000	0.269004
2025.000000	0.270277
2026.000000	0.271520
2027.000000	0.272890
2028.000000	0.274112
2029.000000	0.275433
2030.000000	0.276718
2031.000000	0.278014
2032.000000	0.279423
2033.000000	0.280395
2034.000000	0.281154
2035.000000	0.281263
2036.000000	0.282115
2037.000000	0.283356
2038.000000	0.284544
2039.000000	0.286366
2040.000000	0.287820
2041.000000	0.288313
2042.000000	0.288952
2043.000000	0.289390
2044.000000	0.289954
2045.000000	0.290982
2046.000000	0.291895
2047.000000	0.293338
2048.000000	0.295274
2049.000000	0.296964
2050.000000	0.298967
2051.000000	0.300300
2052.000000	0.300971
2053.000000	0.301582
2054.000000	0.302128
2055.000000	0.302422
2056.000000	0.303019
2057.000000	0.303914
2058.000000	0.305037
2059.000000	0.306192
2060.000000	0.307162
2061.000000	0.308149
2062.000000	0.308846
2063.000000	0.309184
2064.000000	0.309784
2065.000000	0.310637
2066.000000	0.311368
2067.000000	0.312396
2068.000000	0.313646
2069.000000	0.314842
2070.000000	0.315886
2071.000000	0.316662
2072.000000	0.317744
2073.000000	0.318931
2074.000000	0.319056
2075.000000	0.319675
2076.000000	0.320557
2077.000000	0.321240
2078.000000	0.321823
2079.000000	0.322494
2080.000000	0.323042
2081.000000	0.323828
2082.000000	0.324903
2083.000000	0.325661
2084.000000	0.326592
2085.000000	0.326824
2086.000000	0.326958
2087.000000	0.327930
2088.000000	0.328805
2089.000000	0.330678
2090.000000	0.331869
2091.000000	0.332872
2092.000000	0.333833
2093.000000	0.334686
2094.000000	0.335355
2095.000000	0.336095
2096.000000	0.336821
2097.000000	0.337300
2098.000000	0.337543
2099.000000	0.337933
2100.000000	0.338921
2101.000000	0.339893
2102.000000	0.341046
2103.000000	0.342543
2104.000000	0.343350
2105.000000	0.344055
2106.000000	0.344527
2107.000000	0.344972
2108.000000	0.344820
2109.000000	0.345261
2110.000000	0.345660
2111.000000	0.346216
2112.000000	0.346859
2113.000000	0.347822
2114.000000	0.348452
2115.000000	0.348963
2116.000000	0.349670
2117.000000	0.350059
2118.000000	0.350115
2119.000000	0.350326
2120.000000	0.350897
2121.000000	0.351689
2122.000000	0.352023
2123.000000	0.352544
2124.000000	0.352927
2125.000000	0.352457
2126.000000	0.352698
2127.000000	0.353708
2128.000000	0.354467
2129.000000	0.354958
2130.000000	0.356052
2131.000000	0.356646
2132.000000	0.357057
2133.000000	0.358009
2134.000000	0.358606
2135.000000	0.358764
2136.000000	0.359453
2137.000000	0.359790
2138.000000	0.359733
2139.000000	0.359686
2140.000000	0.359489
2141.000000	0.359568
2142.000000	0.359633
2143.000000	0.359731
2144.000000	0.360547
2145.000000	0.360852
2146.000000	0.360894
2147.000000	0.361227
2148.000000	0.361239
2149.000000	0.361867
2150.000000	0.363020
2151.000000	0.363287
2152.000000	0.363823
2153.000000	0.364102
2154.000000	0.363958
2155.000000	0.363232
2156.000000	0.363258
2157.000000	0.363412
2158.000000	0.363329
2159.000000	0.363573
2160.000000	0.363642
2161.000000	0.363261
2162.000000	0.363242
2163.000000	0.363583
2164.000000	0.363570
2165.000000	0.363452
2166.000000	0.362856
2167.000000	0.362813
2168.000000	0.362482
2169.000000	0.362661
2170.000000	0.363428
2171.000000	0.363919
2172.000000	0.364826
2173.000000	0.365119
2174.000000	0.364820
2175.000000	0.364948
2176.000000	0.364769
2177.000000	0.365084
2178.000000	0.366611
2179.000000	0.367203
2180.000000	0.366808
2181.000000	0.367587
2182.000000	0.368406
2183.000000	0.368183
2184.000000	0.368157
2185.000000	0.368170
2186.000000	0.366965
2187.000000	0.366460
2188.000000	0.365111
2189.000000	0.363972
2190.000000	0.364550
2191.000000	0.364385
2192.000000	0.364126
2193.000000	0.365081
2194.000000	0.364906
2195.000000	0.362977
2196.000000	0.362338
2197.000000	0.362639
2198.000000	0.362792
2199.000000	0.363418
2200.000000	0.363176
2201.000000	0.362292
2202.000000	0.361763
2203.000000	0.359765
2204.000000	0.359631
2205.000000	0.361604
2206.000000	0.361502
2207.000000	0.359687
2208.000000	0.358261
2209.000000	0.354284
2210.000000	0.350395
2211.000000	0.349989
2212.000000	0.350459
2213.000000	0.350250
2214.000000	0.351007
2215.000000	0.351881
2216.000000	0.351567
2217.000000	0.352543
2218.000000	0.356036
2219.000000	0.356867
2220.000000	0.355977
2221.000000	0.356972
2222.000000	0.357698
2223.000000	0.358164
2224.000000	0.358929
2225.000000	0.361862
2226.000000	0.361827
2227.000000	0.360330
2228.000000	0.360875
2229.000000	0.359913
2230.000000	0.357689
2231.000000	0.358870
2232.000000	0.359626
2233.000000	0.357197
2234.000000	0.355486
2235.000000	0.354209
2236.000000	0.353028
2237.000000	0.351231
2238.000000	0.351318
2239.000000	0.352343
2240.000000	0.353419
2241.000000	0.356746
2242.000000	0.356531
2243.000000	0.354115
2244.000000	0.353711
2245.000000	0.351856
2246.000000	0.351621
2247.000000	0.353483
2248.000000	0.354806
2249.000000	0.357468
2250.000000	0.357345
2251.000000	0.355411
2252.000000	0.354694
2253.000000	0.351935
2254.000000	0.350506
2255.000000	0.350485
2256.000000	0.350832
2257.000000	0.352780
2258.000000	0.352099
2259.000000	0.350067
2260.000000	0.349607
2261.000000	0.348698
2262.000000	0.346036
2263.000000	0.345584
2264.000000	0.347310
2265.000000	0.347010
2266.000000	0.346014
2267.000000	0.345607
2268.000000	0.344944
2269.000000	0.344379
2270.000000	0.344885
2271.000000	0.344209
2272.000000	0.343051
2273.000000	0.341151
2274.000000	0.337967
2275.000000	0.334748
2276.000000	0.330322
2277.000000	0.327160
2278.000000	0.324681
2279.000000	0.323855
2280.000000	0.323265
2281.000000	0.323041
2282.000000	0.322416
2283.000000	0.320445
2284.000000	0.319167
2285.000000	0.316541
2286.000000	0.315801
2287.000000	0.316589
2288.000000	0.314164
2289.000000	0.312757
2290.000000	0.310664
2291.000000	0.306734
2292.000000	0.304158
2293.000000	0.302437
2294.000000	0.301138
2295.000000	0.300306
2296.000000	0.298520
2297.000000	0.297184
2298.000000	0.295113
2299.000000	0.291950
2300.000000	0.289600
2301.000000	0.287708
2302.000000	0.284950
2303.000000	0.281104
2304.000000	0.278069
2305.000000	0.276149
2306.000000	0.273122
2307.000000	0.269889
2308.000000	0.265997
2309.000000	0.262731
2310.000000	0.259179
2311.000000	0.259502
2312.000000	0.261104
2313.000000	0.259552
2314.000000	0.259657
2315.000000	0.259543
2316.000000	0.259511
2317.000000	0.261958
2318.000000	0.264141
2319.000000	0.265338
2320.000000	0.265945
2321.000000	0.269586
2322.000000	0.273432
2323.000000	0.275901
2324.000000	0.279448
2325.000000	0.280186
2326.000000	0.279240
2327.000000	0.279300
2328.000000	0.281211
2329.000000	0.283669
2330.000000	0.284342
2331.000000	0.284828
2332.000000	0.284315
2333.000000	0.283661
2334.000000	0.282879
2335.000000	0.283278
2336.000000	0.285841
2337.000000	0.285466
2338.000000	0.283802
2339.000000	0.282490
2340.000000	0.279264
2341.000000	0.277667
2342.000000	0.276713
2343.000000	0.275812
2344.000000	0.275979
2345.000000	0.273834
2346.000000	0.271197
2347.000000	0.269870
2348.000000	0.267026
2349.000000	0.266478
2350.000000	0.268783
2351.000000	0.268487
2352.000000	0.268791
2353.000000	0.266028
2354.000000	0.264333
2355.000000	0.264158
2356.000000	0.261596
2357.000000	0.262900
2358.000000	0.261953
2359.000000	0.258326
2360.000000	0.255839
2361.000000	0.254001
2362.000000	0.252498
2363.000000	0.249321
2364.000000	0.248658
2365.000000	0.248844
2366.000000	0.247249
2367.000000	0.245532
2368.000000	0.244234
2369.000000	0.242645
2370.000000	0.240482
2371.000000	0.240317
2372.000000	0.240702
2373.000000	0.241010
2374.000000	0.241155
2375.000000	0.240860
2376.000000	0.241228
2377.000000	0.237771
2378.000000	0.234736
2379.000000	0.236241
2380.000000	0.232386
2381.000000	0.228892
2382.000000	0.226197
2383.000000	0.216919
2384.000000	0.211612
2385.000000	0.212327
2386.000000	0.212809
2387.000000	0.217146
2388.000000	0.221183
2389.000000	0.219695
2390.000000	0.221156
2391.000000	0.218412
2392.000000	0.214131
2393.000000	0.213542
2394.000000	0.209944
2395.000000	0.211802
2396.000000	0.215143
2397.000000	0.211844
2398.000000	0.209462
2399.000000	0.203868
2400.000000	0.195811
2401.000000	0.195197
2402.000000	0.195626
2403.000000	0.203297
2404.000000	0.214859
2405.000000	0.220057
2406.000000	0.224562
2407.000000	0.223990
2408.000000	0.220811
2409.000000	0.217230
2410.000000	0.214819
2411.000000	0.209492
2412.000000	0.198991
2413.000000	0.197698
2414.000000	0.197422
2415.000000	0.194169
2416.000000	0.201566
2417.000000	0.212153
2418.000000	0.217155
2419.000000	0.220222
2420.000000	0.214415
2421.000000	0.194104
2422.000000	0.176939
2423.000000	0.178793
2424.000000	0.188489
2425.000000	0.198059
2426.000000	0.209740
2427.000000	0.210996
2428.000000	0.205904
2429.000000	0.202040
2430.000000	0.201642
2431.000000	0.199205
2432.000000	0.189057
2433.000000	0.184634
2434.000000	0.182159
2435.000000	0.182468
2436.000000	0.189449
2437.000000	0.195053
2438.000000	0.196589
2439.000000	0.194338
2440.000000	0.188073
2441.000000	0.184260
2442.000000	0.186570
2443.000000	0.182086
2444.000000	0.187070
2445.000000	0.192832
2446.000000	0.180851
2447.000000	0.183863
2448.000000	0.190210
2449.000000	0.184884
2450.000000	0.188243
2451.000000	0.182296
2452.000000	0.165107
2453.000000	0.156856
2454.000000	0.152878
2455.000000	0.149301
2456.000000	0.150368
2457.000000	0.165288
2458.000000	0.167736
2459.000000	0.162827
2460.000000	0.154562
2461.000000	0.125618
2462.000000	0.109258
2463.000000	0.114283
2464.000000	0.136605
2465.000000	0.154553
2466.000000	0.166249
2467.000000	0.183231
2468.000000	0.179207
2469.000000	0.171898
2470.000000	0.178810
2471.000000	0.165519
2472.000000	0.148643
2473.000000	0.147764
2474.000000	0.142676
2475.000000	0.135320
2476.000000	0.142946
2477.000000	0.174156
2478.000000	0.202375
2479.000000	0.226091
2480.000000	0.225912
2481.000000	0.221455
2482.000000	0.224479
2483.000000	0.203620
2484.000000	0.197086
2485.000000	0.154368
2486.000000	0.080977
2487.000000	0.057288
2488.000000	0.064600
2489.000000	0.103007
2490.000000	0.156036
2491.000000	0.193388
2492.000000	0.205957
2493.000000	0.204684
2494.000000	0.199725
2495.000000	0.170755
2496.000000	0.154725
2497.000000	0.139774
2498.000000	0.112039
2499.000000	0.057714
2500.000000	0.043025
