# Wavelength	SM1200H-10_HEX-50_FV7-40_00000.asd.rts.txt
350.000000	0.234401
351.000000	0.214227
352.000000	0.223533
353.000000	0.238270
354.000000	0.244610
355.000000	0.244882
356.000000	0.239161
357.000000	0.232432
358.000000	0.230351
359.000000	0.227716
360.000000	0.228083
361.000000	0.234437
362.000000	0.236405
363.000000	0.235428
364.000000	0.233627
365.000000	0.233804
366.000000	0.236012
367.000000	0.238485
368.000000	0.238273
369.000000	0.235015
370.000000	0.234606
371.000000	0.242520
372.000000	0.243989
373.000000	0.242523
374.000000	0.242302
375.000000	0.241612
376.000000	0.243733
377.000000	0.247553
378.000000	0.248252
379.000000	0.244241
380.000000	0.241074
381.000000	0.245458
382.000000	0.241615
383.000000	0.238931
384.000000	0.244083
385.000000	0.248794
386.000000	0.250877
387.000000	0.250216
388.000000	0.247949
389.000000	0.249070
390.000000	0.251507
391.000000	0.250821
392.000000	0.252323
393.000000	0.253797
394.000000	0.253297
395.000000	0.252654
396.000000	0.253974
397.000000	0.256654
398.000000	0.256640
399.000000	0.256391
400.000000	0.257013
401.000000	0.258892
402.000000	0.259426
403.000000	0.259140
404.000000	0.259040
405.000000	0.258498
406.000000	0.259154
407.000000	0.260998
408.000000	0.261132
409.000000	0.260363
410.000000	0.259799
411.000000	0.260827
412.000000	0.261682
413.000000	0.262035
414.000000	0.261993
415.000000	0.261746
416.000000	0.261913
417.000000	0.262754
418.000000	0.263946
419.000000	0.264520
420.000000	0.264353
421.000000	0.263976
422.000000	0.264363
423.000000	0.265234
424.000000	0.265931
425.000000	0.265954
426.000000	0.265829
427.000000	0.266045
428.000000	0.266748
429.000000	0.266972
430.000000	0.266744
431.000000	0.267438
432.000000	0.267907
433.000000	0.268010
434.000000	0.268135
435.000000	0.268341
436.000000	0.268430
437.000000	0.268313
438.000000	0.268794
439.000000	0.269194
440.000000	0.269265
441.000000	0.269234
442.000000	0.269626
443.000000	0.270216
444.000000	0.270394
445.000000	0.270518
446.000000	0.270633
447.000000	0.270562
448.000000	0.270715
449.000000	0.271034
450.000000	0.271442
451.000000	0.271919
452.000000	0.272435
453.000000	0.272888
454.000000	0.273337
455.000000	0.273549
456.000000	0.273712
457.000000	0.273997
458.000000	0.274508
459.000000	0.274976
460.000000	0.275207
461.000000	0.275216
462.000000	0.275559
463.000000	0.276152
464.000000	0.276340
465.000000	0.276363
466.000000	0.276479
467.000000	0.277149
468.000000	0.277249
469.000000	0.277120
470.000000	0.277536
471.000000	0.277803
472.000000	0.277997
473.000000	0.278211
474.000000	0.278256
475.000000	0.278186
476.000000	0.278294
477.000000	0.278813
478.000000	0.279064
479.000000	0.279271
480.000000	0.279615
481.000000	0.279880
482.000000	0.280113
483.000000	0.280199
484.000000	0.280530
485.000000	0.280686
486.000000	0.280761
487.000000	0.281217
488.000000	0.281533
489.000000	0.281765
490.000000	0.282319
491.000000	0.282558
492.000000	0.282697
493.000000	0.282981
494.000000	0.283321
495.000000	0.283631
496.000000	0.283828
497.000000	0.284014
498.000000	0.284308
499.000000	0.284738
500.000000	0.285012
501.000000	0.285248
502.000000	0.285509
503.000000	0.285748
504.000000	0.286090
505.000000	0.286453
506.000000	0.286744
507.000000	0.286984
508.000000	0.287260
509.000000	0.287579
510.000000	0.287977
511.000000	0.288210
512.000000	0.288363
513.000000	0.288733
514.000000	0.289112
515.000000	0.289481
516.000000	0.289802
517.000000	0.290158
518.000000	0.290492
519.000000	0.290705
520.000000	0.291053
521.000000	0.291435
522.000000	0.291788
523.000000	0.292076
524.000000	0.292308
525.000000	0.292527
526.000000	0.292847
527.000000	0.293167
528.000000	0.293457
529.000000	0.293760
530.000000	0.294059
531.000000	0.294377
532.000000	0.294641
533.000000	0.294907
534.000000	0.295219
535.000000	0.295537
536.000000	0.295769
537.000000	0.296060
538.000000	0.296359
539.000000	0.296551
540.000000	0.296924
541.000000	0.297314
542.000000	0.297588
543.000000	0.297856
544.000000	0.298153
545.000000	0.298410
546.000000	0.298598
547.000000	0.298948
548.000000	0.299416
549.000000	0.299655
550.000000	0.299928
551.000000	0.300259
552.000000	0.300549
553.000000	0.300803
554.000000	0.301138
555.000000	0.301603
556.000000	0.301995
557.000000	0.302273
558.000000	0.302579
559.000000	0.302898
560.000000	0.303265
561.000000	0.303701
562.000000	0.304052
563.000000	0.304294
564.000000	0.304564
565.000000	0.304887
566.000000	0.305283
567.000000	0.305623
568.000000	0.305863
569.000000	0.306265
570.000000	0.306588
571.000000	0.306831
572.000000	0.307230
573.000000	0.307625
574.000000	0.307950
575.000000	0.308242
576.000000	0.308581
577.000000	0.308895
578.000000	0.309194
579.000000	0.309542
580.000000	0.309835
581.000000	0.310052
582.000000	0.310319
583.000000	0.310636
584.000000	0.310968
585.000000	0.311248
586.000000	0.311545
587.000000	0.311842
588.000000	0.312115
589.000000	0.312427
590.000000	0.312693
591.000000	0.312890
592.000000	0.313189
593.000000	0.313531
594.000000	0.313860
595.000000	0.314112
596.000000	0.314315
597.000000	0.314509
598.000000	0.314638
599.000000	0.314798
600.000000	0.315054
601.000000	0.315339
602.000000	0.315562
603.000000	0.315765
604.000000	0.315980
605.000000	0.316178
606.000000	0.316333
607.000000	0.316495
608.000000	0.316755
609.000000	0.316966
610.000000	0.317154
611.000000	0.317376
612.000000	0.317551
613.000000	0.317696
614.000000	0.317871
615.000000	0.318051
616.000000	0.318212
617.000000	0.318348
618.000000	0.318596
619.000000	0.318804
620.000000	0.318927
621.000000	0.319027
622.000000	0.319155
623.000000	0.319289
624.000000	0.319395
625.000000	0.319448
626.000000	0.319569
627.000000	0.319769
628.000000	0.319855
629.000000	0.320068
630.000000	0.320247
631.000000	0.320328
632.000000	0.320441
633.000000	0.320618
634.000000	0.320830
635.000000	0.320979
636.000000	0.321125
637.000000	0.321298
638.000000	0.321510
639.000000	0.321714
640.000000	0.321933
641.000000	0.322068
642.000000	0.322271
643.000000	0.322481
644.000000	0.322589
645.000000	0.322695
646.000000	0.322815
647.000000	0.322932
648.000000	0.323094
649.000000	0.323281
650.000000	0.323455
651.000000	0.323612
652.000000	0.323771
653.000000	0.323960
654.000000	0.324120
655.000000	0.324298
656.000000	0.324519
657.000000	0.324729
658.000000	0.324907
659.000000	0.325069
660.000000	0.325211
661.000000	0.325350
662.000000	0.325508
663.000000	0.325729
664.000000	0.325954
665.000000	0.326113
666.000000	0.326258
667.000000	0.326421
668.000000	0.326567
669.000000	0.326696
670.000000	0.326829
671.000000	0.327002
672.000000	0.327208
673.000000	0.327414
674.000000	0.327577
675.000000	0.327736
676.000000	0.327882
677.000000	0.328015
678.000000	0.328163
679.000000	0.328310
680.000000	0.328454
681.000000	0.328585
682.000000	0.328748
683.000000	0.328882
684.000000	0.329064
685.000000	0.329215
686.000000	0.329374
687.000000	0.329555
688.000000	0.329753
689.000000	0.329900
690.000000	0.330006
691.000000	0.330190
692.000000	0.330351
693.000000	0.330509
694.000000	0.330619
695.000000	0.330780
696.000000	0.330975
697.000000	0.331148
698.000000	0.331341
699.000000	0.331538
700.000000	0.331723
701.000000	0.331877
702.000000	0.332059
703.000000	0.332255
704.000000	0.332408
705.000000	0.332570
706.000000	0.332715
707.000000	0.332883
708.000000	0.333039
709.000000	0.333189
710.000000	0.333355
711.000000	0.333452
712.000000	0.333565
713.000000	0.333748
714.000000	0.333959
715.000000	0.334148
716.000000	0.334340
717.000000	0.334562
718.000000	0.334753
719.000000	0.334913
720.000000	0.335058
721.000000	0.335147
722.000000	0.335225
723.000000	0.335369
724.000000	0.335505
725.000000	0.335595
726.000000	0.335727
727.000000	0.335861
728.000000	0.335968
729.000000	0.336084
730.000000	0.336185
731.000000	0.336283
732.000000	0.336406
733.000000	0.336574
734.000000	0.336668
735.000000	0.336748
736.000000	0.336925
737.000000	0.337043
738.000000	0.337088
739.000000	0.337205
740.000000	0.337306
741.000000	0.337411
742.000000	0.337547
743.000000	0.337676
744.000000	0.337793
745.000000	0.337889
746.000000	0.338013
747.000000	0.338116
748.000000	0.338192
749.000000	0.338280
750.000000	0.338376
751.000000	0.338508
752.000000	0.338606
753.000000	0.338665
754.000000	0.338716
755.000000	0.338775
756.000000	0.338849
757.000000	0.338893
758.000000	0.338948
759.000000	0.339045
760.000000	0.339121
761.000000	0.339234
762.000000	0.339312
763.000000	0.339334
764.000000	0.339398
765.000000	0.339435
766.000000	0.339490
767.000000	0.339593
768.000000	0.339667
769.000000	0.339698
770.000000	0.339718
771.000000	0.339811
772.000000	0.339939
773.000000	0.340022
774.000000	0.340108
775.000000	0.340179
776.000000	0.340260
777.000000	0.340349
778.000000	0.340446
779.000000	0.340537
780.000000	0.340605
781.000000	0.340597
782.000000	0.340563
783.000000	0.340600
784.000000	0.340611
785.000000	0.340667
786.000000	0.340724
787.000000	0.340754
788.000000	0.340785
789.000000	0.340868
790.000000	0.340961
791.000000	0.341026
792.000000	0.341087
793.000000	0.341115
794.000000	0.341113
795.000000	0.341203
796.000000	0.341263
797.000000	0.341262
798.000000	0.341274
799.000000	0.341256
800.000000	0.341227
801.000000	0.341215
802.000000	0.341166
803.000000	0.341187
804.000000	0.341329
805.000000	0.341371
806.000000	0.341358
807.000000	0.341397
808.000000	0.341460
809.000000	0.341484
810.000000	0.341519
811.000000	0.341576
812.000000	0.341547
813.000000	0.341561
814.000000	0.341604
815.000000	0.341559
816.000000	0.341446
817.000000	0.341376
818.000000	0.341373
819.000000	0.341501
820.000000	0.341617
821.000000	0.341590
822.000000	0.341482
823.000000	0.341497
824.000000	0.341532
825.000000	0.341517
826.000000	0.341503
827.000000	0.341428
828.000000	0.341335
829.000000	0.341347
830.000000	0.341345
831.000000	0.341346
832.000000	0.341261
833.000000	0.341231
834.000000	0.341240
835.000000	0.341274
836.000000	0.341254
837.000000	0.341208
838.000000	0.341149
839.000000	0.341035
840.000000	0.340953
841.000000	0.340906
842.000000	0.340828
843.000000	0.340721
844.000000	0.340703
845.000000	0.340748
846.000000	0.340748
847.000000	0.340757
848.000000	0.340763
849.000000	0.340778
850.000000	0.340752
851.000000	0.340670
852.000000	0.340605
853.000000	0.340622
854.000000	0.340512
855.000000	0.340457
856.000000	0.340482
857.000000	0.340246
858.000000	0.340110
859.000000	0.340123
860.000000	0.340028
861.000000	0.340022
862.000000	0.340088
863.000000	0.340050
864.000000	0.339918
865.000000	0.339792
866.000000	0.339747
867.000000	0.339713
868.000000	0.339643
869.000000	0.339531
870.000000	0.339501
871.000000	0.339382
872.000000	0.339233
873.000000	0.339080
874.000000	0.339094
875.000000	0.338980
876.000000	0.338771
877.000000	0.338557
878.000000	0.338328
879.000000	0.338119
880.000000	0.337845
881.000000	0.337760
882.000000	0.337575
883.000000	0.337315
884.000000	0.337070
885.000000	0.336996
886.000000	0.336964
887.000000	0.336873
888.000000	0.336619
889.000000	0.336423
890.000000	0.336187
891.000000	0.335965
892.000000	0.335828
893.000000	0.335690
894.000000	0.335614
895.000000	0.335490
896.000000	0.335321
897.000000	0.335090
898.000000	0.334809
899.000000	0.334630
900.000000	0.334512
901.000000	0.334349
902.000000	0.334106
903.000000	0.334027
904.000000	0.333999
905.000000	0.333775
906.000000	0.333782
907.000000	0.333601
908.000000	0.333253
909.000000	0.333055
910.000000	0.332803
911.000000	0.332632
912.000000	0.332653
913.000000	0.332536
914.000000	0.332286
915.000000	0.332053
916.000000	0.331890
917.000000	0.331553
918.000000	0.331240
919.000000	0.331042
920.000000	0.330656
921.000000	0.330383
922.000000	0.330221
923.000000	0.329984
924.000000	0.329714
925.000000	0.329462
926.000000	0.329273
927.000000	0.329048
928.000000	0.328965
929.000000	0.328849
930.000000	0.328504
931.000000	0.328268
932.000000	0.328065
933.000000	0.327842
934.000000	0.327487
935.000000	0.327184
936.000000	0.326998
937.000000	0.326807
938.000000	0.326482
939.000000	0.326373
940.000000	0.326364
941.000000	0.326237
942.000000	0.326040
943.000000	0.325787
944.000000	0.325386
945.000000	0.325013
946.000000	0.324731
947.000000	0.324521
948.000000	0.324273
949.000000	0.324096
950.000000	0.323890
951.000000	0.323636
952.000000	0.323525
953.000000	0.323267
954.000000	0.322940
955.000000	0.322605
956.000000	0.322392
957.000000	0.322229
958.000000	0.322031
959.000000	0.321828
960.000000	0.321408
961.000000	0.321040
962.000000	0.320789
963.000000	0.320511
964.000000	0.320271
965.000000	0.320111
966.000000	0.319888
967.000000	0.319513
968.000000	0.319267
969.000000	0.319064
970.000000	0.318817
971.000000	0.318838
972.000000	0.318638
973.000000	0.318149
974.000000	0.318067
975.000000	0.317739
976.000000	0.317434
977.000000	0.317371
978.000000	0.317070
979.000000	0.316894
980.000000	0.316722
981.000000	0.316690
982.000000	0.316343
983.000000	0.315994
984.000000	0.315825
985.000000	0.315636
986.000000	0.315355
987.000000	0.315222
988.000000	0.315171
989.000000	0.314739
990.000000	0.314546
991.000000	0.314415
992.000000	0.314142
993.000000	0.314595
994.000000	0.314461
995.000000	0.313979
996.000000	0.314053
997.000000	0.313909
998.000000	0.313603
999.000000	0.313452
1000.000000	0.313696
1001.000000	0.314518
1002.000000	0.313262
1003.000000	0.312971
1004.000000	0.312581
1005.000000	0.311736
1006.000000	0.311182
1007.000000	0.311372
1008.000000	0.310760
1009.000000	0.310131
1010.000000	0.310103
1011.000000	0.310252
1012.000000	0.310718
1013.000000	0.310582
1014.000000	0.310402
1015.000000	0.310889
1016.000000	0.311132
1017.000000	0.311149
1018.000000	0.311144
1019.000000	0.310982
1020.000000	0.310486
1021.000000	0.310135
1022.000000	0.309977
1023.000000	0.309989
1024.000000	0.309891
1025.000000	0.310069
1026.000000	0.310670
1027.000000	0.310879
1028.000000	0.311110
1029.000000	0.311781
1030.000000	0.311455
1031.000000	0.310909
1032.000000	0.311349
1033.000000	0.311399
1034.000000	0.311298
1035.000000	0.311499
1036.000000	0.311449
1037.000000	0.310564
1038.000000	0.310350
1039.000000	0.310575
1040.000000	0.311020
1041.000000	0.310760
1042.000000	0.310623
1043.000000	0.310602
1044.000000	0.310439
1045.000000	0.310985
1046.000000	0.311022
1047.000000	0.311165
1048.000000	0.310974
1049.000000	0.311291
1050.000000	0.312148
1051.000000	0.312577
1052.000000	0.312869
1053.000000	0.312976
1054.000000	0.312855
1055.000000	0.312889
1056.000000	0.312811
1057.000000	0.313473
1058.000000	0.313610
1059.000000	0.313235
1060.000000	0.313326
1061.000000	0.313519
1062.000000	0.313656
1063.000000	0.313900
1064.000000	0.314098
1065.000000	0.314147
1066.000000	0.314314
1067.000000	0.314503
1068.000000	0.314734
1069.000000	0.314909
1070.000000	0.315064
1071.000000	0.315230
1072.000000	0.315619
1073.000000	0.316278
1074.000000	0.316897
1075.000000	0.317127
1076.000000	0.317223
1077.000000	0.317137
1078.000000	0.316590
1079.000000	0.316370
1080.000000	0.316199
1081.000000	0.316315
1082.000000	0.316785
1083.000000	0.316968
1084.000000	0.317289
1085.000000	0.317655
1086.000000	0.317812
1087.000000	0.318043
1088.000000	0.318490
1089.000000	0.318715
1090.000000	0.318653
1091.000000	0.318560
1092.000000	0.318982
1093.000000	0.319475
1094.000000	0.319630
1095.000000	0.319696
1096.000000	0.319927
1097.000000	0.319821
1098.000000	0.320212
1099.000000	0.321159
1100.000000	0.321621
1101.000000	0.322187
1102.000000	0.322222
1103.000000	0.321411
1104.000000	0.321392
1105.000000	0.321449
1106.000000	0.321529
1107.000000	0.322182
1108.000000	0.322494
1109.000000	0.322561
1110.000000	0.322555
1111.000000	0.322793
1112.000000	0.323139
1113.000000	0.323422
1114.000000	0.323783
1115.000000	0.324149
1116.000000	0.324617
1117.000000	0.324783
1118.000000	0.324829
1119.000000	0.324879
1120.000000	0.324709
1121.000000	0.324596
1122.000000	0.324626
1123.000000	0.324827
1124.000000	0.324701
1125.000000	0.324803
1126.000000	0.325110
1127.000000	0.325293
1128.000000	0.325456
1129.000000	0.325662
1130.000000	0.325866
1131.000000	0.326088
1132.000000	0.326174
1133.000000	0.326278
1134.000000	0.326384
1135.000000	0.326337
1136.000000	0.326326
1137.000000	0.326321
1138.000000	0.326341
1139.000000	0.326442
1140.000000	0.326565
1141.000000	0.326651
1142.000000	0.326807
1143.000000	0.326922
1144.000000	0.327144
1145.000000	0.327322
1146.000000	0.327420
1147.000000	0.327512
1148.000000	0.327412
1149.000000	0.327522
1150.000000	0.327804
1151.000000	0.327850
1152.000000	0.327795
1153.000000	0.327795
1154.000000	0.327674
1155.000000	0.327535
1156.000000	0.327316
1157.000000	0.327315
1158.000000	0.327350
1159.000000	0.327311
1160.000000	0.327416
1161.000000	0.327467
1162.000000	0.327386
1163.000000	0.327516
1164.000000	0.327657
1165.000000	0.327692
1166.000000	0.327756
1167.000000	0.327780
1168.000000	0.327630
1169.000000	0.327383
1170.000000	0.327313
1171.000000	0.327166
1172.000000	0.327207
1173.000000	0.327471
1174.000000	0.327592
1175.000000	0.327677
1176.000000	0.327703
1177.000000	0.327832
1178.000000	0.327838
1179.000000	0.327666
1180.000000	0.327553
1181.000000	0.327488
1182.000000	0.327441
1183.000000	0.327403
1184.000000	0.327487
1185.000000	0.327505
1186.000000	0.327437
1187.000000	0.327505
1188.000000	0.327680
1189.000000	0.327719
1190.000000	0.327860
1191.000000	0.327885
1192.000000	0.327864
1193.000000	0.327954
1194.000000	0.327947
1195.000000	0.327920
1196.000000	0.327832
1197.000000	0.327783
1198.000000	0.327686
1199.000000	0.327698
1200.000000	0.327862
1201.000000	0.327891
1202.000000	0.327750
1203.000000	0.327668
1204.000000	0.327463
1205.000000	0.327246
1206.000000	0.327163
1207.000000	0.327382
1208.000000	0.327338
1209.000000	0.327282
1210.000000	0.327243
1211.000000	0.327087
1212.000000	0.327086
1213.000000	0.327242
1214.000000	0.327364
1215.000000	0.327621
1216.000000	0.327650
1217.000000	0.327471
1218.000000	0.327389
1219.000000	0.327264
1220.000000	0.327173
1221.000000	0.327174
1222.000000	0.327201
1223.000000	0.327123
1224.000000	0.326961
1225.000000	0.326859
1226.000000	0.326810
1227.000000	0.326776
1228.000000	0.326902
1229.000000	0.326831
1230.000000	0.326614
1231.000000	0.326501
1232.000000	0.326417
1233.000000	0.326498
1234.000000	0.326794
1235.000000	0.326891
1236.000000	0.326844
1237.000000	0.326898
1238.000000	0.326856
1239.000000	0.326812
1240.000000	0.326805
1241.000000	0.326814
1242.000000	0.326724
1243.000000	0.326803
1244.000000	0.326837
1245.000000	0.326924
1246.000000	0.326934
1247.000000	0.326787
1248.000000	0.326712
1249.000000	0.326743
1250.000000	0.326768
1251.000000	0.326871
1252.000000	0.326953
1253.000000	0.327132
1254.000000	0.327106
1255.000000	0.326975
1256.000000	0.326918
1257.000000	0.326763
1258.000000	0.326737
1259.000000	0.326794
1260.000000	0.326836
1261.000000	0.326820
1262.000000	0.326813
1263.000000	0.326841
1264.000000	0.326815
1265.000000	0.326898
1266.000000	0.326882
1267.000000	0.326773
1268.000000	0.326743
1269.000000	0.326676
1270.000000	0.326691
1271.000000	0.326768
1272.000000	0.326840
1273.000000	0.326848
1274.000000	0.326809
1275.000000	0.326790
1276.000000	0.326808
1277.000000	0.326881
1278.000000	0.326898
1279.000000	0.326859
1280.000000	0.326776
1281.000000	0.326674
1282.000000	0.326500
1283.000000	0.326536
1284.000000	0.326621
1285.000000	0.326655
1286.000000	0.326739
1287.000000	0.326770
1288.000000	0.326772
1289.000000	0.326788
1290.000000	0.326664
1291.000000	0.326622
1292.000000	0.326650
1293.000000	0.326516
1294.000000	0.326476
1295.000000	0.326594
1296.000000	0.326486
1297.000000	0.326493
1298.000000	0.326686
1299.000000	0.326577
1300.000000	0.326459
1301.000000	0.326411
1302.000000	0.326291
1303.000000	0.326166
1304.000000	0.326072
1305.000000	0.326116
1306.000000	0.326124
1307.000000	0.326184
1308.000000	0.326219
1309.000000	0.326256
1310.000000	0.326233
1311.000000	0.326165
1312.000000	0.326108
1313.000000	0.326056
1314.000000	0.326180
1315.000000	0.326138
1316.000000	0.326043
1317.000000	0.325955
1318.000000	0.325806
1319.000000	0.325715
1320.000000	0.325621
1321.000000	0.325472
1322.000000	0.325282
1323.000000	0.325094
1324.000000	0.324992
1325.000000	0.324929
1326.000000	0.324885
1327.000000	0.324905
1328.000000	0.324921
1329.000000	0.324773
1330.000000	0.324495
1331.000000	0.324329
1332.000000	0.324200
1333.000000	0.324013
1334.000000	0.323916
1335.000000	0.323839
1336.000000	0.323639
1337.000000	0.323538
1338.000000	0.323521
1339.000000	0.323406
1340.000000	0.323301
1341.000000	0.323119
1342.000000	0.322921
1343.000000	0.322696
1344.000000	0.322522
1345.000000	0.322513
1346.000000	0.322518
1347.000000	0.322376
1348.000000	0.322245
1349.000000	0.321897
1350.000000	0.321601
1351.000000	0.321541
1352.000000	0.321283
1353.000000	0.321058
1354.000000	0.321012
1355.000000	0.320744
1356.000000	0.320585
1357.000000	0.320547
1358.000000	0.320392
1359.000000	0.320163
1360.000000	0.320051
1361.000000	0.320171
1362.000000	0.320012
1363.000000	0.319685
1364.000000	0.319549
1365.000000	0.319282
1366.000000	0.319150
1367.000000	0.319161
1368.000000	0.319232
1369.000000	0.319225
1370.000000	0.319071
1371.000000	0.318856
1372.000000	0.318510
1373.000000	0.318245
1374.000000	0.318198
1375.000000	0.318025
1376.000000	0.317858
1377.000000	0.317725
1378.000000	0.317320
1379.000000	0.316857
1380.000000	0.316504
1381.000000	0.315948
1382.000000	0.315312
1383.000000	0.314706
1384.000000	0.314030
1385.000000	0.313381
1386.000000	0.312777
1387.000000	0.312209
1388.000000	0.311632
1389.000000	0.311197
1390.000000	0.310920
1391.000000	0.310640
1392.000000	0.310528
1393.000000	0.310228
1394.000000	0.309783
1395.000000	0.309466
1396.000000	0.309135
1397.000000	0.308784
1398.000000	0.308544
1399.000000	0.308198
1400.000000	0.307805
1401.000000	0.307237
1402.000000	0.306607
1403.000000	0.305868
1404.000000	0.305230
1405.000000	0.304535
1406.000000	0.303744
1407.000000	0.303074
1408.000000	0.302246
1409.000000	0.301488
1410.000000	0.300968
1411.000000	0.300310
1412.000000	0.299493
1413.000000	0.298680
1414.000000	0.297888
1415.000000	0.297009
1416.000000	0.296137
1417.000000	0.295415
1418.000000	0.294623
1419.000000	0.293916
1420.000000	0.293219
1421.000000	0.292483
1422.000000	0.291703
1423.000000	0.291021
1424.000000	0.290370
1425.000000	0.289704
1426.000000	0.289017
1427.000000	0.288414
1428.000000	0.287855
1429.000000	0.287346
1430.000000	0.286860
1431.000000	0.286345
1432.000000	0.285809
1433.000000	0.285306
1434.000000	0.284684
1435.000000	0.284029
1436.000000	0.283469
1437.000000	0.282871
1438.000000	0.282358
1439.000000	0.282019
1440.000000	0.281598
1441.000000	0.281170
1442.000000	0.280748
1443.000000	0.280284
1444.000000	0.279753
1445.000000	0.279334
1446.000000	0.278937
1447.000000	0.278423
1448.000000	0.278077
1449.000000	0.277759
1450.000000	0.277294
1451.000000	0.277069
1452.000000	0.276907
1453.000000	0.276564
1454.000000	0.276274
1455.000000	0.275989
1456.000000	0.275674
1457.000000	0.275494
1458.000000	0.275395
1459.000000	0.275231
1460.000000	0.275105
1461.000000	0.274993
1462.000000	0.274811
1463.000000	0.274670
1464.000000	0.274541
1465.000000	0.274442
1466.000000	0.274351
1467.000000	0.274271
1468.000000	0.274255
1469.000000	0.274249
1470.000000	0.274274
1471.000000	0.274382
1472.000000	0.274424
1473.000000	0.274559
1474.000000	0.274625
1475.000000	0.274773
1476.000000	0.275058
1477.000000	0.275209
1478.000000	0.275308
1479.000000	0.275400
1480.000000	0.275524
1481.000000	0.275666
1482.000000	0.275920
1483.000000	0.276214
1484.000000	0.276547
1485.000000	0.276777
1486.000000	0.276976
1487.000000	0.277249
1488.000000	0.277485
1489.000000	0.277794
1490.000000	0.278181
1491.000000	0.278501
1492.000000	0.278681
1493.000000	0.278927
1494.000000	0.279162
1495.000000	0.279389
1496.000000	0.279576
1497.000000	0.279895
1498.000000	0.280375
1499.000000	0.280605
1500.000000	0.280892
1501.000000	0.281231
1502.000000	0.281301
1503.000000	0.281461
1504.000000	0.281676
1505.000000	0.281812
1506.000000	0.282099
1507.000000	0.282347
1508.000000	0.282547
1509.000000	0.282820
1510.000000	0.282934
1511.000000	0.283021
1512.000000	0.283159
1513.000000	0.283285
1514.000000	0.283563
1515.000000	0.283832
1516.000000	0.284032
1517.000000	0.284094
1518.000000	0.284102
1519.000000	0.284150
1520.000000	0.284176
1521.000000	0.284265
1522.000000	0.284466
1523.000000	0.284633
1524.000000	0.284760
1525.000000	0.284916
1526.000000	0.285038
1527.000000	0.285125
1528.000000	0.285304
1529.000000	0.285467
1530.000000	0.285425
1531.000000	0.285454
1532.000000	0.285517
1533.000000	0.285504
1534.000000	0.285557
1535.000000	0.285645
1536.000000	0.285650
1537.000000	0.285754
1538.000000	0.285902
1539.000000	0.285853
1540.000000	0.285821
1541.000000	0.285896
1542.000000	0.285915
1543.000000	0.286010
1544.000000	0.286171
1545.000000	0.286275
1546.000000	0.286343
1547.000000	0.286415
1548.000000	0.286398
1549.000000	0.286290
1550.000000	0.286187
1551.000000	0.286117
1552.000000	0.286176
1553.000000	0.286226
1554.000000	0.286275
1555.000000	0.286422
1556.000000	0.286413
1557.000000	0.286325
1558.000000	0.286314
1559.000000	0.286207
1560.000000	0.286203
1561.000000	0.286368
1562.000000	0.286381
1563.000000	0.286372
1564.000000	0.286377
1565.000000	0.286339
1566.000000	0.286214
1567.000000	0.286156
1568.000000	0.286171
1569.000000	0.286212
1570.000000	0.286246
1571.000000	0.286341
1572.000000	0.286395
1573.000000	0.286421
1574.000000	0.286392
1575.000000	0.286386
1576.000000	0.286409
1577.000000	0.286330
1578.000000	0.286316
1579.000000	0.286468
1580.000000	0.286483
1581.000000	0.286505
1582.000000	0.286503
1583.000000	0.286452
1584.000000	0.286383
1585.000000	0.286327
1586.000000	0.286287
1587.000000	0.286246
1588.000000	0.286227
1589.000000	0.286272
1590.000000	0.286215
1591.000000	0.286107
1592.000000	0.286093
1593.000000	0.286084
1594.000000	0.286103
1595.000000	0.286268
1596.000000	0.286371
1597.000000	0.286470
1598.000000	0.286481
1599.000000	0.286522
1600.000000	0.286504
1601.000000	0.286378
1602.000000	0.286436
1603.000000	0.286664
1604.000000	0.286715
1605.000000	0.286810
1606.000000	0.286819
1607.000000	0.286666
1608.000000	0.286695
1609.000000	0.286917
1610.000000	0.286938
1611.000000	0.286956
1612.000000	0.286980
1613.000000	0.286926
1614.000000	0.286981
1615.000000	0.287247
1616.000000	0.287393
1617.000000	0.287425
1618.000000	0.287496
1619.000000	0.287543
1620.000000	0.287611
1621.000000	0.287701
1622.000000	0.287884
1623.000000	0.288131
1624.000000	0.288252
1625.000000	0.288229
1626.000000	0.288272
1627.000000	0.288271
1628.000000	0.288342
1629.000000	0.288497
1630.000000	0.288617
1631.000000	0.288595
1632.000000	0.288716
1633.000000	0.289008
1634.000000	0.289116
1635.000000	0.289200
1636.000000	0.289326
1637.000000	0.289382
1638.000000	0.289468
1639.000000	0.289762
1640.000000	0.289861
1641.000000	0.289792
1642.000000	0.289863
1643.000000	0.290031
1644.000000	0.290120
1645.000000	0.290241
1646.000000	0.290315
1647.000000	0.290289
1648.000000	0.290313
1649.000000	0.290479
1650.000000	0.290615
1651.000000	0.290792
1652.000000	0.290980
1653.000000	0.291091
1654.000000	0.291311
1655.000000	0.291554
1656.000000	0.291680
1657.000000	0.291872
1658.000000	0.292047
1659.000000	0.292292
1660.000000	0.292441
1661.000000	0.292523
1662.000000	0.292572
1663.000000	0.292436
1664.000000	0.292411
1665.000000	0.292400
1666.000000	0.292549
1667.000000	0.292692
1668.000000	0.292837
1669.000000	0.293097
1670.000000	0.293239
1671.000000	0.293424
1672.000000	0.293561
1673.000000	0.293619
1674.000000	0.293683
1675.000000	0.293795
1676.000000	0.293924
1677.000000	0.294123
1678.000000	0.294229
1679.000000	0.294307
1680.000000	0.294454
1681.000000	0.294562
1682.000000	0.294702
1683.000000	0.294762
1684.000000	0.294673
1685.000000	0.294658
1686.000000	0.294622
1687.000000	0.294771
1688.000000	0.294959
1689.000000	0.295024
1690.000000	0.294945
1691.000000	0.294855
1692.000000	0.294834
1693.000000	0.294865
1694.000000	0.294995
1695.000000	0.295132
1696.000000	0.295198
1697.000000	0.295181
1698.000000	0.295181
1699.000000	0.295176
1700.000000	0.295009
1701.000000	0.295051
1702.000000	0.295065
1703.000000	0.295053
1704.000000	0.295211
1705.000000	0.295339
1706.000000	0.295489
1707.000000	0.295585
1708.000000	0.295645
1709.000000	0.295663
1710.000000	0.295677
1711.000000	0.295763
1712.000000	0.295907
1713.000000	0.296023
1714.000000	0.296202
1715.000000	0.296346
1716.000000	0.296525
1717.000000	0.296613
1718.000000	0.296517
1719.000000	0.296636
1720.000000	0.296993
1721.000000	0.297051
1722.000000	0.297040
1723.000000	0.297119
1724.000000	0.297000
1725.000000	0.297066
1726.000000	0.297380
1727.000000	0.297429
1728.000000	0.297215
1729.000000	0.297135
1730.000000	0.297147
1731.000000	0.297187
1732.000000	0.297393
1733.000000	0.297419
1734.000000	0.297159
1735.000000	0.297196
1736.000000	0.297241
1737.000000	0.297287
1738.000000	0.297574
1739.000000	0.297605
1740.000000	0.297393
1741.000000	0.297406
1742.000000	0.297448
1743.000000	0.297624
1744.000000	0.297971
1745.000000	0.298018
1746.000000	0.297973
1747.000000	0.298019
1748.000000	0.298013
1749.000000	0.298148
1750.000000	0.298243
1751.000000	0.298403
1752.000000	0.298554
1753.000000	0.298574
1754.000000	0.298645
1755.000000	0.298508
1756.000000	0.298582
1757.000000	0.298952
1758.000000	0.299142
1759.000000	0.299336
1760.000000	0.299479
1761.000000	0.299468
1762.000000	0.299438
1763.000000	0.299419
1764.000000	0.299389
1765.000000	0.299164
1766.000000	0.299158
1767.000000	0.299281
1768.000000	0.299228
1769.000000	0.299275
1770.000000	0.299315
1771.000000	0.299186
1772.000000	0.299127
1773.000000	0.299045
1774.000000	0.299104
1775.000000	0.299286
1776.000000	0.299404
1777.000000	0.299560
1778.000000	0.299749
1779.000000	0.299864
1780.000000	0.300073
1781.000000	0.300429
1782.000000	0.300630
1783.000000	0.300763
1784.000000	0.301092
1785.000000	0.301251
1786.000000	0.301159
1787.000000	0.301321
1788.000000	0.301570
1789.000000	0.301564
1790.000000	0.301751
1791.000000	0.301833
1792.000000	0.301729
1793.000000	0.301757
1794.000000	0.301948
1795.000000	0.302075
1796.000000	0.302185
1797.000000	0.302280
1798.000000	0.302401
1799.000000	0.302393
1800.000000	0.302216
1801.000000	0.302242
1802.000000	0.302323
1803.000000	0.302445
1804.000000	0.302321
1805.000000	0.302461
1806.000000	0.302290
1807.000000	0.301193
1808.000000	0.300801
1809.000000	0.300559
1810.000000	0.301050
1811.000000	0.300869
1812.000000	0.300541
1813.000000	0.300665
1814.000000	0.300781
1815.000000	0.300886
1816.000000	0.301644
1817.000000	0.301762
1818.000000	0.301573
1819.000000	0.301241
1820.000000	0.300987
1821.000000	0.300637
1822.000000	0.300632
1823.000000	0.300764
1824.000000	0.300884
1825.000000	0.301158
1826.000000	0.301456
1827.000000	0.302005
1828.000000	0.301866
1829.000000	0.301623
1830.000000	0.301713
1831.000000	0.301282
1832.000000	0.300029
1833.000000	0.299860
1834.000000	0.300070
1835.000000	0.300019
1836.000000	0.300190
1837.000000	0.300467
1838.000000	0.300876
1839.000000	0.300666
1840.000000	0.300546
1841.000000	0.300593
1842.000000	0.300054
1843.000000	0.298413
1844.000000	0.297862
1845.000000	0.297391
1846.000000	0.297103
1847.000000	0.297031
1848.000000	0.297261
1849.000000	0.297261
1850.000000	0.297065
1851.000000	0.297002
1852.000000	0.296866
1853.000000	0.296823
1854.000000	0.296871
1855.000000	0.296538
1856.000000	0.295822
1857.000000	0.295449
1858.000000	0.294867
1859.000000	0.294112
1860.000000	0.293635
1861.000000	0.292743
1862.000000	0.292015
1863.000000	0.291036
1864.000000	0.290424
1865.000000	0.290399
1866.000000	0.289912
1867.000000	0.289305
1868.000000	0.288687
1869.000000	0.287386
1870.000000	0.286253
1871.000000	0.284961
1872.000000	0.283760
1873.000000	0.282700
1874.000000	0.281766
1875.000000	0.280590
1876.000000	0.279217
1877.000000	0.277759
1878.000000	0.276016
1879.000000	0.274394
1880.000000	0.272376
1881.000000	0.269996
1882.000000	0.267213
1883.000000	0.264033
1884.000000	0.261374
1885.000000	0.258499
1886.000000	0.255999
1887.000000	0.253819
1888.000000	0.251838
1889.000000	0.249763
1890.000000	0.247271
1891.000000	0.244764
1892.000000	0.242132
1893.000000	0.238988
1894.000000	0.235758
1895.000000	0.232890
1896.000000	0.230173
1897.000000	0.227662
1898.000000	0.225772
1899.000000	0.224071
1900.000000	0.222173
1901.000000	0.219852
1902.000000	0.216935
1903.000000	0.214134
1904.000000	0.211729
1905.000000	0.209618
1906.000000	0.207186
1907.000000	0.204859
1908.000000	0.202491
1909.000000	0.200215
1910.000000	0.198512
1911.000000	0.197173
1912.000000	0.195697
1913.000000	0.194350
1914.000000	0.192032
1915.000000	0.189399
1916.000000	0.187388
1917.000000	0.185520
1918.000000	0.183623
1919.000000	0.182296
1920.000000	0.181686
1921.000000	0.181318
1922.000000	0.180728
1923.000000	0.180364
1924.000000	0.179899
1925.000000	0.179016
1926.000000	0.178327
1927.000000	0.177651
1928.000000	0.177189
1929.000000	0.176822
1930.000000	0.176575
1931.000000	0.176512
1932.000000	0.176796
1933.000000	0.176452
1934.000000	0.176645
1935.000000	0.177239
1936.000000	0.177153
1937.000000	0.177650
1938.000000	0.177838
1939.000000	0.177818
1940.000000	0.177553
1941.000000	0.177493
1942.000000	0.177031
1943.000000	0.176585
1944.000000	0.175879
1945.000000	0.175265
1946.000000	0.174931
1947.000000	0.174443
1948.000000	0.174161
1949.000000	0.174203
1950.000000	0.174043
1951.000000	0.173750
1952.000000	0.173456
1953.000000	0.173243
1954.000000	0.172840
1955.000000	0.172324
1956.000000	0.172026
1957.000000	0.171202
1958.000000	0.170278
1959.000000	0.170146
1960.000000	0.169530
1961.000000	0.169285
1962.000000	0.169312
1963.000000	0.169800
1964.000000	0.169613
1965.000000	0.170047
1966.000000	0.170557
1967.000000	0.170704
1968.000000	0.171013
1969.000000	0.171088
1970.000000	0.170991
1971.000000	0.170392
1972.000000	0.170000
1973.000000	0.169845
1974.000000	0.169628
1975.000000	0.169829
1976.000000	0.170547
1977.000000	0.171392
1978.000000	0.172139
1979.000000	0.172883
1980.000000	0.173584
1981.000000	0.173281
1982.000000	0.172939
1983.000000	0.173386
1984.000000	0.173420
1985.000000	0.173497
1986.000000	0.173683
1987.000000	0.173975
1988.000000	0.173654
1989.000000	0.174194
1990.000000	0.174456
1991.000000	0.174458
1992.000000	0.174562
1993.000000	0.174497
1994.000000	0.175028
1995.000000	0.175688
1996.000000	0.176746
1997.000000	0.177642
1998.000000	0.178529
1999.000000	0.179125
2000.000000	0.179823
2001.000000	0.180204
2002.000000	0.179616
2003.000000	0.180183
2004.000000	0.181248
2005.000000	0.181689
2006.000000	0.183129
2007.000000	0.184588
2008.000000	0.185257
2009.000000	0.185208
2010.000000	0.185866
2011.000000	0.185923
2012.000000	0.186458
2013.000000	0.187712
2014.000000	0.188376
2015.000000	0.188469
2016.000000	0.189808
2017.000000	0.190847
2018.000000	0.191798
2019.000000	0.193525
2020.000000	0.194625
2021.000000	0.195430
2022.000000	0.195532
2023.000000	0.196498
2024.000000	0.197802
2025.000000	0.198655
2026.000000	0.199733
2027.000000	0.200580
2028.000000	0.200305
2029.000000	0.200424
2030.000000	0.201242
2031.000000	0.201763
2032.000000	0.202726
2033.000000	0.203771
2034.000000	0.204546
2035.000000	0.205162
2036.000000	0.205722
2037.000000	0.206319
2038.000000	0.206912
2039.000000	0.207192
2040.000000	0.208134
2041.000000	0.209300
2042.000000	0.209806
2043.000000	0.210020
2044.000000	0.210160
2045.000000	0.210118
2046.000000	0.210442
2047.000000	0.211259
2048.000000	0.212816
2049.000000	0.213917
2050.000000	0.215073
2051.000000	0.215766
2052.000000	0.216134
2053.000000	0.216525
2054.000000	0.216584
2055.000000	0.217191
2056.000000	0.218334
2057.000000	0.218496
2058.000000	0.218987
2059.000000	0.219335
2060.000000	0.219701
2061.000000	0.219700
2062.000000	0.220127
2063.000000	0.221075
2064.000000	0.221736
2065.000000	0.222532
2066.000000	0.223193
2067.000000	0.224204
2068.000000	0.224463
2069.000000	0.225141
2070.000000	0.225715
2071.000000	0.225909
2072.000000	0.226201
2073.000000	0.226309
2074.000000	0.226673
2075.000000	0.227102
2076.000000	0.227813
2077.000000	0.228361
2078.000000	0.228745
2079.000000	0.229244
2080.000000	0.230114
2081.000000	0.230680
2082.000000	0.230991
2083.000000	0.231599
2084.000000	0.232341
2085.000000	0.232451
2086.000000	0.232801
2087.000000	0.233775
2088.000000	0.234729
2089.000000	0.236024
2090.000000	0.236888
2091.000000	0.238134
2092.000000	0.238483
2093.000000	0.237814
2094.000000	0.237761
2095.000000	0.237498
2096.000000	0.237490
2097.000000	0.237860
2098.000000	0.237963
2099.000000	0.237780
2100.000000	0.238709
2101.000000	0.239219
2102.000000	0.240259
2103.000000	0.241473
2104.000000	0.241422
2105.000000	0.241962
2106.000000	0.242455
2107.000000	0.242978
2108.000000	0.243587
2109.000000	0.244390
2110.000000	0.245106
2111.000000	0.245799
2112.000000	0.246555
2113.000000	0.247350
2114.000000	0.247628
2115.000000	0.247741
2116.000000	0.247413
2117.000000	0.246326
2118.000000	0.246852
2119.000000	0.247837
2120.000000	0.248378
2121.000000	0.249851
2122.000000	0.250544
2123.000000	0.250519
2124.000000	0.250315
2125.000000	0.249868
2126.000000	0.249600
2127.000000	0.248504
2128.000000	0.248164
2129.000000	0.248240
2130.000000	0.248800
2131.000000	0.249424
2132.000000	0.249982
2133.000000	0.250492
2134.000000	0.251343
2135.000000	0.251430
2136.000000	0.251959
2137.000000	0.252232
2138.000000	0.252509
2139.000000	0.252391
2140.000000	0.251859
2141.000000	0.251497
2142.000000	0.250901
2143.000000	0.250380
2144.000000	0.249799
2145.000000	0.250018
2146.000000	0.250675
2147.000000	0.251747
2148.000000	0.253180
2149.000000	0.254320
2150.000000	0.254546
2151.000000	0.254042
2152.000000	0.253574
2153.000000	0.253212
2154.000000	0.253062
2155.000000	0.253264
2156.000000	0.253370
2157.000000	0.253467
2158.000000	0.253662
2159.000000	0.254151
2160.000000	0.254497
2161.000000	0.254814
2162.000000	0.255275
2163.000000	0.255504
2164.000000	0.255758
2165.000000	0.256227
2166.000000	0.256552
2167.000000	0.256788
2168.000000	0.257566
2169.000000	0.257206
2170.000000	0.256497
2171.000000	0.256064
2172.000000	0.254606
2173.000000	0.254569
2174.000000	0.255741
2175.000000	0.256362
2176.000000	0.257860
2177.000000	0.258218
2178.000000	0.258169
2179.000000	0.257661
2180.000000	0.255548
2181.000000	0.254965
2182.000000	0.254351
2183.000000	0.253525
2184.000000	0.254288
2185.000000	0.254897
2186.000000	0.255308
2187.000000	0.256194
2188.000000	0.256106
2189.000000	0.256302
2190.000000	0.256771
2191.000000	0.257340
2192.000000	0.257656
2193.000000	0.258543
2194.000000	0.258382
2195.000000	0.256901
2196.000000	0.256445
2197.000000	0.255911
2198.000000	0.255540
2199.000000	0.256032
2200.000000	0.256094
2201.000000	0.256086
2202.000000	0.255752
2203.000000	0.255033
2204.000000	0.254394
2205.000000	0.252215
2206.000000	0.250567
2207.000000	0.249488
2208.000000	0.249825
2209.000000	0.251889
2210.000000	0.253921
2211.000000	0.255214
2212.000000	0.256788
2213.000000	0.257051
2214.000000	0.255293
2215.000000	0.255329
2216.000000	0.255362
2217.000000	0.255694
2218.000000	0.257220
2219.000000	0.258266
2220.000000	0.258833
2221.000000	0.259757
2222.000000	0.261473
2223.000000	0.262053
2224.000000	0.261913
2225.000000	0.262676
2226.000000	0.261492
2227.000000	0.259817
2228.000000	0.259752
2229.000000	0.258440
2230.000000	0.259699
2231.000000	0.260751
2232.000000	0.258589
2233.000000	0.259215
2234.000000	0.258733
2235.000000	0.257711
2236.000000	0.258274
2237.000000	0.260736
2238.000000	0.262176
2239.000000	0.264759
2240.000000	0.265097
2241.000000	0.263749
2242.000000	0.263586
2243.000000	0.262317
2244.000000	0.261425
2245.000000	0.262510
2246.000000	0.262209
2247.000000	0.259578
2248.000000	0.258790
2249.000000	0.259014
2250.000000	0.258920
2251.000000	0.258216
2252.000000	0.257495
2253.000000	0.255937
2254.000000	0.254750
2255.000000	0.256377
2256.000000	0.258411
2257.000000	0.259197
2258.000000	0.257937
2259.000000	0.256518
2260.000000	0.256577
2261.000000	0.256718
2262.000000	0.259661
2263.000000	0.259183
2264.000000	0.255614
2265.000000	0.255151
2266.000000	0.255119
2267.000000	0.254886
2268.000000	0.256933
2269.000000	0.257350
2270.000000	0.255462
2271.000000	0.255135
2272.000000	0.255591
2273.000000	0.255611
2274.000000	0.256509
2275.000000	0.256513
2276.000000	0.255968
2277.000000	0.254849
2278.000000	0.255013
2279.000000	0.252978
2280.000000	0.249872
2281.000000	0.249831
2282.000000	0.247939
2283.000000	0.244976
2284.000000	0.246342
2285.000000	0.246567
2286.000000	0.246570
2287.000000	0.249119
2288.000000	0.249503
2289.000000	0.247531
2290.000000	0.244870
2291.000000	0.242780
2292.000000	0.240295
2293.000000	0.238167
2294.000000	0.237702
2295.000000	0.238571
2296.000000	0.239809
2297.000000	0.243323
2298.000000	0.244066
2299.000000	0.245110
2300.000000	0.243413
2301.000000	0.238403
2302.000000	0.235523
2303.000000	0.230647
2304.000000	0.229041
2305.000000	0.229914
2306.000000	0.229947
2307.000000	0.231049
2308.000000	0.232949
2309.000000	0.232748
2310.000000	0.232664
2311.000000	0.234259
2312.000000	0.233494
2313.000000	0.231436
2314.000000	0.229898
2315.000000	0.227823
2316.000000	0.226434
2317.000000	0.229156
2318.000000	0.233277
2319.000000	0.234774
2320.000000	0.235723
2321.000000	0.233239
2322.000000	0.227743
2323.000000	0.225315
2324.000000	0.225585
2325.000000	0.225294
2326.000000	0.225959
2327.000000	0.226533
2328.000000	0.224349
2329.000000	0.224189
2330.000000	0.224800
2331.000000	0.226045
2332.000000	0.229449
2333.000000	0.230703
2334.000000	0.231811
2335.000000	0.231514
2336.000000	0.227483
2337.000000	0.225475
2338.000000	0.223824
2339.000000	0.221765
2340.000000	0.219426
2341.000000	0.217973
2342.000000	0.216898
2343.000000	0.216233
2344.000000	0.217521
2345.000000	0.218568
2346.000000	0.217908
2347.000000	0.218090
2348.000000	0.220264
2349.000000	0.218933
2350.000000	0.218429
2351.000000	0.218068
2352.000000	0.212789
2353.000000	0.210587
2354.000000	0.206187
2355.000000	0.205813
2356.000000	0.209695
2357.000000	0.206940
2358.000000	0.206983
2359.000000	0.206645
2360.000000	0.204614
2361.000000	0.205864
2362.000000	0.204675
2363.000000	0.202520
2364.000000	0.199868
2365.000000	0.199078
2366.000000	0.197749
2367.000000	0.195437
2368.000000	0.196157
2369.000000	0.195654
2370.000000	0.194602
2371.000000	0.194621
2372.000000	0.191600
2373.000000	0.186295
2374.000000	0.183492
2375.000000	0.183388
2376.000000	0.184192
2377.000000	0.187322
2378.000000	0.194496
2379.000000	0.196638
2380.000000	0.197708
2381.000000	0.199966
2382.000000	0.195285
2383.000000	0.192954
2384.000000	0.187593
2385.000000	0.182025
2386.000000	0.181621
2387.000000	0.175973
2388.000000	0.179063
2389.000000	0.184785
2390.000000	0.182727
2391.000000	0.187010
2392.000000	0.187319
2393.000000	0.185150
2394.000000	0.188847
2395.000000	0.189917
2396.000000	0.186714
2397.000000	0.180018
2398.000000	0.173065
2399.000000	0.166842
2400.000000	0.167714
2401.000000	0.171618
2402.000000	0.171888
2403.000000	0.176513
2404.000000	0.174899
2405.000000	0.166384
2406.000000	0.168956
2407.000000	0.170075
2408.000000	0.169617
2409.000000	0.172963
2410.000000	0.164024
2411.000000	0.152283
2412.000000	0.144160
2413.000000	0.137725
2414.000000	0.144813
2415.000000	0.153349
2416.000000	0.154410
2417.000000	0.163748
2418.000000	0.163895
2419.000000	0.160769
2420.000000	0.169412
2421.000000	0.171375
2422.000000	0.171020
2423.000000	0.167108
2424.000000	0.156856
2425.000000	0.143565
2426.000000	0.134392
2427.000000	0.133740
2428.000000	0.133293
2429.000000	0.143220
2430.000000	0.157509
2431.000000	0.170646
2432.000000	0.190684
2433.000000	0.193796
2434.000000	0.187228
2435.000000	0.173453
2436.000000	0.148103
2437.000000	0.146731
2438.000000	0.153403
2439.000000	0.162131
2440.000000	0.180100
2441.000000	0.171907
2442.000000	0.159018
2443.000000	0.150099
2444.000000	0.140710
2445.000000	0.139124
2446.000000	0.134691
2447.000000	0.137148
2448.000000	0.137239
2449.000000	0.138241
2450.000000	0.150573
2451.000000	0.156481
2452.000000	0.160541
2453.000000	0.163630
2454.000000	0.157497
2455.000000	0.159178
2456.000000	0.170221
2457.000000	0.172862
2458.000000	0.160716
2459.000000	0.137989
2460.000000	0.111281
2461.000000	0.104368
2462.000000	0.119645
2463.000000	0.139822
2464.000000	0.150689
2465.000000	0.144018
2466.000000	0.131367
2467.000000	0.123718
2468.000000	0.137679
2469.000000	0.155892
2470.000000	0.176361
2471.000000	0.183904
2472.000000	0.158160
2473.000000	0.130268
2474.000000	0.099910
2475.000000	0.094221
2476.000000	0.088620
2477.000000	0.092505
2478.000000	0.118071
2479.000000	0.108548
2480.000000	0.124674
2481.000000	0.134960
2482.000000	0.125371
2483.000000	0.143730
2484.000000	0.138882
2485.000000	0.146757
2486.000000	0.156818
2487.000000	0.160167
2488.000000	0.181281
2489.000000	0.183151
2490.000000	0.165838
2491.000000	0.148035
2492.000000	0.119238
2493.000000	0.065466
2494.000000	0.035245
2495.000000	0.024710
2496.000000	0.000065
2497.000000	-0.048370
2498.000000	-0.035187
2499.000000	0.034143
2500.000000	0.044995
