# Wavelength	SM1200H-20_HEX-60_FV7-20_00002.asd.rts.txt
350.000000	0.332047
351.000000	0.311580
352.000000	0.294469
353.000000	0.288098
354.000000	0.294141
355.000000	0.310108
356.000000	0.312253
357.000000	0.305752
358.000000	0.310899
359.000000	0.310236
360.000000	0.306131
361.000000	0.304862
362.000000	0.310740
363.000000	0.315514
364.000000	0.314076
365.000000	0.313999
366.000000	0.312231
367.000000	0.310356
368.000000	0.314934
369.000000	0.319495
370.000000	0.319725
371.000000	0.313447
372.000000	0.310961
373.000000	0.314142
374.000000	0.320903
375.000000	0.319671
376.000000	0.316880
377.000000	0.316888
378.000000	0.323338
379.000000	0.322773
380.000000	0.318589
381.000000	0.319576
382.000000	0.318531
383.000000	0.317117
384.000000	0.317504
385.000000	0.319564
386.000000	0.321664
387.000000	0.323313
388.000000	0.324756
389.000000	0.324416
390.000000	0.323624
391.000000	0.324201
392.000000	0.325442
393.000000	0.326791
394.000000	0.327720
395.000000	0.327652
396.000000	0.327567
397.000000	0.327403
398.000000	0.325474
399.000000	0.325978
400.000000	0.328205
401.000000	0.329213
402.000000	0.329701
403.000000	0.330405
404.000000	0.331752
405.000000	0.331742
406.000000	0.331607
407.000000	0.332090
408.000000	0.332993
409.000000	0.333128
410.000000	0.332808
411.000000	0.333173
412.000000	0.333141
413.000000	0.333818
414.000000	0.336026
415.000000	0.336004
416.000000	0.335741
417.000000	0.336464
418.000000	0.336892
419.000000	0.337189
420.000000	0.337416
421.000000	0.337558
422.000000	0.337710
423.000000	0.337976
424.000000	0.338496
425.000000	0.338620
426.000000	0.338710
427.000000	0.339086
428.000000	0.339694
429.000000	0.340315
430.000000	0.340769
431.000000	0.340829
432.000000	0.341014
433.000000	0.341301
434.000000	0.341583
435.000000	0.342191
436.000000	0.342619
437.000000	0.342447
438.000000	0.342528
439.000000	0.342645
440.000000	0.342797
441.000000	0.342995
442.000000	0.343597
443.000000	0.344218
444.000000	0.344139
445.000000	0.344375
446.000000	0.344816
447.000000	0.344873
448.000000	0.345005
449.000000	0.345307
450.000000	0.345786
451.000000	0.346326
452.000000	0.346624
453.000000	0.346685
454.000000	0.347226
455.000000	0.347335
456.000000	0.347361
457.000000	0.347860
458.000000	0.348392
459.000000	0.348760
460.000000	0.348968
461.000000	0.349262
462.000000	0.349816
463.000000	0.350319
464.000000	0.350256
465.000000	0.350351
466.000000	0.350617
467.000000	0.350822
468.000000	0.351139
469.000000	0.351410
470.000000	0.351638
471.000000	0.351617
472.000000	0.351624
473.000000	0.351887
474.000000	0.352285
475.000000	0.352560
476.000000	0.352818
477.000000	0.353071
478.000000	0.353104
479.000000	0.353366
480.000000	0.353999
481.000000	0.353980
482.000000	0.354012
483.000000	0.354462
484.000000	0.354744
485.000000	0.354939
486.000000	0.355323
487.000000	0.355674
488.000000	0.356106
489.000000	0.356520
490.000000	0.356642
491.000000	0.356820
492.000000	0.357074
493.000000	0.357186
494.000000	0.357525
495.000000	0.357882
496.000000	0.358085
497.000000	0.358483
498.000000	0.358878
499.000000	0.359231
500.000000	0.359380
501.000000	0.359630
502.000000	0.360025
503.000000	0.360367
504.000000	0.360671
505.000000	0.360905
506.000000	0.361079
507.000000	0.361313
508.000000	0.361662
509.000000	0.362072
510.000000	0.362511
511.000000	0.362840
512.000000	0.363127
513.000000	0.363537
514.000000	0.363878
515.000000	0.364151
516.000000	0.364343
517.000000	0.364669
518.000000	0.365079
519.000000	0.365390
520.000000	0.365660
521.000000	0.365992
522.000000	0.366378
523.000000	0.366590
524.000000	0.366844
525.000000	0.367160
526.000000	0.367529
527.000000	0.367870
528.000000	0.368172
529.000000	0.368501
530.000000	0.368696
531.000000	0.369005
532.000000	0.369407
533.000000	0.369637
534.000000	0.369834
535.000000	0.370067
536.000000	0.370406
537.000000	0.370776
538.000000	0.371112
539.000000	0.371345
540.000000	0.371583
541.000000	0.371859
542.000000	0.372202
543.000000	0.372434
544.000000	0.372732
545.000000	0.373092
546.000000	0.373516
547.000000	0.373882
548.000000	0.374194
549.000000	0.374419
550.000000	0.374713
551.000000	0.375100
552.000000	0.375477
553.000000	0.375744
554.000000	0.376043
555.000000	0.376450
556.000000	0.376746
557.000000	0.377018
558.000000	0.377432
559.000000	0.377742
560.000000	0.378044
561.000000	0.378444
562.000000	0.378851
563.000000	0.379128
564.000000	0.379415
565.000000	0.379740
566.000000	0.380138
567.000000	0.380569
568.000000	0.380966
569.000000	0.381321
570.000000	0.381614
571.000000	0.381876
572.000000	0.382231
573.000000	0.382624
574.000000	0.382957
575.000000	0.383220
576.000000	0.383637
577.000000	0.383986
578.000000	0.384194
579.000000	0.384508
580.000000	0.384829
581.000000	0.385114
582.000000	0.385424
583.000000	0.385761
584.000000	0.386108
585.000000	0.386435
586.000000	0.386722
587.000000	0.386975
588.000000	0.387222
589.000000	0.387504
590.000000	0.387787
591.000000	0.388052
592.000000	0.388337
593.000000	0.388596
594.000000	0.388828
595.000000	0.389086
596.000000	0.389393
597.000000	0.389731
598.000000	0.389940
599.000000	0.390160
600.000000	0.390422
601.000000	0.390630
602.000000	0.390848
603.000000	0.391061
604.000000	0.391268
605.000000	0.391456
606.000000	0.391554
607.000000	0.391617
608.000000	0.391786
609.000000	0.392002
610.000000	0.392220
611.000000	0.392409
612.000000	0.392655
613.000000	0.392895
614.000000	0.393123
615.000000	0.393308
616.000000	0.393479
617.000000	0.393603
618.000000	0.393724
619.000000	0.393913
620.000000	0.394096
621.000000	0.394232
622.000000	0.394396
623.000000	0.394570
624.000000	0.394722
625.000000	0.394837
626.000000	0.394993
627.000000	0.395212
628.000000	0.395415
629.000000	0.395654
630.000000	0.395806
631.000000	0.396039
632.000000	0.396148
633.000000	0.396209
634.000000	0.396316
635.000000	0.396480
636.000000	0.396629
637.000000	0.396728
638.000000	0.396933
639.000000	0.397148
640.000000	0.397381
641.000000	0.397493
642.000000	0.397697
643.000000	0.397933
644.000000	0.398073
645.000000	0.398150
646.000000	0.398247
647.000000	0.398376
648.000000	0.398479
649.000000	0.398663
650.000000	0.398908
651.000000	0.399120
652.000000	0.399249
653.000000	0.399374
654.000000	0.399521
655.000000	0.399686
656.000000	0.399863
657.000000	0.399975
658.000000	0.400078
659.000000	0.400249
660.000000	0.400469
661.000000	0.400609
662.000000	0.400749
663.000000	0.400955
664.000000	0.401149
665.000000	0.401362
666.000000	0.401543
667.000000	0.401623
668.000000	0.401819
669.000000	0.402046
670.000000	0.402233
671.000000	0.402364
672.000000	0.402477
673.000000	0.402615
674.000000	0.402862
675.000000	0.403093
676.000000	0.403281
677.000000	0.403454
678.000000	0.403612
679.000000	0.403744
680.000000	0.403857
681.000000	0.403957
682.000000	0.404154
683.000000	0.404354
684.000000	0.404551
685.000000	0.404700
686.000000	0.404844
687.000000	0.404984
688.000000	0.405168
689.000000	0.405371
690.000000	0.405605
691.000000	0.405835
692.000000	0.406044
693.000000	0.406288
694.000000	0.406470
695.000000	0.406613
696.000000	0.406747
697.000000	0.406910
698.000000	0.407085
699.000000	0.407251
700.000000	0.407395
701.000000	0.407453
702.000000	0.407586
703.000000	0.407781
704.000000	0.407851
705.000000	0.408000
706.000000	0.408182
707.000000	0.408369
708.000000	0.408508
709.000000	0.408619
710.000000	0.408752
711.000000	0.408863
712.000000	0.408991
713.000000	0.409169
714.000000	0.409332
715.000000	0.409530
716.000000	0.409734
717.000000	0.409862
718.000000	0.410068
719.000000	0.410266
720.000000	0.410400
721.000000	0.410576
722.000000	0.410699
723.000000	0.410823
724.000000	0.410967
725.000000	0.411047
726.000000	0.411143
727.000000	0.411187
728.000000	0.411277
729.000000	0.411417
730.000000	0.411525
731.000000	0.411659
732.000000	0.411809
733.000000	0.411995
734.000000	0.412129
735.000000	0.412198
736.000000	0.412364
737.000000	0.412510
738.000000	0.412634
739.000000	0.412792
740.000000	0.412816
741.000000	0.412878
742.000000	0.413003
743.000000	0.413134
744.000000	0.413237
745.000000	0.413247
746.000000	0.413256
747.000000	0.413274
748.000000	0.413339
749.000000	0.413471
750.000000	0.413615
751.000000	0.413709
752.000000	0.413752
753.000000	0.413779
754.000000	0.413822
755.000000	0.413888
756.000000	0.413977
757.000000	0.414025
758.000000	0.414062
759.000000	0.414153
760.000000	0.414243
761.000000	0.414409
762.000000	0.414568
763.000000	0.414683
764.000000	0.414840
765.000000	0.414930
766.000000	0.414978
767.000000	0.415027
768.000000	0.415129
769.000000	0.415212
770.000000	0.415250
771.000000	0.415269
772.000000	0.415338
773.000000	0.415383
774.000000	0.415448
775.000000	0.415478
776.000000	0.415529
777.000000	0.415615
778.000000	0.415686
779.000000	0.415750
780.000000	0.415805
781.000000	0.415809
782.000000	0.415762
783.000000	0.415810
784.000000	0.415861
785.000000	0.415923
786.000000	0.415999
787.000000	0.416069
788.000000	0.416065
789.000000	0.416113
790.000000	0.416166
791.000000	0.416161
792.000000	0.416278
793.000000	0.416436
794.000000	0.416541
795.000000	0.416577
796.000000	0.416597
797.000000	0.416608
798.000000	0.416591
799.000000	0.416624
800.000000	0.416646
801.000000	0.416587
802.000000	0.416548
803.000000	0.416560
804.000000	0.416657
805.000000	0.416715
806.000000	0.416748
807.000000	0.416789
808.000000	0.416699
809.000000	0.416736
810.000000	0.416865
811.000000	0.416970
812.000000	0.416935
813.000000	0.416921
814.000000	0.416959
815.000000	0.417000
816.000000	0.417010
817.000000	0.417046
818.000000	0.417045
819.000000	0.416995
820.000000	0.416991
821.000000	0.416987
822.000000	0.416931
823.000000	0.416955
824.000000	0.416977
825.000000	0.417013
826.000000	0.417031
827.000000	0.417044
828.000000	0.417109
829.000000	0.417151
830.000000	0.417083
831.000000	0.416995
832.000000	0.416854
833.000000	0.416735
834.000000	0.416654
835.000000	0.416652
836.000000	0.416683
837.000000	0.416679
838.000000	0.416627
839.000000	0.416503
840.000000	0.416451
841.000000	0.416433
842.000000	0.416337
843.000000	0.416236
844.000000	0.416214
845.000000	0.416228
846.000000	0.416203
847.000000	0.416170
848.000000	0.416136
849.000000	0.416141
850.000000	0.416103
851.000000	0.415990
852.000000	0.415901
853.000000	0.415970
854.000000	0.415863
855.000000	0.415733
856.000000	0.415617
857.000000	0.415531
858.000000	0.415484
859.000000	0.415375
860.000000	0.415250
861.000000	0.415244
862.000000	0.415370
863.000000	0.415458
864.000000	0.415365
865.000000	0.415281
866.000000	0.415302
867.000000	0.415180
868.000000	0.415047
869.000000	0.414882
870.000000	0.414759
871.000000	0.414609
872.000000	0.414472
873.000000	0.414319
874.000000	0.414263
875.000000	0.414201
876.000000	0.414088
877.000000	0.413830
878.000000	0.413571
879.000000	0.413410
880.000000	0.413194
881.000000	0.412981
882.000000	0.412836
883.000000	0.412742
884.000000	0.412572
885.000000	0.412522
886.000000	0.412433
887.000000	0.412281
888.000000	0.412219
889.000000	0.412143
890.000000	0.411977
891.000000	0.411941
892.000000	0.411825
893.000000	0.411565
894.000000	0.411332
895.000000	0.411119
896.000000	0.410864
897.000000	0.410615
898.000000	0.410444
899.000000	0.410332
900.000000	0.410218
901.000000	0.410059
902.000000	0.410027
903.000000	0.409960
904.000000	0.409790
905.000000	0.409417
906.000000	0.409316
907.000000	0.409159
908.000000	0.408911
909.000000	0.408642
910.000000	0.408461
911.000000	0.408339
912.000000	0.408224
913.000000	0.408036
914.000000	0.407737
915.000000	0.407501
916.000000	0.407411
917.000000	0.407133
918.000000	0.406845
919.000000	0.406658
920.000000	0.406372
921.000000	0.406094
922.000000	0.405850
923.000000	0.405611
924.000000	0.405544
925.000000	0.405503
926.000000	0.405389
927.000000	0.405070
928.000000	0.405004
929.000000	0.404983
930.000000	0.404671
931.000000	0.404384
932.000000	0.404042
933.000000	0.403654
934.000000	0.403208
935.000000	0.402830
936.000000	0.402650
937.000000	0.402538
938.000000	0.402185
939.000000	0.401960
940.000000	0.401850
941.000000	0.401796
942.000000	0.401461
943.000000	0.401220
944.000000	0.401061
945.000000	0.400689
946.000000	0.400247
947.000000	0.399966
948.000000	0.399873
949.000000	0.399400
950.000000	0.399098
951.000000	0.398984
952.000000	0.398690
953.000000	0.398347
954.000000	0.398133
955.000000	0.397989
956.000000	0.397596
957.000000	0.397398
958.000000	0.397230
959.000000	0.396901
960.000000	0.396598
961.000000	0.396294
962.000000	0.396003
963.000000	0.395877
964.000000	0.395691
965.000000	0.395397
966.000000	0.394955
967.000000	0.394922
968.000000	0.394848
969.000000	0.394557
970.000000	0.394232
971.000000	0.394186
972.000000	0.394044
973.000000	0.393636
974.000000	0.393381
975.000000	0.393331
976.000000	0.393277
977.000000	0.393058
978.000000	0.392903
979.000000	0.392543
980.000000	0.392072
981.000000	0.392231
982.000000	0.392135
983.000000	0.391689
984.000000	0.391258
985.000000	0.391362
986.000000	0.391202
987.000000	0.390974
988.000000	0.390745
989.000000	0.390410
990.000000	0.390288
991.000000	0.390317
992.000000	0.390329
993.000000	0.390074
994.000000	0.389754
995.000000	0.389676
996.000000	0.389652
997.000000	0.389832
998.000000	0.389659
999.000000	0.389212
1000.000000	0.389257
1001.000000	0.388680
1002.000000	0.389444
1003.000000	0.390004
1004.000000	0.390065
1005.000000	0.390205
1006.000000	0.389940
1007.000000	0.388939
1008.000000	0.388443
1009.000000	0.388382
1010.000000	0.387596
1011.000000	0.388014
1012.000000	0.388566
1013.000000	0.387822
1014.000000	0.387427
1015.000000	0.387378
1016.000000	0.386934
1017.000000	0.386747
1018.000000	0.387022
1019.000000	0.386954
1020.000000	0.386450
1021.000000	0.385973
1022.000000	0.385697
1023.000000	0.386011
1024.000000	0.386524
1025.000000	0.386859
1026.000000	0.387399
1027.000000	0.387353
1028.000000	0.387156
1029.000000	0.387763
1030.000000	0.387774
1031.000000	0.387763
1032.000000	0.388195
1033.000000	0.387666
1034.000000	0.387466
1035.000000	0.387622
1036.000000	0.387626
1037.000000	0.387169
1038.000000	0.387129
1039.000000	0.387704
1040.000000	0.387763
1041.000000	0.387355
1042.000000	0.387969
1043.000000	0.388354
1044.000000	0.388086
1045.000000	0.388222
1046.000000	0.388267
1047.000000	0.388419
1048.000000	0.388334
1049.000000	0.388615
1050.000000	0.389370
1051.000000	0.389545
1052.000000	0.389624
1053.000000	0.389477
1054.000000	0.388793
1055.000000	0.388945
1056.000000	0.389543
1057.000000	0.389914
1058.000000	0.390756
1059.000000	0.391058
1060.000000	0.390694
1061.000000	0.390521
1062.000000	0.390406
1063.000000	0.390528
1064.000000	0.390756
1065.000000	0.391237
1066.000000	0.391628
1067.000000	0.391995
1068.000000	0.392347
1069.000000	0.392840
1070.000000	0.392958
1071.000000	0.392958
1072.000000	0.392995
1073.000000	0.392870
1074.000000	0.392742
1075.000000	0.392879
1076.000000	0.392920
1077.000000	0.393085
1078.000000	0.393548
1079.000000	0.393868
1080.000000	0.394370
1081.000000	0.394698
1082.000000	0.394996
1083.000000	0.395305
1084.000000	0.395735
1085.000000	0.395959
1086.000000	0.395961
1087.000000	0.396193
1088.000000	0.396290
1089.000000	0.396437
1090.000000	0.396748
1091.000000	0.396908
1092.000000	0.397144
1093.000000	0.397324
1094.000000	0.397341
1095.000000	0.397114
1096.000000	0.397269
1097.000000	0.397372
1098.000000	0.397684
1099.000000	0.398328
1100.000000	0.398801
1101.000000	0.399318
1102.000000	0.399528
1103.000000	0.399560
1104.000000	0.399635
1105.000000	0.399298
1106.000000	0.399314
1107.000000	0.399559
1108.000000	0.399715
1109.000000	0.400188
1110.000000	0.400261
1111.000000	0.400584
1112.000000	0.400995
1113.000000	0.401193
1114.000000	0.401417
1115.000000	0.401543
1116.000000	0.401361
1117.000000	0.401452
1118.000000	0.401644
1119.000000	0.401791
1120.000000	0.402030
1121.000000	0.402224
1122.000000	0.402615
1123.000000	0.402989
1124.000000	0.402892
1125.000000	0.403089
1126.000000	0.403393
1127.000000	0.403454
1128.000000	0.403463
1129.000000	0.403654
1130.000000	0.403586
1131.000000	0.403119
1132.000000	0.403070
1133.000000	0.403270
1134.000000	0.403356
1135.000000	0.403536
1136.000000	0.403538
1137.000000	0.403384
1138.000000	0.403239
1139.000000	0.403062
1140.000000	0.403112
1141.000000	0.403227
1142.000000	0.403293
1143.000000	0.403425
1144.000000	0.403585
1145.000000	0.403513
1146.000000	0.403259
1147.000000	0.403201
1148.000000	0.403048
1149.000000	0.403009
1150.000000	0.403151
1151.000000	0.403129
1152.000000	0.403007
1153.000000	0.402884
1154.000000	0.402520
1155.000000	0.402421
1156.000000	0.402531
1157.000000	0.402466
1158.000000	0.402317
1159.000000	0.402299
1160.000000	0.402257
1161.000000	0.402170
1162.000000	0.402329
1163.000000	0.402494
1164.000000	0.402168
1165.000000	0.401858
1166.000000	0.401798
1167.000000	0.401686
1168.000000	0.401648
1169.000000	0.401925
1170.000000	0.401987
1171.000000	0.401974
1172.000000	0.402017
1173.000000	0.402014
1174.000000	0.402024
1175.000000	0.401979
1176.000000	0.401936
1177.000000	0.402065
1178.000000	0.402058
1179.000000	0.401959
1180.000000	0.401833
1181.000000	0.401775
1182.000000	0.401570
1183.000000	0.401545
1184.000000	0.401737
1185.000000	0.401742
1186.000000	0.401726
1187.000000	0.401741
1188.000000	0.401716
1189.000000	0.401633
1190.000000	0.401708
1191.000000	0.401583
1192.000000	0.401345
1193.000000	0.401348
1194.000000	0.401224
1195.000000	0.401164
1196.000000	0.401117
1197.000000	0.401111
1198.000000	0.401174
1199.000000	0.401223
1200.000000	0.401297
1201.000000	0.401432
1202.000000	0.401448
1203.000000	0.401326
1204.000000	0.401312
1205.000000	0.401320
1206.000000	0.401174
1207.000000	0.401052
1208.000000	0.400975
1209.000000	0.400867
1210.000000	0.400848
1211.000000	0.400965
1212.000000	0.400996
1213.000000	0.401078
1214.000000	0.401128
1215.000000	0.401119
1216.000000	0.401154
1217.000000	0.401190
1218.000000	0.401131
1219.000000	0.401052
1220.000000	0.401077
1221.000000	0.400938
1222.000000	0.400748
1223.000000	0.400763
1224.000000	0.400804
1225.000000	0.400847
1226.000000	0.401046
1227.000000	0.401044
1228.000000	0.400964
1229.000000	0.400879
1230.000000	0.400650
1231.000000	0.400542
1232.000000	0.400677
1233.000000	0.400779
1234.000000	0.400939
1235.000000	0.400968
1236.000000	0.400809
1237.000000	0.400721
1238.000000	0.400454
1239.000000	0.400351
1240.000000	0.400362
1241.000000	0.400305
1242.000000	0.400246
1243.000000	0.400217
1244.000000	0.400160
1245.000000	0.400200
1246.000000	0.400187
1247.000000	0.400245
1248.000000	0.400286
1249.000000	0.400342
1250.000000	0.400413
1251.000000	0.400491
1252.000000	0.400518
1253.000000	0.400464
1254.000000	0.400476
1255.000000	0.400545
1256.000000	0.400541
1257.000000	0.400588
1258.000000	0.400636
1259.000000	0.400450
1260.000000	0.400516
1261.000000	0.400652
1262.000000	0.400698
1263.000000	0.400818
1264.000000	0.401024
1265.000000	0.400856
1266.000000	0.400686
1267.000000	0.400650
1268.000000	0.400519
1269.000000	0.400399
1270.000000	0.400420
1271.000000	0.400374
1272.000000	0.400326
1273.000000	0.400446
1274.000000	0.400568
1275.000000	0.400525
1276.000000	0.400339
1277.000000	0.400339
1278.000000	0.400196
1279.000000	0.400145
1280.000000	0.400216
1281.000000	0.400129
1282.000000	0.399952
1283.000000	0.400012
1284.000000	0.400124
1285.000000	0.400114
1286.000000	0.400127
1287.000000	0.400027
1288.000000	0.400073
1289.000000	0.399954
1290.000000	0.399791
1291.000000	0.399820
1292.000000	0.399761
1293.000000	0.399705
1294.000000	0.399700
1295.000000	0.399711
1296.000000	0.399655
1297.000000	0.399715
1298.000000	0.399951
1299.000000	0.400052
1300.000000	0.400074
1301.000000	0.399964
1302.000000	0.399865
1303.000000	0.399910
1304.000000	0.399808
1305.000000	0.399748
1306.000000	0.399650
1307.000000	0.399481
1308.000000	0.399377
1309.000000	0.399331
1310.000000	0.399241
1311.000000	0.399137
1312.000000	0.399058
1313.000000	0.398957
1314.000000	0.398928
1315.000000	0.398892
1316.000000	0.398792
1317.000000	0.398639
1318.000000	0.398482
1319.000000	0.398249
1320.000000	0.398039
1321.000000	0.397782
1322.000000	0.397562
1323.000000	0.397430
1324.000000	0.397149
1325.000000	0.396831
1326.000000	0.396497
1327.000000	0.396049
1328.000000	0.395887
1329.000000	0.395676
1330.000000	0.395554
1331.000000	0.395434
1332.000000	0.395442
1333.000000	0.395265
1334.000000	0.395161
1335.000000	0.395044
1336.000000	0.394807
1337.000000	0.394596
1338.000000	0.394351
1339.000000	0.394042
1340.000000	0.393723
1341.000000	0.393410
1342.000000	0.393140
1343.000000	0.392703
1344.000000	0.392298
1345.000000	0.392078
1346.000000	0.391971
1347.000000	0.391871
1348.000000	0.391705
1349.000000	0.391270
1350.000000	0.390985
1351.000000	0.390671
1352.000000	0.390290
1353.000000	0.390051
1354.000000	0.389706
1355.000000	0.389141
1356.000000	0.388715
1357.000000	0.388350
1358.000000	0.388016
1359.000000	0.387871
1360.000000	0.387643
1361.000000	0.387522
1362.000000	0.387225
1363.000000	0.386764
1364.000000	0.386423
1365.000000	0.386062
1366.000000	0.385744
1367.000000	0.385504
1368.000000	0.385092
1369.000000	0.384912
1370.000000	0.384586
1371.000000	0.384110
1372.000000	0.383705
1373.000000	0.383185
1374.000000	0.382595
1375.000000	0.381986
1376.000000	0.381536
1377.000000	0.381058
1378.000000	0.380232
1379.000000	0.379190
1380.000000	0.378016
1381.000000	0.376517
1382.000000	0.374996
1383.000000	0.373498
1384.000000	0.371813
1385.000000	0.370296
1386.000000	0.368849
1387.000000	0.367432
1388.000000	0.366264
1389.000000	0.365219
1390.000000	0.364360
1391.000000	0.363699
1392.000000	0.363129
1393.000000	0.362538
1394.000000	0.362023
1395.000000	0.361498
1396.000000	0.361027
1397.000000	0.360456
1398.000000	0.359926
1399.000000	0.359162
1400.000000	0.358228
1401.000000	0.357237
1402.000000	0.356192
1403.000000	0.354910
1404.000000	0.353776
1405.000000	0.352452
1406.000000	0.351108
1407.000000	0.349929
1408.000000	0.348523
1409.000000	0.347134
1410.000000	0.345803
1411.000000	0.344442
1412.000000	0.343102
1413.000000	0.341803
1414.000000	0.340544
1415.000000	0.339266
1416.000000	0.337868
1417.000000	0.336653
1418.000000	0.335468
1419.000000	0.334002
1420.000000	0.332700
1421.000000	0.331652
1422.000000	0.330390
1423.000000	0.329319
1424.000000	0.328132
1425.000000	0.326863
1426.000000	0.325770
1427.000000	0.324697
1428.000000	0.323720
1429.000000	0.322682
1430.000000	0.321596
1431.000000	0.320698
1432.000000	0.319772
1433.000000	0.318915
1434.000000	0.318043
1435.000000	0.317265
1436.000000	0.316481
1437.000000	0.315727
1438.000000	0.314934
1439.000000	0.314150
1440.000000	0.313422
1441.000000	0.312702
1442.000000	0.312038
1443.000000	0.311396
1444.000000	0.310762
1445.000000	0.310124
1446.000000	0.309483
1447.000000	0.308829
1448.000000	0.308197
1449.000000	0.307610
1450.000000	0.307054
1451.000000	0.306582
1452.000000	0.306068
1453.000000	0.305520
1454.000000	0.305044
1455.000000	0.304562
1456.000000	0.304192
1457.000000	0.303975
1458.000000	0.303702
1459.000000	0.303433
1460.000000	0.303245
1461.000000	0.302975
1462.000000	0.302730
1463.000000	0.302586
1464.000000	0.302488
1465.000000	0.302431
1466.000000	0.302302
1467.000000	0.302124
1468.000000	0.302007
1469.000000	0.302033
1470.000000	0.302036
1471.000000	0.302143
1472.000000	0.302330
1473.000000	0.302533
1474.000000	0.302739
1475.000000	0.302883
1476.000000	0.303061
1477.000000	0.303413
1478.000000	0.303784
1479.000000	0.304193
1480.000000	0.304616
1481.000000	0.305005
1482.000000	0.305352
1483.000000	0.305804
1484.000000	0.306292
1485.000000	0.306799
1486.000000	0.307312
1487.000000	0.307829
1488.000000	0.308451
1489.000000	0.309046
1490.000000	0.309485
1491.000000	0.310029
1492.000000	0.310580
1493.000000	0.311095
1494.000000	0.311562
1495.000000	0.312054
1496.000000	0.312553
1497.000000	0.313003
1498.000000	0.313450
1499.000000	0.313957
1500.000000	0.314396
1501.000000	0.314695
1502.000000	0.315046
1503.000000	0.315555
1504.000000	0.316064
1505.000000	0.316520
1506.000000	0.316969
1507.000000	0.317296
1508.000000	0.317699
1509.000000	0.318206
1510.000000	0.318613
1511.000000	0.318985
1512.000000	0.319146
1513.000000	0.319303
1514.000000	0.319671
1515.000000	0.319895
1516.000000	0.320152
1517.000000	0.320401
1518.000000	0.320575
1519.000000	0.320818
1520.000000	0.320971
1521.000000	0.320921
1522.000000	0.320957
1523.000000	0.321076
1524.000000	0.321260
1525.000000	0.321570
1526.000000	0.321737
1527.000000	0.321949
1528.000000	0.322119
1529.000000	0.322207
1530.000000	0.322412
1531.000000	0.322490
1532.000000	0.322542
1533.000000	0.322731
1534.000000	0.322806
1535.000000	0.322831
1536.000000	0.322931
1537.000000	0.323058
1538.000000	0.323159
1539.000000	0.323323
1540.000000	0.323460
1541.000000	0.323578
1542.000000	0.323763
1543.000000	0.323898
1544.000000	0.324108
1545.000000	0.324392
1546.000000	0.324522
1547.000000	0.324645
1548.000000	0.324691
1549.000000	0.324634
1550.000000	0.324608
1551.000000	0.324548
1552.000000	0.324583
1553.000000	0.324627
1554.000000	0.324593
1555.000000	0.324624
1556.000000	0.324658
1557.000000	0.324647
1558.000000	0.324681
1559.000000	0.324741
1560.000000	0.324762
1561.000000	0.324718
1562.000000	0.324790
1563.000000	0.325024
1564.000000	0.325086
1565.000000	0.325195
1566.000000	0.325121
1567.000000	0.324906
1568.000000	0.324812
1569.000000	0.324767
1570.000000	0.324711
1571.000000	0.324678
1572.000000	0.324672
1573.000000	0.324711
1574.000000	0.324697
1575.000000	0.324721
1576.000000	0.324744
1577.000000	0.324662
1578.000000	0.324639
1579.000000	0.324739
1580.000000	0.324718
1581.000000	0.324753
1582.000000	0.324811
1583.000000	0.324855
1584.000000	0.324776
1585.000000	0.324728
1586.000000	0.324658
1587.000000	0.324439
1588.000000	0.324417
1589.000000	0.324562
1590.000000	0.324586
1591.000000	0.324660
1592.000000	0.324689
1593.000000	0.324640
1594.000000	0.324647
1595.000000	0.324748
1596.000000	0.324835
1597.000000	0.324987
1598.000000	0.325066
1599.000000	0.325145
1600.000000	0.325144
1601.000000	0.325110
1602.000000	0.325167
1603.000000	0.325263
1604.000000	0.325368
1605.000000	0.325628
1606.000000	0.325681
1607.000000	0.325676
1608.000000	0.325692
1609.000000	0.325646
1610.000000	0.325664
1611.000000	0.325726
1612.000000	0.325841
1613.000000	0.326140
1614.000000	0.326290
1615.000000	0.326482
1616.000000	0.326705
1617.000000	0.326813
1618.000000	0.326939
1619.000000	0.327119
1620.000000	0.327209
1621.000000	0.327249
1622.000000	0.327417
1623.000000	0.327529
1624.000000	0.327727
1625.000000	0.327925
1626.000000	0.327984
1627.000000	0.327987
1628.000000	0.328176
1629.000000	0.328380
1630.000000	0.328551
1631.000000	0.328779
1632.000000	0.328931
1633.000000	0.328962
1634.000000	0.329120
1635.000000	0.329434
1636.000000	0.329627
1637.000000	0.329775
1638.000000	0.329949
1639.000000	0.330126
1640.000000	0.330344
1641.000000	0.330719
1642.000000	0.331032
1643.000000	0.331391
1644.000000	0.331660
1645.000000	0.331878
1646.000000	0.332028
1647.000000	0.332100
1648.000000	0.332249
1649.000000	0.332521
1650.000000	0.332762
1651.000000	0.333061
1652.000000	0.333352
1653.000000	0.333529
1654.000000	0.333827
1655.000000	0.334219
1656.000000	0.334375
1657.000000	0.334464
1658.000000	0.334680
1659.000000	0.334938
1660.000000	0.335229
1661.000000	0.335646
1662.000000	0.335893
1663.000000	0.335953
1664.000000	0.336128
1665.000000	0.336267
1666.000000	0.336582
1667.000000	0.336969
1668.000000	0.337188
1669.000000	0.337362
1670.000000	0.337550
1671.000000	0.337735
1672.000000	0.338026
1673.000000	0.338403
1674.000000	0.338731
1675.000000	0.339109
1676.000000	0.339495
1677.000000	0.339759
1678.000000	0.339949
1679.000000	0.340022
1680.000000	0.339921
1681.000000	0.339973
1682.000000	0.340058
1683.000000	0.340084
1684.000000	0.340155
1685.000000	0.340328
1686.000000	0.340556
1687.000000	0.340804
1688.000000	0.341017
1689.000000	0.341164
1690.000000	0.341167
1691.000000	0.341142
1692.000000	0.341139
1693.000000	0.341169
1694.000000	0.341146
1695.000000	0.341296
1696.000000	0.341562
1697.000000	0.341696
1698.000000	0.341915
1699.000000	0.342126
1700.000000	0.342279
1701.000000	0.342467
1702.000000	0.342461
1703.000000	0.342501
1704.000000	0.342600
1705.000000	0.342722
1706.000000	0.342960
1707.000000	0.343161
1708.000000	0.343333
1709.000000	0.343422
1710.000000	0.343601
1711.000000	0.343753
1712.000000	0.343906
1713.000000	0.343962
1714.000000	0.343891
1715.000000	0.344042
1716.000000	0.344293
1717.000000	0.344464
1718.000000	0.344710
1719.000000	0.344931
1720.000000	0.345156
1721.000000	0.345320
1722.000000	0.345552
1723.000000	0.345695
1724.000000	0.345686
1725.000000	0.345780
1726.000000	0.345788
1727.000000	0.345921
1728.000000	0.346064
1729.000000	0.346141
1730.000000	0.346492
1731.000000	0.346584
1732.000000	0.346480
1733.000000	0.346595
1734.000000	0.346482
1735.000000	0.346666
1736.000000	0.347105
1737.000000	0.347295
1738.000000	0.347489
1739.000000	0.347726
1740.000000	0.347859
1741.000000	0.348015
1742.000000	0.348291
1743.000000	0.348496
1744.000000	0.348577
1745.000000	0.348672
1746.000000	0.348780
1747.000000	0.348901
1748.000000	0.348973
1749.000000	0.349170
1750.000000	0.349233
1751.000000	0.349327
1752.000000	0.349465
1753.000000	0.349339
1754.000000	0.349353
1755.000000	0.349378
1756.000000	0.349406
1757.000000	0.349465
1758.000000	0.349622
1759.000000	0.349899
1760.000000	0.350019
1761.000000	0.350105
1762.000000	0.350158
1763.000000	0.349992
1764.000000	0.350038
1765.000000	0.350196
1766.000000	0.350344
1767.000000	0.350545
1768.000000	0.350579
1769.000000	0.350658
1770.000000	0.350696
1771.000000	0.350465
1772.000000	0.350537
1773.000000	0.350770
1774.000000	0.350772
1775.000000	0.350862
1776.000000	0.350942
1777.000000	0.350727
1778.000000	0.350846
1779.000000	0.351240
1780.000000	0.351440
1781.000000	0.351595
1782.000000	0.351776
1783.000000	0.351997
1784.000000	0.352102
1785.000000	0.352167
1786.000000	0.352306
1787.000000	0.352569
1788.000000	0.352797
1789.000000	0.352814
1790.000000	0.352790
1791.000000	0.352812
1792.000000	0.353106
1793.000000	0.353329
1794.000000	0.353539
1795.000000	0.353710
1796.000000	0.353839
1797.000000	0.353946
1798.000000	0.353951
1799.000000	0.354050
1800.000000	0.354209
1801.000000	0.353714
1802.000000	0.354135
1803.000000	0.354361
1804.000000	0.354864
1805.000000	0.356259
1806.000000	0.356931
1807.000000	0.357393
1808.000000	0.357580
1809.000000	0.357566
1810.000000	0.357353
1811.000000	0.357011
1812.000000	0.356107
1813.000000	0.355987
1814.000000	0.356164
1815.000000	0.356186
1816.000000	0.356580
1817.000000	0.356580
1818.000000	0.356247
1819.000000	0.356500
1820.000000	0.356153
1821.000000	0.355523
1822.000000	0.355087
1823.000000	0.353904
1824.000000	0.353680
1825.000000	0.354048
1826.000000	0.354401
1827.000000	0.355170
1828.000000	0.355652
1829.000000	0.356069
1830.000000	0.356546
1831.000000	0.356443
1832.000000	0.355883
1833.000000	0.355646
1834.000000	0.355277
1835.000000	0.354625
1836.000000	0.353625
1837.000000	0.353047
1838.000000	0.352296
1839.000000	0.351363
1840.000000	0.350996
1841.000000	0.351337
1842.000000	0.351311
1843.000000	0.351395
1844.000000	0.351138
1845.000000	0.350092
1846.000000	0.349978
1847.000000	0.349881
1848.000000	0.350263
1849.000000	0.350457
1850.000000	0.350912
1851.000000	0.350491
1852.000000	0.349028
1853.000000	0.347782
1854.000000	0.345875
1855.000000	0.344468
1856.000000	0.342552
1857.000000	0.341658
1858.000000	0.341551
1859.000000	0.340895
1860.000000	0.339855
1861.000000	0.338800
1862.000000	0.337578
1863.000000	0.335788
1864.000000	0.334472
1865.000000	0.333616
1866.000000	0.332340
1867.000000	0.330818
1868.000000	0.329434
1869.000000	0.327805
1870.000000	0.325260
1871.000000	0.323145
1872.000000	0.320867
1873.000000	0.318317
1874.000000	0.315648
1875.000000	0.313117
1876.000000	0.310401
1877.000000	0.306785
1878.000000	0.303238
1879.000000	0.300061
1880.000000	0.296499
1881.000000	0.293430
1882.000000	0.290485
1883.000000	0.287047
1884.000000	0.283443
1885.000000	0.279107
1886.000000	0.274901
1887.000000	0.270705
1888.000000	0.265964
1889.000000	0.261203
1890.000000	0.257050
1891.000000	0.252605
1892.000000	0.248465
1893.000000	0.244493
1894.000000	0.240206
1895.000000	0.235817
1896.000000	0.231424
1897.000000	0.227091
1898.000000	0.222424
1899.000000	0.217977
1900.000000	0.213668
1901.000000	0.209465
1902.000000	0.206125
1903.000000	0.203137
1904.000000	0.199753
1905.000000	0.196248
1906.000000	0.192863
1907.000000	0.189323
1908.000000	0.185681
1909.000000	0.182415
1910.000000	0.179877
1911.000000	0.177377
1912.000000	0.174745
1913.000000	0.172864
1914.000000	0.171169
1915.000000	0.169193
1916.000000	0.167220
1917.000000	0.165616
1918.000000	0.164243
1919.000000	0.163083
1920.000000	0.161842
1921.000000	0.161111
1922.000000	0.160546
1923.000000	0.160069
1924.000000	0.160350
1925.000000	0.160541
1926.000000	0.160029
1927.000000	0.159270
1928.000000	0.158763
1929.000000	0.157942
1930.000000	0.157480
1931.000000	0.157805
1932.000000	0.158448
1933.000000	0.158551
1934.000000	0.158690
1935.000000	0.158611
1936.000000	0.158470
1937.000000	0.158611
1938.000000	0.158180
1939.000000	0.157922
1940.000000	0.157685
1941.000000	0.157399
1942.000000	0.157378
1943.000000	0.157749
1944.000000	0.157774
1945.000000	0.157583
1946.000000	0.156541
1947.000000	0.155266
1948.000000	0.154278
1949.000000	0.154074
1950.000000	0.154445
1951.000000	0.154268
1952.000000	0.154301
1953.000000	0.154253
1954.000000	0.153292
1955.000000	0.152654
1956.000000	0.152459
1957.000000	0.151710
1958.000000	0.151493
1959.000000	0.151007
1960.000000	0.150509
1961.000000	0.150891
1962.000000	0.150823
1963.000000	0.150731
1964.000000	0.150621
1965.000000	0.150471
1966.000000	0.149974
1967.000000	0.149905
1968.000000	0.149582
1969.000000	0.149226
1970.000000	0.149058
1971.000000	0.149094
1972.000000	0.149613
1973.000000	0.149796
1974.000000	0.149973
1975.000000	0.150308
1976.000000	0.150602
1977.000000	0.150908
1978.000000	0.151501
1979.000000	0.152105
1980.000000	0.152635
1981.000000	0.152963
1982.000000	0.153154
1983.000000	0.153653
1984.000000	0.154074
1985.000000	0.154211
1986.000000	0.154838
1987.000000	0.155844
1988.000000	0.156819
1989.000000	0.157719
1990.000000	0.158799
1991.000000	0.159095
1992.000000	0.159264
1993.000000	0.159548
1994.000000	0.160304
1995.000000	0.161426
1996.000000	0.162127
1997.000000	0.162986
1998.000000	0.164052
1999.000000	0.164763
2000.000000	0.165086
2001.000000	0.166147
2002.000000	0.166833
2003.000000	0.167342
2004.000000	0.168158
2005.000000	0.168901
2006.000000	0.169888
2007.000000	0.170996
2008.000000	0.171930
2009.000000	0.172725
2010.000000	0.173456
2011.000000	0.173869
2012.000000	0.174674
2013.000000	0.175171
2014.000000	0.176948
2015.000000	0.178678
2016.000000	0.180327
2017.000000	0.181837
2018.000000	0.182601
2019.000000	0.183736
2020.000000	0.184193
2021.000000	0.184972
2022.000000	0.185895
2023.000000	0.186985
2024.000000	0.188237
2025.000000	0.189542
2026.000000	0.191239
2027.000000	0.192195
2028.000000	0.192520
2029.000000	0.193020
2030.000000	0.193968
2031.000000	0.194989
2032.000000	0.196576
2033.000000	0.198406
2034.000000	0.199644
2035.000000	0.200474
2036.000000	0.201287
2037.000000	0.202010
2038.000000	0.202575
2039.000000	0.202706
2040.000000	0.203367
2041.000000	0.204480
2042.000000	0.205480
2043.000000	0.206957
2044.000000	0.208294
2045.000000	0.209014
2046.000000	0.209890
2047.000000	0.210811
2048.000000	0.211667
2049.000000	0.212624
2050.000000	0.213448
2051.000000	0.214194
2052.000000	0.214759
2053.000000	0.215305
2054.000000	0.215921
2055.000000	0.216699
2056.000000	0.217664
2057.000000	0.218604
2058.000000	0.219303
2059.000000	0.220303
2060.000000	0.221252
2061.000000	0.222181
2062.000000	0.222966
2063.000000	0.223808
2064.000000	0.224637
2065.000000	0.225411
2066.000000	0.226211
2067.000000	0.227608
2068.000000	0.228353
2069.000000	0.228942
2070.000000	0.229738
2071.000000	0.230475
2072.000000	0.231819
2073.000000	0.233489
2074.000000	0.234821
2075.000000	0.235667
2076.000000	0.236001
2077.000000	0.236445
2078.000000	0.236134
2079.000000	0.236852
2080.000000	0.238281
2081.000000	0.239589
2082.000000	0.241644
2083.000000	0.242933
2084.000000	0.243662
2085.000000	0.244173
2086.000000	0.244638
2087.000000	0.244974
2088.000000	0.245725
2089.000000	0.246469
2090.000000	0.247132
2091.000000	0.247855
2092.000000	0.248523
2093.000000	0.249062
2094.000000	0.249705
2095.000000	0.250432
2096.000000	0.251206
2097.000000	0.251821
2098.000000	0.252766
2099.000000	0.253992
2100.000000	0.254677
2101.000000	0.255236
2102.000000	0.256110
2103.000000	0.257136
2104.000000	0.258065
2105.000000	0.258905
2106.000000	0.260084
2107.000000	0.260733
2108.000000	0.260717
2109.000000	0.261130
2110.000000	0.261341
2111.000000	0.261874
2112.000000	0.262497
2113.000000	0.263136
2114.000000	0.264404
2115.000000	0.265086
2116.000000	0.265662
2117.000000	0.265917
2118.000000	0.265919
2119.000000	0.266075
2120.000000	0.266117
2121.000000	0.266307
2122.000000	0.266130
2123.000000	0.265126
2124.000000	0.265198
2125.000000	0.265968
2126.000000	0.266301
2127.000000	0.266929
2128.000000	0.267677
2129.000000	0.268336
2130.000000	0.268446
2131.000000	0.268627
2132.000000	0.269533
2133.000000	0.270288
2134.000000	0.270887
2135.000000	0.272542
2136.000000	0.274413
2137.000000	0.275180
2138.000000	0.275509
2139.000000	0.275583
2140.000000	0.274358
2141.000000	0.274019
2142.000000	0.273955
2143.000000	0.273757
2144.000000	0.273664
2145.000000	0.274096
2146.000000	0.275149
2147.000000	0.275926
2148.000000	0.276608
2149.000000	0.277625
2150.000000	0.277793
2151.000000	0.278293
2152.000000	0.278503
2153.000000	0.277589
2154.000000	0.277125
2155.000000	0.275986
2156.000000	0.275518
2157.000000	0.275411
2158.000000	0.276007
2159.000000	0.277426
2160.000000	0.278489
2161.000000	0.280572
2162.000000	0.280969
2163.000000	0.279856
2164.000000	0.279418
2165.000000	0.277863
2166.000000	0.277546
2167.000000	0.278838
2168.000000	0.279144
2169.000000	0.279230
2170.000000	0.278754
2171.000000	0.278511
2172.000000	0.277637
2173.000000	0.277386
2174.000000	0.277830
2175.000000	0.277827
2176.000000	0.277203
2177.000000	0.277317
2178.000000	0.278121
2179.000000	0.278425
2180.000000	0.279249
2181.000000	0.279545
2182.000000	0.278532
2183.000000	0.277630
2184.000000	0.277567
2185.000000	0.276802
2186.000000	0.276885
2187.000000	0.276983
2188.000000	0.276459
2189.000000	0.276423
2190.000000	0.276518
2191.000000	0.277480
2192.000000	0.278014
2193.000000	0.279647
2194.000000	0.279190
2195.000000	0.276331
2196.000000	0.275689
2197.000000	0.274697
2198.000000	0.274375
2199.000000	0.276594
2200.000000	0.277788
2201.000000	0.278650
2202.000000	0.279089
2203.000000	0.278870
2204.000000	0.279621
2205.000000	0.277857
2206.000000	0.274634
2207.000000	0.274019
2208.000000	0.272070
2209.000000	0.271965
2210.000000	0.273986
2211.000000	0.275266
2212.000000	0.276762
2213.000000	0.277270
2214.000000	0.276860
2215.000000	0.277965
2216.000000	0.278894
2217.000000	0.281050
2218.000000	0.286297
2219.000000	0.287661
2220.000000	0.286989
2221.000000	0.286087
2222.000000	0.281488
2223.000000	0.281423
2224.000000	0.283168
2225.000000	0.286891
2226.000000	0.289677
2227.000000	0.289075
2228.000000	0.285761
2229.000000	0.281904
2230.000000	0.280881
2231.000000	0.280811
2232.000000	0.281497
2233.000000	0.282388
2234.000000	0.281126
2235.000000	0.281186
2236.000000	0.281875
2237.000000	0.283699
2238.000000	0.284112
2239.000000	0.284433
2240.000000	0.284708
2241.000000	0.284599
2242.000000	0.283782
2243.000000	0.282120
2244.000000	0.282038
2245.000000	0.281783
2246.000000	0.281538
2247.000000	0.283263
2248.000000	0.283781
2249.000000	0.283072
2250.000000	0.282672
2251.000000	0.282672
2252.000000	0.282107
2253.000000	0.281895
2254.000000	0.280087
2255.000000	0.279156
2256.000000	0.279006
2257.000000	0.277954
2258.000000	0.277616
2259.000000	0.275337
2260.000000	0.272947
2261.000000	0.272492
2262.000000	0.273011
2263.000000	0.273333
2264.000000	0.275642
2265.000000	0.276525
2266.000000	0.275696
2267.000000	0.276685
2268.000000	0.279031
2269.000000	0.279592
2270.000000	0.281300
2271.000000	0.280605
2272.000000	0.277676
2273.000000	0.275051
2274.000000	0.269368
2275.000000	0.267070
2276.000000	0.266391
2277.000000	0.265166
2278.000000	0.266986
2279.000000	0.269233
2280.000000	0.268749
2281.000000	0.267266
2282.000000	0.264492
2283.000000	0.262695
2284.000000	0.261760
2285.000000	0.261461
2286.000000	0.262426
2287.000000	0.262615
2288.000000	0.263031
2289.000000	0.262792
2290.000000	0.260567
2291.000000	0.258009
2292.000000	0.256041
2293.000000	0.253950
2294.000000	0.252659
2295.000000	0.253275
2296.000000	0.252045
2297.000000	0.249976
2298.000000	0.248770
2299.000000	0.247195
2300.000000	0.245657
2301.000000	0.244563
2302.000000	0.243171
2303.000000	0.240396
2304.000000	0.239438
2305.000000	0.239938
2306.000000	0.239620
2307.000000	0.239718
2308.000000	0.240659
2309.000000	0.238778
2310.000000	0.237891
2311.000000	0.236121
2312.000000	0.233945
2313.000000	0.233644
2314.000000	0.230863
2315.000000	0.230036
2316.000000	0.229874
2317.000000	0.227939
2318.000000	0.228559
2319.000000	0.228789
2320.000000	0.227763
2321.000000	0.226025
2322.000000	0.224744
2323.000000	0.224818
2324.000000	0.225776
2325.000000	0.227311
2326.000000	0.226774
2327.000000	0.223088
2328.000000	0.218032
2329.000000	0.214928
2330.000000	0.215378
2331.000000	0.219508
2332.000000	0.223586
2333.000000	0.226081
2334.000000	0.226579
2335.000000	0.226175
2336.000000	0.221761
2337.000000	0.220457
2338.000000	0.219898
2339.000000	0.220247
2340.000000	0.222652
2341.000000	0.222565
2342.000000	0.221266
2343.000000	0.220762
2344.000000	0.219852
2345.000000	0.218528
2346.000000	0.217659
2347.000000	0.215913
2348.000000	0.213316
2349.000000	0.209560
2350.000000	0.205250
2351.000000	0.203818
2352.000000	0.201188
2353.000000	0.200670
2354.000000	0.204199
2355.000000	0.204379
2356.000000	0.202537
2357.000000	0.199924
2358.000000	0.192403
2359.000000	0.188877
2360.000000	0.189977
2361.000000	0.187943
2362.000000	0.187866
2363.000000	0.188399
2364.000000	0.185158
2365.000000	0.184571
2366.000000	0.186793
2367.000000	0.188196
2368.000000	0.190777
2369.000000	0.191509
2370.000000	0.186524
2371.000000	0.179529
2372.000000	0.174385
2373.000000	0.171083
2374.000000	0.169015
2375.000000	0.171604
2376.000000	0.175720
2377.000000	0.175137
2378.000000	0.176905
2379.000000	0.179445
2380.000000	0.178479
2381.000000	0.179444
2382.000000	0.177412
2383.000000	0.174480
2384.000000	0.171153
2385.000000	0.165444
2386.000000	0.164665
2387.000000	0.164081
2388.000000	0.160732
2389.000000	0.160158
2390.000000	0.162083
2391.000000	0.161826
2392.000000	0.160357
2393.000000	0.159580
2394.000000	0.158722
2395.000000	0.159235
2396.000000	0.161413
2397.000000	0.162517
2398.000000	0.162629
2399.000000	0.161639
2400.000000	0.157023
2401.000000	0.150863
2402.000000	0.137509
2403.000000	0.127102
2404.000000	0.130855
2405.000000	0.136528
2406.000000	0.147578
2407.000000	0.155212
2408.000000	0.148104
2409.000000	0.143096
2410.000000	0.136523
2411.000000	0.131995
2412.000000	0.133677
2413.000000	0.132341
2414.000000	0.135693
2415.000000	0.138832
2416.000000	0.139090
2417.000000	0.136843
2418.000000	0.129615
2419.000000	0.120937
2420.000000	0.116781
2421.000000	0.120985
2422.000000	0.132867
2423.000000	0.145096
2424.000000	0.149136
2425.000000	0.150023
2426.000000	0.138563
2427.000000	0.122525
2428.000000	0.117960
2429.000000	0.112583
2430.000000	0.114485
2431.000000	0.124458
2432.000000	0.121972
2433.000000	0.119731
2434.000000	0.118847
2435.000000	0.114541
2436.000000	0.121547
2437.000000	0.128760
2438.000000	0.134904
2439.000000	0.148223
2440.000000	0.159031
2441.000000	0.169040
2442.000000	0.173957
2443.000000	0.162376
2444.000000	0.144694
2445.000000	0.137418
2446.000000	0.136871
2447.000000	0.138716
2448.000000	0.145559
2449.000000	0.149987
2450.000000	0.146798
2451.000000	0.149403
2452.000000	0.155026
2453.000000	0.153889
2454.000000	0.151355
2455.000000	0.149223
2456.000000	0.144683
2457.000000	0.134692
2458.000000	0.140111
2459.000000	0.143117
2460.000000	0.136032
2461.000000	0.136240
2462.000000	0.121661
2463.000000	0.117906
2464.000000	0.128458
2465.000000	0.128381
2466.000000	0.119994
2467.000000	0.093584
2468.000000	0.072202
2469.000000	0.076888
2470.000000	0.086855
2471.000000	0.099711
2472.000000	0.099592
2473.000000	0.068737
2474.000000	0.058524
2475.000000	0.070566
2476.000000	0.074223
2477.000000	0.093621
2478.000000	0.115788
2479.000000	0.129723
2480.000000	0.141953
2481.000000	0.131597
2482.000000	0.123899
2483.000000	0.109213
2484.000000	0.090992
2485.000000	0.108227
2486.000000	0.095493
2487.000000	0.060488
2488.000000	0.060376
2489.000000	0.090905
2490.000000	0.112182
2491.000000	0.163166
2492.000000	0.172816
2493.000000	0.140229
2494.000000	0.140331
2495.000000	0.113133
2496.000000	0.116387
2497.000000	0.173776
2498.000000	0.206352
2499.000000	0.290412
2500.000000	0.290125
