# Wavelength	SM1200H-20_HEX-70_FV7-10_00000.asd.rts.txt
350.000000	0.401437
351.000000	0.392497
352.000000	0.392576
353.000000	0.395947
354.000000	0.400716
355.000000	0.398327
356.000000	0.403758
357.000000	0.413852
358.000000	0.406270
359.000000	0.393903
360.000000	0.388995
361.000000	0.398242
362.000000	0.404443
363.000000	0.405197
364.000000	0.402289
365.000000	0.407263
366.000000	0.409324
367.000000	0.406644
368.000000	0.405602
369.000000	0.407696
370.000000	0.410033
371.000000	0.409038
372.000000	0.408437
373.000000	0.409403
374.000000	0.412545
375.000000	0.415333
376.000000	0.413957
377.000000	0.410870
378.000000	0.415563
379.000000	0.416890
380.000000	0.415254
381.000000	0.415680
382.000000	0.414400
383.000000	0.413514
384.000000	0.414680
385.000000	0.415172
386.000000	0.416625
387.000000	0.418799
388.000000	0.418566
389.000000	0.420076
390.000000	0.422316
391.000000	0.422272
392.000000	0.422199
393.000000	0.421471
394.000000	0.420103
395.000000	0.421580
396.000000	0.423347
397.000000	0.424216
398.000000	0.425004
399.000000	0.424704
400.000000	0.424711
401.000000	0.426927
402.000000	0.426660
403.000000	0.425992
404.000000	0.427113
405.000000	0.426041
406.000000	0.426181
407.000000	0.428374
408.000000	0.428661
409.000000	0.428735
410.000000	0.429275
411.000000	0.430469
412.000000	0.431370
413.000000	0.431634
414.000000	0.431330
415.000000	0.431493
416.000000	0.431878
417.000000	0.432381
418.000000	0.433638
419.000000	0.433961
420.000000	0.433684
421.000000	0.434930
422.000000	0.434887
423.000000	0.434301
424.000000	0.434942
425.000000	0.435313
426.000000	0.435784
427.000000	0.436599
428.000000	0.437109
429.000000	0.437179
430.000000	0.436975
431.000000	0.436980
432.000000	0.437766
433.000000	0.438730
434.000000	0.438901
435.000000	0.438991
436.000000	0.438989
437.000000	0.438840
438.000000	0.439110
439.000000	0.439452
440.000000	0.439789
441.000000	0.440015
442.000000	0.440268
443.000000	0.440573
444.000000	0.441184
445.000000	0.441583
446.000000	0.442062
447.000000	0.442665
448.000000	0.442511
449.000000	0.442378
450.000000	0.442808
451.000000	0.443193
452.000000	0.443597
453.000000	0.443914
454.000000	0.444238
455.000000	0.444557
456.000000	0.445092
457.000000	0.445785
458.000000	0.446127
459.000000	0.446250
460.000000	0.446462
461.000000	0.446775
462.000000	0.447232
463.000000	0.447591
464.000000	0.448061
465.000000	0.448269
466.000000	0.448233
467.000000	0.448469
468.000000	0.448725
469.000000	0.448778
470.000000	0.448792
471.000000	0.449206
472.000000	0.449586
473.000000	0.449739
474.000000	0.450107
475.000000	0.450349
476.000000	0.450550
477.000000	0.450607
478.000000	0.450637
479.000000	0.451006
480.000000	0.451507
481.000000	0.451611
482.000000	0.451751
483.000000	0.452018
484.000000	0.452578
485.000000	0.452908
486.000000	0.453129
487.000000	0.453545
488.000000	0.453742
489.000000	0.453889
490.000000	0.454507
491.000000	0.454796
492.000000	0.455007
493.000000	0.455371
494.000000	0.455745
495.000000	0.456036
496.000000	0.456177
497.000000	0.456456
498.000000	0.456794
499.000000	0.457235
500.000000	0.457637
501.000000	0.457905
502.000000	0.458174
503.000000	0.458522
504.000000	0.458808
505.000000	0.459126
506.000000	0.459547
507.000000	0.459745
508.000000	0.460023
509.000000	0.460441
510.000000	0.460784
511.000000	0.461004
512.000000	0.461209
513.000000	0.461551
514.000000	0.461904
515.000000	0.462305
516.000000	0.462703
517.000000	0.462966
518.000000	0.463294
519.000000	0.463682
520.000000	0.464019
521.000000	0.464310
522.000000	0.464584
523.000000	0.464868
524.000000	0.465194
525.000000	0.465515
526.000000	0.465824
527.000000	0.466159
528.000000	0.466462
529.000000	0.466762
530.000000	0.467084
531.000000	0.467399
532.000000	0.467591
533.000000	0.467952
534.000000	0.468307
535.000000	0.468599
536.000000	0.468946
537.000000	0.469287
538.000000	0.469557
539.000000	0.469688
540.000000	0.469939
541.000000	0.470281
542.000000	0.470666
543.000000	0.470849
544.000000	0.471112
545.000000	0.471455
546.000000	0.471741
547.000000	0.472099
548.000000	0.472535
549.000000	0.472816
550.000000	0.473095
551.000000	0.473453
552.000000	0.473839
553.000000	0.474138
554.000000	0.474380
555.000000	0.474647
556.000000	0.475084
557.000000	0.475469
558.000000	0.475886
559.000000	0.476165
560.000000	0.476442
561.000000	0.476833
562.000000	0.477192
563.000000	0.477564
564.000000	0.477934
565.000000	0.478136
566.000000	0.478484
567.000000	0.478867
568.000000	0.479174
569.000000	0.479490
570.000000	0.479766
571.000000	0.479981
572.000000	0.480171
573.000000	0.480516
574.000000	0.480864
575.000000	0.481082
576.000000	0.481479
577.000000	0.481829
578.000000	0.482068
579.000000	0.482458
580.000000	0.482804
581.000000	0.483034
582.000000	0.483270
583.000000	0.483548
584.000000	0.483874
585.000000	0.484229
586.000000	0.484508
587.000000	0.484797
588.000000	0.485193
589.000000	0.485507
590.000000	0.485806
591.000000	0.486123
592.000000	0.486337
593.000000	0.486617
594.000000	0.486948
595.000000	0.487142
596.000000	0.487292
597.000000	0.487551
598.000000	0.487903
599.000000	0.488062
600.000000	0.488234
601.000000	0.488485
602.000000	0.488693
603.000000	0.488863
604.000000	0.489037
605.000000	0.489265
606.000000	0.489457
607.000000	0.489616
608.000000	0.489797
609.000000	0.489933
610.000000	0.490075
611.000000	0.490285
612.000000	0.490490
613.000000	0.490659
614.000000	0.490823
615.000000	0.490896
616.000000	0.490995
617.000000	0.491116
618.000000	0.491297
619.000000	0.491582
620.000000	0.491809
621.000000	0.491872
622.000000	0.492070
623.000000	0.492276
624.000000	0.492374
625.000000	0.492563
626.000000	0.492708
627.000000	0.492785
628.000000	0.492962
629.000000	0.493198
630.000000	0.493325
631.000000	0.493564
632.000000	0.493798
633.000000	0.493975
634.000000	0.494066
635.000000	0.494257
636.000000	0.494442
637.000000	0.494546
638.000000	0.494698
639.000000	0.494886
640.000000	0.495135
641.000000	0.495219
642.000000	0.495277
643.000000	0.495387
644.000000	0.495591
645.000000	0.495740
646.000000	0.495906
647.000000	0.496092
648.000000	0.496210
649.000000	0.496338
650.000000	0.496479
651.000000	0.496642
652.000000	0.496770
653.000000	0.496920
654.000000	0.497061
655.000000	0.497224
656.000000	0.497432
657.000000	0.497604
658.000000	0.497773
659.000000	0.497906
660.000000	0.498010
661.000000	0.498272
662.000000	0.498490
663.000000	0.498693
664.000000	0.498861
665.000000	0.499101
666.000000	0.499351
667.000000	0.499486
668.000000	0.499629
669.000000	0.499779
670.000000	0.499936
671.000000	0.500076
672.000000	0.500261
673.000000	0.500478
674.000000	0.500689
675.000000	0.500889
676.000000	0.501085
677.000000	0.501317
678.000000	0.501543
679.000000	0.501670
680.000000	0.501695
681.000000	0.501766
682.000000	0.501962
683.000000	0.502147
684.000000	0.502327
685.000000	0.502502
686.000000	0.502709
687.000000	0.502901
688.000000	0.503029
689.000000	0.503167
690.000000	0.503408
691.000000	0.503592
692.000000	0.503718
693.000000	0.503911
694.000000	0.504159
695.000000	0.504355
696.000000	0.504513
697.000000	0.504704
698.000000	0.504915
699.000000	0.505129
700.000000	0.505346
701.000000	0.505573
702.000000	0.505763
703.000000	0.505877
704.000000	0.505964
705.000000	0.506136
706.000000	0.506301
707.000000	0.506444
708.000000	0.506647
709.000000	0.506814
710.000000	0.506906
711.000000	0.507015
712.000000	0.507163
713.000000	0.507358
714.000000	0.507498
715.000000	0.507599
716.000000	0.507727
717.000000	0.507919
718.000000	0.508098
719.000000	0.508279
720.000000	0.508486
721.000000	0.508612
722.000000	0.508660
723.000000	0.508745
724.000000	0.508819
725.000000	0.508891
726.000000	0.509058
727.000000	0.509171
728.000000	0.509207
729.000000	0.509274
730.000000	0.509374
731.000000	0.509510
732.000000	0.509659
733.000000	0.509825
734.000000	0.509852
735.000000	0.509858
736.000000	0.510028
737.000000	0.510137
738.000000	0.510124
739.000000	0.510243
740.000000	0.510380
741.000000	0.510483
742.000000	0.510595
743.000000	0.510699
744.000000	0.510861
745.000000	0.510924
746.000000	0.511021
747.000000	0.511186
748.000000	0.511343
749.000000	0.511516
750.000000	0.511653
751.000000	0.511699
752.000000	0.511773
753.000000	0.511900
754.000000	0.511976
755.000000	0.512013
756.000000	0.512053
757.000000	0.512070
758.000000	0.512143
759.000000	0.512298
760.000000	0.512414
761.000000	0.512530
762.000000	0.512614
763.000000	0.512658
764.000000	0.512802
765.000000	0.512887
766.000000	0.512925
767.000000	0.512958
768.000000	0.513063
769.000000	0.513138
770.000000	0.513150
771.000000	0.513134
772.000000	0.513232
773.000000	0.513312
774.000000	0.513356
775.000000	0.513363
776.000000	0.513394
777.000000	0.513471
778.000000	0.513619
779.000000	0.513726
780.000000	0.513789
781.000000	0.513873
782.000000	0.513897
783.000000	0.514006
784.000000	0.514071
785.000000	0.514082
786.000000	0.514069
787.000000	0.514054
788.000000	0.514055
789.000000	0.514083
790.000000	0.514134
791.000000	0.514268
792.000000	0.514302
793.000000	0.514312
794.000000	0.514382
795.000000	0.514430
796.000000	0.514414
797.000000	0.514378
798.000000	0.514484
799.000000	0.514640
800.000000	0.514775
801.000000	0.514836
802.000000	0.514799
803.000000	0.514796
804.000000	0.514917
805.000000	0.514938
806.000000	0.514924
807.000000	0.514979
808.000000	0.514983
809.000000	0.515004
810.000000	0.515068
811.000000	0.515137
812.000000	0.515109
813.000000	0.515069
814.000000	0.515034
815.000000	0.515005
816.000000	0.514992
817.000000	0.514988
818.000000	0.514865
819.000000	0.514865
820.000000	0.514931
821.000000	0.514932
822.000000	0.514897
823.000000	0.515039
824.000000	0.515154
825.000000	0.515127
826.000000	0.515134
827.000000	0.515105
828.000000	0.515074
829.000000	0.515084
830.000000	0.514987
831.000000	0.514921
832.000000	0.514886
833.000000	0.514790
834.000000	0.514701
835.000000	0.514709
836.000000	0.514658
837.000000	0.514590
838.000000	0.514570
839.000000	0.514601
840.000000	0.514571
841.000000	0.514559
842.000000	0.514563
843.000000	0.514464
844.000000	0.514375
845.000000	0.514337
846.000000	0.514441
847.000000	0.514490
848.000000	0.514406
849.000000	0.514236
850.000000	0.514085
851.000000	0.513966
852.000000	0.513952
853.000000	0.514024
854.000000	0.513986
855.000000	0.514015
856.000000	0.514049
857.000000	0.513894
858.000000	0.513860
859.000000	0.513871
860.000000	0.513584
861.000000	0.513338
862.000000	0.513288
863.000000	0.513345
864.000000	0.513343
865.000000	0.513247
866.000000	0.513134
867.000000	0.513122
868.000000	0.513166
869.000000	0.513092
870.000000	0.512904
871.000000	0.512841
872.000000	0.512736
873.000000	0.512469
874.000000	0.512475
875.000000	0.512404
876.000000	0.512254
877.000000	0.512047
878.000000	0.511815
879.000000	0.511653
880.000000	0.511411
881.000000	0.511304
882.000000	0.511191
883.000000	0.511050
884.000000	0.510813
885.000000	0.510655
886.000000	0.510469
887.000000	0.510271
888.000000	0.510193
889.000000	0.510235
890.000000	0.510142
891.000000	0.509970
892.000000	0.509760
893.000000	0.509595
894.000000	0.509631
895.000000	0.509480
896.000000	0.509243
897.000000	0.509034
898.000000	0.508947
899.000000	0.508863
900.000000	0.508788
901.000000	0.508673
902.000000	0.508603
903.000000	0.508290
904.000000	0.507911
905.000000	0.507584
906.000000	0.507545
907.000000	0.507420
908.000000	0.507188
909.000000	0.506932
910.000000	0.506703
911.000000	0.506485
912.000000	0.506271
913.000000	0.506005
914.000000	0.505851
915.000000	0.505919
916.000000	0.505985
917.000000	0.505985
918.000000	0.505809
919.000000	0.505440
920.000000	0.505251
921.000000	0.505044
922.000000	0.504801
923.000000	0.504552
924.000000	0.504379
925.000000	0.504175
926.000000	0.503953
927.000000	0.503783
928.000000	0.503394
929.000000	0.503007
930.000000	0.502903
931.000000	0.502700
932.000000	0.502378
933.000000	0.502030
934.000000	0.501677
935.000000	0.501379
936.000000	0.501263
937.000000	0.501180
938.000000	0.500879
939.000000	0.500646
940.000000	0.500410
941.000000	0.500161
942.000000	0.499912
943.000000	0.499773
944.000000	0.499568
945.000000	0.499318
946.000000	0.498915
947.000000	0.498545
948.000000	0.498302
949.000000	0.497985
950.000000	0.497741
951.000000	0.497524
952.000000	0.497302
953.000000	0.497138
954.000000	0.496936
955.000000	0.496551
956.000000	0.496246
957.000000	0.496136
958.000000	0.495983
959.000000	0.495642
960.000000	0.495134
961.000000	0.494683
962.000000	0.494367
963.000000	0.494176
964.000000	0.494069
965.000000	0.493945
966.000000	0.493612
967.000000	0.493539
968.000000	0.493170
969.000000	0.492571
970.000000	0.492274
971.000000	0.491922
972.000000	0.491817
973.000000	0.491835
974.000000	0.491603
975.000000	0.491329
976.000000	0.491023
977.000000	0.490684
978.000000	0.490433
979.000000	0.490431
980.000000	0.490177
981.000000	0.489797
982.000000	0.489688
983.000000	0.489638
984.000000	0.489606
985.000000	0.489532
986.000000	0.489555
987.000000	0.489542
988.000000	0.489217
989.000000	0.488767
990.000000	0.488641
991.000000	0.488737
992.000000	0.488771
993.000000	0.488342
994.000000	0.487858
995.000000	0.487654
996.000000	0.487367
997.000000	0.487676
998.000000	0.487873
999.000000	0.487750
1000.000000	0.487653
1001.000000	0.488044
1002.000000	0.487741
1003.000000	0.487492
1004.000000	0.487493
1005.000000	0.487676
1006.000000	0.487511
1007.000000	0.487639
1008.000000	0.487296
1009.000000	0.486507
1010.000000	0.485370
1011.000000	0.484900
1012.000000	0.485074
1013.000000	0.484833
1014.000000	0.485095
1015.000000	0.485428
1016.000000	0.485548
1017.000000	0.485564
1018.000000	0.485804
1019.000000	0.486154
1020.000000	0.487029
1021.000000	0.486490
1022.000000	0.485792
1023.000000	0.485658
1024.000000	0.484643
1025.000000	0.484066
1026.000000	0.484967
1027.000000	0.485215
1028.000000	0.485296
1029.000000	0.486436
1030.000000	0.486642
1031.000000	0.486002
1032.000000	0.485652
1033.000000	0.484842
1034.000000	0.484805
1035.000000	0.485630
1036.000000	0.485846
1037.000000	0.486101
1038.000000	0.486372
1039.000000	0.486690
1040.000000	0.486708
1041.000000	0.486637
1042.000000	0.486414
1043.000000	0.486181
1044.000000	0.486149
1045.000000	0.486188
1046.000000	0.486181
1047.000000	0.486633
1048.000000	0.487080
1049.000000	0.487293
1050.000000	0.488040
1051.000000	0.488425
1052.000000	0.488102
1053.000000	0.488124
1054.000000	0.488725
1055.000000	0.489134
1056.000000	0.489646
1057.000000	0.489922
1058.000000	0.489551
1059.000000	0.488889
1060.000000	0.489082
1061.000000	0.489284
1062.000000	0.489736
1063.000000	0.490958
1064.000000	0.491287
1065.000000	0.490643
1066.000000	0.490714
1067.000000	0.490686
1068.000000	0.490808
1069.000000	0.491462
1070.000000	0.491642
1071.000000	0.491519
1072.000000	0.491789
1073.000000	0.492509
1074.000000	0.492299
1075.000000	0.492662
1076.000000	0.493380
1077.000000	0.493131
1078.000000	0.493079
1079.000000	0.493169
1080.000000	0.493259
1081.000000	0.493308
1082.000000	0.493695
1083.000000	0.493961
1084.000000	0.494176
1085.000000	0.494422
1086.000000	0.494842
1087.000000	0.494978
1088.000000	0.494513
1089.000000	0.494493
1090.000000	0.494561
1091.000000	0.494606
1092.000000	0.494816
1093.000000	0.495222
1094.000000	0.495374
1095.000000	0.495165
1096.000000	0.495311
1097.000000	0.495582
1098.000000	0.495838
1099.000000	0.496170
1100.000000	0.496389
1101.000000	0.496490
1102.000000	0.496600
1103.000000	0.496256
1104.000000	0.496603
1105.000000	0.497633
1106.000000	0.498083
1107.000000	0.498730
1108.000000	0.499025
1109.000000	0.498896
1110.000000	0.498412
1111.000000	0.498492
1112.000000	0.498836
1113.000000	0.498908
1114.000000	0.499027
1115.000000	0.499225
1116.000000	0.499345
1117.000000	0.499451
1118.000000	0.499765
1119.000000	0.499778
1120.000000	0.499517
1121.000000	0.499340
1122.000000	0.499121
1123.000000	0.499394
1124.000000	0.499599
1125.000000	0.499758
1126.000000	0.500005
1127.000000	0.500140
1128.000000	0.500186
1129.000000	0.500062
1130.000000	0.500173
1131.000000	0.500428
1132.000000	0.500494
1133.000000	0.500755
1134.000000	0.500717
1135.000000	0.500283
1136.000000	0.500108
1137.000000	0.499896
1138.000000	0.499665
1139.000000	0.499538
1140.000000	0.499692
1141.000000	0.500023
1142.000000	0.500115
1143.000000	0.500179
1144.000000	0.500383
1145.000000	0.500288
1146.000000	0.499892
1147.000000	0.499647
1148.000000	0.499345
1149.000000	0.499117
1150.000000	0.498795
1151.000000	0.498707
1152.000000	0.498718
1153.000000	0.498695
1154.000000	0.498729
1155.000000	0.498627
1156.000000	0.498607
1157.000000	0.498370
1158.000000	0.497713
1159.000000	0.497369
1160.000000	0.496924
1161.000000	0.496667
1162.000000	0.496818
1163.000000	0.497116
1164.000000	0.496936
1165.000000	0.496677
1166.000000	0.496617
1167.000000	0.496335
1168.000000	0.496246
1169.000000	0.496501
1170.000000	0.496568
1171.000000	0.496655
1172.000000	0.496688
1173.000000	0.496620
1174.000000	0.496583
1175.000000	0.496469
1176.000000	0.496268
1177.000000	0.496201
1178.000000	0.496076
1179.000000	0.495707
1180.000000	0.495484
1181.000000	0.495520
1182.000000	0.495474
1183.000000	0.495494
1184.000000	0.495681
1185.000000	0.495692
1186.000000	0.495652
1187.000000	0.495479
1188.000000	0.495202
1189.000000	0.494938
1190.000000	0.494617
1191.000000	0.494411
1192.000000	0.494341
1193.000000	0.494472
1194.000000	0.494640
1195.000000	0.494668
1196.000000	0.494656
1197.000000	0.494635
1198.000000	0.494537
1199.000000	0.494429
1200.000000	0.494271
1201.000000	0.494223
1202.000000	0.494182
1203.000000	0.494033
1204.000000	0.493968
1205.000000	0.494052
1206.000000	0.493944
1207.000000	0.493869
1208.000000	0.493725
1209.000000	0.493570
1210.000000	0.493486
1211.000000	0.493463
1212.000000	0.493345
1213.000000	0.493223
1214.000000	0.493239
1215.000000	0.493303
1216.000000	0.493207
1217.000000	0.493030
1218.000000	0.492959
1219.000000	0.492847
1220.000000	0.492783
1221.000000	0.492849
1222.000000	0.492882
1223.000000	0.492883
1224.000000	0.492854
1225.000000	0.492760
1226.000000	0.492782
1227.000000	0.492608
1228.000000	0.492451
1229.000000	0.492397
1230.000000	0.492504
1231.000000	0.492332
1232.000000	0.492247
1233.000000	0.492312
1234.000000	0.492250
1235.000000	0.492243
1236.000000	0.492303
1237.000000	0.492314
1238.000000	0.492110
1239.000000	0.492054
1240.000000	0.492068
1241.000000	0.492082
1242.000000	0.492252
1243.000000	0.492362
1244.000000	0.492327
1245.000000	0.492508
1246.000000	0.492569
1247.000000	0.492697
1248.000000	0.492766
1249.000000	0.492800
1250.000000	0.492920
1251.000000	0.492905
1252.000000	0.492877
1253.000000	0.492987
1254.000000	0.492946
1255.000000	0.492680
1256.000000	0.492580
1257.000000	0.492609
1258.000000	0.492622
1259.000000	0.492547
1260.000000	0.492554
1261.000000	0.492481
1262.000000	0.492427
1263.000000	0.492418
1264.000000	0.492373
1265.000000	0.492568
1266.000000	0.492623
1267.000000	0.492472
1268.000000	0.492567
1269.000000	0.492458
1270.000000	0.492497
1271.000000	0.492603
1272.000000	0.492444
1273.000000	0.492442
1274.000000	0.492336
1275.000000	0.492164
1276.000000	0.492015
1277.000000	0.492030
1278.000000	0.491845
1279.000000	0.491785
1280.000000	0.491808
1281.000000	0.491796
1282.000000	0.491852
1283.000000	0.491986
1284.000000	0.492058
1285.000000	0.492178
1286.000000	0.492330
1287.000000	0.492388
1288.000000	0.492588
1289.000000	0.492768
1290.000000	0.492656
1291.000000	0.492576
1292.000000	0.492356
1293.000000	0.492129
1294.000000	0.492150
1295.000000	0.492047
1296.000000	0.491946
1297.000000	0.491938
1298.000000	0.491938
1299.000000	0.491950
1300.000000	0.491964
1301.000000	0.491866
1302.000000	0.491581
1303.000000	0.491196
1304.000000	0.490945
1305.000000	0.490784
1306.000000	0.490571
1307.000000	0.490512
1308.000000	0.490397
1309.000000	0.490209
1310.000000	0.490107
1311.000000	0.490148
1312.000000	0.489987
1313.000000	0.489860
1314.000000	0.489541
1315.000000	0.489043
1316.000000	0.488854
1317.000000	0.488662
1318.000000	0.488406
1319.000000	0.488168
1320.000000	0.487923
1321.000000	0.487709
1322.000000	0.487476
1323.000000	0.487211
1324.000000	0.486932
1325.000000	0.486487
1326.000000	0.485949
1327.000000	0.485577
1328.000000	0.485308
1329.000000	0.484879
1330.000000	0.484451
1331.000000	0.484064
1332.000000	0.483671
1333.000000	0.483257
1334.000000	0.483024
1335.000000	0.482715
1336.000000	0.482283
1337.000000	0.481921
1338.000000	0.481559
1339.000000	0.481003
1340.000000	0.480587
1341.000000	0.480209
1342.000000	0.479740
1343.000000	0.479340
1344.000000	0.478797
1345.000000	0.478338
1346.000000	0.478027
1347.000000	0.477523
1348.000000	0.477190
1349.000000	0.476526
1350.000000	0.475849
1351.000000	0.475220
1352.000000	0.474505
1353.000000	0.474060
1354.000000	0.473686
1355.000000	0.473289
1356.000000	0.472926
1357.000000	0.472380
1358.000000	0.471787
1359.000000	0.471392
1360.000000	0.470952
1361.000000	0.470624
1362.000000	0.470054
1363.000000	0.469321
1364.000000	0.468757
1365.000000	0.468111
1366.000000	0.467586
1367.000000	0.467266
1368.000000	0.466721
1369.000000	0.466163
1370.000000	0.465531
1371.000000	0.464846
1372.000000	0.464044
1373.000000	0.463187
1374.000000	0.462304
1375.000000	0.461365
1376.000000	0.460511
1377.000000	0.459365
1378.000000	0.457991
1379.000000	0.456310
1380.000000	0.454343
1381.000000	0.452412
1382.000000	0.450163
1383.000000	0.447742
1384.000000	0.445403
1385.000000	0.442951
1386.000000	0.440671
1387.000000	0.438761
1388.000000	0.436920
1389.000000	0.435068
1390.000000	0.433481
1391.000000	0.432234
1392.000000	0.431172
1393.000000	0.430204
1394.000000	0.429738
1395.000000	0.429007
1396.000000	0.428252
1397.000000	0.427278
1398.000000	0.426211
1399.000000	0.424965
1400.000000	0.423578
1401.000000	0.421973
1402.000000	0.420304
1403.000000	0.418282
1404.000000	0.416238
1405.000000	0.414036
1406.000000	0.411828
1407.000000	0.409784
1408.000000	0.407533
1409.000000	0.405429
1410.000000	0.403485
1411.000000	0.401396
1412.000000	0.399318
1413.000000	0.397238
1414.000000	0.395092
1415.000000	0.393025
1416.000000	0.390985
1417.000000	0.389105
1418.000000	0.387246
1419.000000	0.385368
1420.000000	0.383611
1421.000000	0.381963
1422.000000	0.380168
1423.000000	0.378363
1424.000000	0.376438
1425.000000	0.374666
1426.000000	0.372981
1427.000000	0.371434
1428.000000	0.370054
1429.000000	0.368507
1430.000000	0.366967
1431.000000	0.365556
1432.000000	0.364180
1433.000000	0.362959
1434.000000	0.361625
1435.000000	0.360334
1436.000000	0.359106
1437.000000	0.357814
1438.000000	0.356605
1439.000000	0.355628
1440.000000	0.354550
1441.000000	0.353466
1442.000000	0.352415
1443.000000	0.351301
1444.000000	0.350134
1445.000000	0.349098
1446.000000	0.348065
1447.000000	0.347136
1448.000000	0.346421
1449.000000	0.345627
1450.000000	0.344857
1451.000000	0.344154
1452.000000	0.343322
1453.000000	0.342632
1454.000000	0.342026
1455.000000	0.341482
1456.000000	0.341119
1457.000000	0.340803
1458.000000	0.340366
1459.000000	0.339850
1460.000000	0.339442
1461.000000	0.339089
1462.000000	0.338835
1463.000000	0.338609
1464.000000	0.338326
1465.000000	0.337981
1466.000000	0.337644
1467.000000	0.337485
1468.000000	0.337349
1469.000000	0.337316
1470.000000	0.337294
1471.000000	0.337282
1472.000000	0.337375
1473.000000	0.337592
1474.000000	0.337885
1475.000000	0.338332
1476.000000	0.338855
1477.000000	0.339361
1478.000000	0.339841
1479.000000	0.340312
1480.000000	0.340809
1481.000000	0.341363
1482.000000	0.342077
1483.000000	0.342753
1484.000000	0.343449
1485.000000	0.344115
1486.000000	0.344759
1487.000000	0.345427
1488.000000	0.346090
1489.000000	0.346824
1490.000000	0.347488
1491.000000	0.348202
1492.000000	0.348926
1493.000000	0.349642
1494.000000	0.350270
1495.000000	0.350954
1496.000000	0.351724
1497.000000	0.352397
1498.000000	0.353071
1499.000000	0.353717
1500.000000	0.354288
1501.000000	0.354835
1502.000000	0.355366
1503.000000	0.355908
1504.000000	0.356520
1505.000000	0.357114
1506.000000	0.357739
1507.000000	0.358378
1508.000000	0.358937
1509.000000	0.359409
1510.000000	0.359866
1511.000000	0.360272
1512.000000	0.360599
1513.000000	0.360975
1514.000000	0.361502
1515.000000	0.361993
1516.000000	0.362520
1517.000000	0.363025
1518.000000	0.363225
1519.000000	0.363306
1520.000000	0.363503
1521.000000	0.363575
1522.000000	0.363770
1523.000000	0.364191
1524.000000	0.364500
1525.000000	0.364842
1526.000000	0.365226
1527.000000	0.365572
1528.000000	0.365884
1529.000000	0.366129
1530.000000	0.366364
1531.000000	0.366632
1532.000000	0.366887
1533.000000	0.367087
1534.000000	0.367182
1535.000000	0.367260
1536.000000	0.367304
1537.000000	0.367423
1538.000000	0.367516
1539.000000	0.367477
1540.000000	0.367421
1541.000000	0.367422
1542.000000	0.367555
1543.000000	0.367739
1544.000000	0.367914
1545.000000	0.368140
1546.000000	0.368273
1547.000000	0.368332
1548.000000	0.368434
1549.000000	0.368461
1550.000000	0.368510
1551.000000	0.368712
1552.000000	0.368901
1553.000000	0.369053
1554.000000	0.369140
1555.000000	0.369210
1556.000000	0.369306
1557.000000	0.369290
1558.000000	0.369287
1559.000000	0.369219
1560.000000	0.369066
1561.000000	0.368858
1562.000000	0.368720
1563.000000	0.368597
1564.000000	0.368554
1565.000000	0.368569
1566.000000	0.368503
1567.000000	0.368584
1568.000000	0.368519
1569.000000	0.368409
1570.000000	0.368421
1571.000000	0.368416
1572.000000	0.368428
1573.000000	0.368607
1574.000000	0.368639
1575.000000	0.368577
1576.000000	0.368539
1577.000000	0.368380
1578.000000	0.368374
1579.000000	0.368598
1580.000000	0.368604
1581.000000	0.368649
1582.000000	0.368693
1583.000000	0.368559
1584.000000	0.368510
1585.000000	0.368707
1586.000000	0.368772
1587.000000	0.368764
1588.000000	0.368729
1589.000000	0.368630
1590.000000	0.368668
1591.000000	0.368772
1592.000000	0.368836
1593.000000	0.369060
1594.000000	0.369074
1595.000000	0.368947
1596.000000	0.368969
1597.000000	0.369029
1598.000000	0.369051
1599.000000	0.369163
1600.000000	0.369196
1601.000000	0.369245
1602.000000	0.369295
1603.000000	0.369376
1604.000000	0.369444
1605.000000	0.369505
1606.000000	0.369613
1607.000000	0.369853
1608.000000	0.369987
1609.000000	0.370147
1610.000000	0.370254
1611.000000	0.370298
1612.000000	0.370400
1613.000000	0.370626
1614.000000	0.370831
1615.000000	0.371151
1616.000000	0.371416
1617.000000	0.371598
1618.000000	0.371791
1619.000000	0.371911
1620.000000	0.372111
1621.000000	0.372401
1622.000000	0.372735
1623.000000	0.373118
1624.000000	0.373397
1625.000000	0.373485
1626.000000	0.373586
1627.000000	0.373525
1628.000000	0.373775
1629.000000	0.374267
1630.000000	0.374611
1631.000000	0.374921
1632.000000	0.375271
1633.000000	0.375498
1634.000000	0.375853
1635.000000	0.376509
1636.000000	0.376965
1637.000000	0.377388
1638.000000	0.377718
1639.000000	0.377949
1640.000000	0.378247
1641.000000	0.378616
1642.000000	0.378923
1643.000000	0.379248
1644.000000	0.379650
1645.000000	0.380082
1646.000000	0.380418
1647.000000	0.380844
1648.000000	0.381185
1649.000000	0.381459
1650.000000	0.381819
1651.000000	0.382338
1652.000000	0.382769
1653.000000	0.383044
1654.000000	0.383487
1655.000000	0.383942
1656.000000	0.384220
1657.000000	0.384603
1658.000000	0.384921
1659.000000	0.385205
1660.000000	0.385599
1661.000000	0.385964
1662.000000	0.386363
1663.000000	0.386715
1664.000000	0.387125
1665.000000	0.387632
1666.000000	0.388086
1667.000000	0.388468
1668.000000	0.388815
1669.000000	0.389038
1670.000000	0.389318
1671.000000	0.389732
1672.000000	0.390095
1673.000000	0.390443
1674.000000	0.390751
1675.000000	0.391085
1676.000000	0.391385
1677.000000	0.391633
1678.000000	0.391885
1679.000000	0.392091
1680.000000	0.392255
1681.000000	0.392501
1682.000000	0.392674
1683.000000	0.392888
1684.000000	0.393132
1685.000000	0.393302
1686.000000	0.393572
1687.000000	0.393885
1688.000000	0.394145
1689.000000	0.394466
1690.000000	0.394529
1691.000000	0.394631
1692.000000	0.394879
1693.000000	0.395166
1694.000000	0.395538
1695.000000	0.395984
1696.000000	0.396173
1697.000000	0.396295
1698.000000	0.396367
1699.000000	0.396544
1700.000000	0.396743
1701.000000	0.397016
1702.000000	0.397241
1703.000000	0.397302
1704.000000	0.397285
1705.000000	0.397366
1706.000000	0.397438
1707.000000	0.397600
1708.000000	0.397951
1709.000000	0.398048
1710.000000	0.398096
1711.000000	0.398244
1712.000000	0.398333
1713.000000	0.398479
1714.000000	0.398759
1715.000000	0.399103
1716.000000	0.399629
1717.000000	0.399871
1718.000000	0.399970
1719.000000	0.400147
1720.000000	0.400152
1721.000000	0.400322
1722.000000	0.400744
1723.000000	0.401026
1724.000000	0.401275
1725.000000	0.401567
1726.000000	0.401804
1727.000000	0.401983
1728.000000	0.401998
1729.000000	0.402092
1730.000000	0.402300
1731.000000	0.402579
1732.000000	0.403059
1733.000000	0.403375
1734.000000	0.403476
1735.000000	0.403663
1736.000000	0.403720
1737.000000	0.403896
1738.000000	0.404187
1739.000000	0.404448
1740.000000	0.404705
1741.000000	0.404902
1742.000000	0.405104
1743.000000	0.405388
1744.000000	0.405636
1745.000000	0.405857
1746.000000	0.406124
1747.000000	0.406393
1748.000000	0.406489
1749.000000	0.406469
1750.000000	0.406505
1751.000000	0.406573
1752.000000	0.406811
1753.000000	0.407056
1754.000000	0.407309
1755.000000	0.407519
1756.000000	0.407753
1757.000000	0.408120
1758.000000	0.408346
1759.000000	0.408454
1760.000000	0.408595
1761.000000	0.408502
1762.000000	0.408633
1763.000000	0.409083
1764.000000	0.409251
1765.000000	0.409262
1766.000000	0.409428
1767.000000	0.409326
1768.000000	0.409429
1769.000000	0.409988
1770.000000	0.410301
1771.000000	0.410509
1772.000000	0.410654
1773.000000	0.410590
1774.000000	0.410657
1775.000000	0.410825
1776.000000	0.410919
1777.000000	0.410954
1778.000000	0.411063
1779.000000	0.411061
1780.000000	0.411339
1781.000000	0.411833
1782.000000	0.412058
1783.000000	0.412354
1784.000000	0.412575
1785.000000	0.412668
1786.000000	0.413000
1787.000000	0.413483
1788.000000	0.413691
1789.000000	0.413861
1790.000000	0.414108
1791.000000	0.414318
1792.000000	0.414810
1793.000000	0.415135
1794.000000	0.415316
1795.000000	0.415601
1796.000000	0.415912
1797.000000	0.416119
1798.000000	0.416264
1799.000000	0.416449
1800.000000	0.416574
1801.000000	0.415997
1802.000000	0.416368
1803.000000	0.416922
1804.000000	0.417636
1805.000000	0.419009
1806.000000	0.419517
1807.000000	0.419819
1808.000000	0.419829
1809.000000	0.418438
1810.000000	0.418481
1811.000000	0.418591
1812.000000	0.419198
1813.000000	0.419409
1814.000000	0.420077
1815.000000	0.420122
1816.000000	0.419594
1817.000000	0.419247
1818.000000	0.418312
1819.000000	0.418671
1820.000000	0.419625
1821.000000	0.419642
1822.000000	0.419430
1823.000000	0.418801
1824.000000	0.418501
1825.000000	0.417502
1826.000000	0.417169
1827.000000	0.416999
1828.000000	0.417681
1829.000000	0.417988
1830.000000	0.418184
1831.000000	0.417840
1832.000000	0.417099
1833.000000	0.416714
1834.000000	0.415587
1835.000000	0.415336
1836.000000	0.416284
1837.000000	0.416280
1838.000000	0.415820
1839.000000	0.415460
1840.000000	0.414823
1841.000000	0.413838
1842.000000	0.413246
1843.000000	0.412736
1844.000000	0.412417
1845.000000	0.412462
1846.000000	0.412075
1847.000000	0.411429
1848.000000	0.410696
1849.000000	0.409993
1850.000000	0.409231
1851.000000	0.408506
1852.000000	0.407787
1853.000000	0.407350
1854.000000	0.407158
1855.000000	0.405995
1856.000000	0.404363
1857.000000	0.402921
1858.000000	0.401089
1859.000000	0.399149
1860.000000	0.397378
1861.000000	0.395769
1862.000000	0.393564
1863.000000	0.390446
1864.000000	0.387996
1865.000000	0.385727
1866.000000	0.383472
1867.000000	0.381542
1868.000000	0.379275
1869.000000	0.376443
1870.000000	0.373535
1871.000000	0.370605
1872.000000	0.367477
1873.000000	0.363937
1874.000000	0.360139
1875.000000	0.356197
1876.000000	0.351454
1877.000000	0.346720
1878.000000	0.342145
1879.000000	0.338019
1880.000000	0.333580
1881.000000	0.329309
1882.000000	0.325472
1883.000000	0.320336
1884.000000	0.315100
1885.000000	0.309190
1886.000000	0.303305
1887.000000	0.296624
1888.000000	0.290653
1889.000000	0.285077
1890.000000	0.279372
1891.000000	0.274009
1892.000000	0.268561
1893.000000	0.262755
1894.000000	0.257084
1895.000000	0.251278
1896.000000	0.245559
1897.000000	0.239442
1898.000000	0.233523
1899.000000	0.228249
1900.000000	0.222779
1901.000000	0.218045
1902.000000	0.214009
1903.000000	0.209780
1904.000000	0.205900
1905.000000	0.201425
1906.000000	0.197182
1907.000000	0.192688
1908.000000	0.188916
1909.000000	0.185571
1910.000000	0.183126
1911.000000	0.180640
1912.000000	0.177922
1913.000000	0.175173
1914.000000	0.172306
1915.000000	0.170123
1916.000000	0.168173
1917.000000	0.166077
1918.000000	0.163995
1919.000000	0.162172
1920.000000	0.160497
1921.000000	0.159228
1922.000000	0.158224
1923.000000	0.157143
1924.000000	0.156237
1925.000000	0.155301
1926.000000	0.154290
1927.000000	0.153716
1928.000000	0.153105
1929.000000	0.152591
1930.000000	0.151947
1931.000000	0.151837
1932.000000	0.151699
1933.000000	0.151871
1934.000000	0.152631
1935.000000	0.153023
1936.000000	0.153934
1937.000000	0.154742
1938.000000	0.154655
1939.000000	0.154430
1940.000000	0.153876
1941.000000	0.152976
1942.000000	0.152305
1943.000000	0.151822
1944.000000	0.151550
1945.000000	0.151809
1946.000000	0.151967
1947.000000	0.151992
1948.000000	0.151957
1949.000000	0.151373
1950.000000	0.150683
1951.000000	0.150135
1952.000000	0.149652
1953.000000	0.149348
1954.000000	0.148814
1955.000000	0.148215
1956.000000	0.148059
1957.000000	0.147695
1958.000000	0.147225
1959.000000	0.146687
1960.000000	0.145780
1961.000000	0.144538
1962.000000	0.143864
1963.000000	0.143527
1964.000000	0.143746
1965.000000	0.143495
1966.000000	0.143537
1967.000000	0.143790
1968.000000	0.143652
1969.000000	0.143999
1970.000000	0.144793
1971.000000	0.145156
1972.000000	0.145646
1973.000000	0.145759
1974.000000	0.145449
1975.000000	0.145220
1976.000000	0.144881
1977.000000	0.144441
1978.000000	0.144178
1979.000000	0.144724
1980.000000	0.145582
1981.000000	0.146556
1982.000000	0.147053
1983.000000	0.147527
1984.000000	0.148112
1985.000000	0.148333
1986.000000	0.149027
1987.000000	0.150308
1988.000000	0.151219
1989.000000	0.151830
1990.000000	0.152264
1991.000000	0.152527
1992.000000	0.152910
1993.000000	0.153741
1994.000000	0.155012
1995.000000	0.156456
1996.000000	0.158126
1997.000000	0.159174
1998.000000	0.159737
1999.000000	0.160608
2000.000000	0.161251
2001.000000	0.161832
2002.000000	0.162834
2003.000000	0.164290
2004.000000	0.165305
2005.000000	0.166102
2006.000000	0.167294
2007.000000	0.168468
2008.000000	0.169354
2009.000000	0.169797
2010.000000	0.170801
2011.000000	0.171647
2012.000000	0.172799
2013.000000	0.174053
2014.000000	0.176232
2015.000000	0.178433
2016.000000	0.180180
2017.000000	0.182117
2018.000000	0.183926
2019.000000	0.185288
2020.000000	0.186435
2021.000000	0.187750
2022.000000	0.189016
2023.000000	0.190344
2024.000000	0.191956
2025.000000	0.193309
2026.000000	0.194286
2027.000000	0.195624
2028.000000	0.197087
2029.000000	0.198572
2030.000000	0.200190
2031.000000	0.200985
2032.000000	0.201772
2033.000000	0.201922
2034.000000	0.202508
2035.000000	0.203302
2036.000000	0.204235
2037.000000	0.205430
2038.000000	0.206695
2039.000000	0.208179
2040.000000	0.209612
2041.000000	0.211316
2042.000000	0.213209
2043.000000	0.214567
2044.000000	0.216603
2045.000000	0.218051
2046.000000	0.218343
2047.000000	0.219327
2048.000000	0.220264
2049.000000	0.221216
2050.000000	0.222192
2051.000000	0.223166
2052.000000	0.223982
2053.000000	0.224658
2054.000000	0.225317
2055.000000	0.226484
2056.000000	0.226750
2057.000000	0.227465
2058.000000	0.228842
2059.000000	0.229757
2060.000000	0.230959
2061.000000	0.232760
2062.000000	0.233915
2063.000000	0.234729
2064.000000	0.235546
2065.000000	0.236151
2066.000000	0.237222
2067.000000	0.238515
2068.000000	0.240453
2069.000000	0.242125
2070.000000	0.243692
2071.000000	0.244885
2072.000000	0.245308
2073.000000	0.245663
2074.000000	0.246401
2075.000000	0.247395
2076.000000	0.248665
2077.000000	0.249788
2078.000000	0.251199
2079.000000	0.252355
2080.000000	0.253383
2081.000000	0.254317
2082.000000	0.255130
2083.000000	0.256183
2084.000000	0.256659
2085.000000	0.257756
2086.000000	0.259324
2087.000000	0.260649
2088.000000	0.262358
2089.000000	0.263234
2090.000000	0.264316
2091.000000	0.265202
2092.000000	0.266268
2093.000000	0.267404
2094.000000	0.268679
2095.000000	0.270329
2096.000000	0.271404
2097.000000	0.272248
2098.000000	0.272827
2099.000000	0.273357
2100.000000	0.273839
2101.000000	0.274655
2102.000000	0.276330
2103.000000	0.277981
2104.000000	0.279397
2105.000000	0.280793
2106.000000	0.282295
2107.000000	0.283295
2108.000000	0.284049
2109.000000	0.284806
2110.000000	0.285137
2111.000000	0.285615
2112.000000	0.286349
2113.000000	0.285899
2114.000000	0.285960
2115.000000	0.286068
2116.000000	0.285639
2117.000000	0.285985
2118.000000	0.286900
2119.000000	0.287443
2120.000000	0.288271
2121.000000	0.289629
2122.000000	0.290701
2123.000000	0.291579
2124.000000	0.292563
2125.000000	0.294203
2126.000000	0.294884
2127.000000	0.294667
2128.000000	0.295187
2129.000000	0.295481
2130.000000	0.295645
2131.000000	0.296882
2132.000000	0.297916
2133.000000	0.298177
2134.000000	0.298026
2135.000000	0.297903
2136.000000	0.298165
2137.000000	0.298634
2138.000000	0.300054
2139.000000	0.300570
2140.000000	0.300568
2141.000000	0.301031
2142.000000	0.301150
2143.000000	0.301372
2144.000000	0.302733
2145.000000	0.302979
2146.000000	0.302323
2147.000000	0.302755
2148.000000	0.302297
2149.000000	0.301668
2150.000000	0.302079
2151.000000	0.302580
2152.000000	0.303075
2153.000000	0.303438
2154.000000	0.303900
2155.000000	0.304467
2156.000000	0.304620
2157.000000	0.304567
2158.000000	0.305004
2159.000000	0.305418
2160.000000	0.305799
2161.000000	0.306946
2162.000000	0.307263
2163.000000	0.306166
2164.000000	0.306036
2165.000000	0.306132
2166.000000	0.306312
2167.000000	0.307247
2168.000000	0.308210
2169.000000	0.307838
2170.000000	0.307523
2171.000000	0.307055
2172.000000	0.305702
2173.000000	0.305409
2174.000000	0.305628
2175.000000	0.305762
2176.000000	0.306252
2177.000000	0.306722
2178.000000	0.307683
2179.000000	0.307923
2180.000000	0.307786
2181.000000	0.308063
2182.000000	0.307502
2183.000000	0.306829
2184.000000	0.307070
2185.000000	0.306626
2186.000000	0.306350
2187.000000	0.306808
2188.000000	0.307319
2189.000000	0.308903
2190.000000	0.309322
2191.000000	0.309341
2192.000000	0.309117
2193.000000	0.307487
2194.000000	0.306672
2195.000000	0.306255
2196.000000	0.305788
2197.000000	0.305360
2198.000000	0.305370
2199.000000	0.305521
2200.000000	0.306548
2201.000000	0.309463
2202.000000	0.310560
2203.000000	0.311755
2204.000000	0.310735
2205.000000	0.309630
2206.000000	0.307756
2207.000000	0.306324
2208.000000	0.307617
2209.000000	0.306705
2210.000000	0.307227
2211.000000	0.309463
2212.000000	0.309912
2213.000000	0.310953
2214.000000	0.312700
2215.000000	0.313567
2216.000000	0.313620
2217.000000	0.314619
2218.000000	0.317175
2219.000000	0.317019
2220.000000	0.315167
2221.000000	0.313726
2222.000000	0.309399
2223.000000	0.308301
2224.000000	0.308475
2225.000000	0.311113
2226.000000	0.313228
2227.000000	0.314096
2228.000000	0.313055
2229.000000	0.310861
2230.000000	0.308066
2231.000000	0.306209
2232.000000	0.306640
2233.000000	0.308790
2234.000000	0.311241
2235.000000	0.312726
2236.000000	0.312081
2237.000000	0.307889
2238.000000	0.306618
2239.000000	0.305146
2240.000000	0.304707
2241.000000	0.306355
2242.000000	0.306817
2243.000000	0.306845
2244.000000	0.306959
2245.000000	0.307109
2246.000000	0.307230
2247.000000	0.306560
2248.000000	0.306463
2249.000000	0.307251
2250.000000	0.307144
2251.000000	0.306742
2252.000000	0.307387
2253.000000	0.306762
2254.000000	0.307865
2255.000000	0.308581
2256.000000	0.308698
2257.000000	0.308005
2258.000000	0.305801
2259.000000	0.305820
2260.000000	0.306691
2261.000000	0.307946
2262.000000	0.312183
2263.000000	0.312480
2264.000000	0.311451
2265.000000	0.310154
2266.000000	0.306154
2267.000000	0.304299
2268.000000	0.302246
2269.000000	0.301940
2270.000000	0.304456
2271.000000	0.303925
2272.000000	0.303309
2273.000000	0.301922
2274.000000	0.297240
2275.000000	0.295395
2276.000000	0.294416
2277.000000	0.294871
2278.000000	0.295972
2279.000000	0.296753
2280.000000	0.296781
2281.000000	0.294235
2282.000000	0.292030
2283.000000	0.289731
2284.000000	0.288963
2285.000000	0.290964
2286.000000	0.290003
2287.000000	0.288416
2288.000000	0.286197
2289.000000	0.281452
2290.000000	0.277683
2291.000000	0.275431
2292.000000	0.274751
2293.000000	0.274661
2294.000000	0.274628
2295.000000	0.276715
2296.000000	0.276689
2297.000000	0.274653
2298.000000	0.274178
2299.000000	0.274802
2300.000000	0.273861
2301.000000	0.272731
2302.000000	0.271945
2303.000000	0.270074
2304.000000	0.268751
2305.000000	0.268563
2306.000000	0.266661
2307.000000	0.263995
2308.000000	0.260658
2309.000000	0.256405
2310.000000	0.252794
2311.000000	0.251353
2312.000000	0.249838
2313.000000	0.249821
2314.000000	0.250052
2315.000000	0.247808
2316.000000	0.245945
2317.000000	0.244146
2318.000000	0.244127
2319.000000	0.245750
2320.000000	0.246580
2321.000000	0.247274
2322.000000	0.247653
2323.000000	0.245836
2324.000000	0.244114
2325.000000	0.242363
2326.000000	0.240266
2327.000000	0.239909
2328.000000	0.239160
2329.000000	0.240732
2330.000000	0.240143
2331.000000	0.235840
2332.000000	0.234560
2333.000000	0.233462
2334.000000	0.230700
2335.000000	0.229776
2336.000000	0.231647
2337.000000	0.231603
2338.000000	0.231120
2339.000000	0.230327
2340.000000	0.228883
2341.000000	0.227294
2342.000000	0.223124
2343.000000	0.223028
2344.000000	0.227723
2345.000000	0.228133
2346.000000	0.229081
2347.000000	0.227941
2348.000000	0.223463
2349.000000	0.217846
2350.000000	0.216276
2351.000000	0.214417
2352.000000	0.211037
2353.000000	0.208855
2354.000000	0.206884
2355.000000	0.205861
2356.000000	0.205750
2357.000000	0.206913
2358.000000	0.204042
2359.000000	0.199096
2360.000000	0.197698
2361.000000	0.197101
2362.000000	0.195937
2363.000000	0.196601
2364.000000	0.196954
2365.000000	0.192922
2366.000000	0.188577
2367.000000	0.187523
2368.000000	0.185548
2369.000000	0.180880
2370.000000	0.181274
2371.000000	0.180137
2372.000000	0.176518
2373.000000	0.179808
2374.000000	0.178824
2375.000000	0.177071
2376.000000	0.179150
2377.000000	0.177153
2378.000000	0.174987
2379.000000	0.173982
2380.000000	0.170340
2381.000000	0.167419
2382.000000	0.166374
2383.000000	0.165686
2384.000000	0.166486
2385.000000	0.164352
2386.000000	0.164343
2387.000000	0.161848
2388.000000	0.154852
2389.000000	0.150397
2390.000000	0.141101
2391.000000	0.134304
2392.000000	0.131903
2393.000000	0.131684
2394.000000	0.137008
2395.000000	0.140645
2396.000000	0.144510
2397.000000	0.145381
2398.000000	0.145637
2399.000000	0.149172
2400.000000	0.148720
2401.000000	0.151058
2402.000000	0.148792
2403.000000	0.142267
2404.000000	0.142090
2405.000000	0.141153
2406.000000	0.139637
2407.000000	0.138209
2408.000000	0.133302
2409.000000	0.127409
2410.000000	0.127275
2411.000000	0.130363
2412.000000	0.138201
2413.000000	0.149132
2414.000000	0.154820
2415.000000	0.158498
2416.000000	0.155135
2417.000000	0.140762
2418.000000	0.132465
2419.000000	0.127575
2420.000000	0.117687
2421.000000	0.118723
2422.000000	0.122315
2423.000000	0.124912
2424.000000	0.130916
2425.000000	0.135874
2426.000000	0.137395
2427.000000	0.133512
2428.000000	0.134942
2429.000000	0.131426
2430.000000	0.127415
2431.000000	0.129467
2432.000000	0.125370
2433.000000	0.125691
2434.000000	0.125659
2435.000000	0.119449
2436.000000	0.109151
2437.000000	0.102257
2438.000000	0.098683
2439.000000	0.092632
2440.000000	0.099210
2441.000000	0.101143
2442.000000	0.096333
2443.000000	0.101652
2444.000000	0.101537
2445.000000	0.106265
2446.000000	0.117072
2447.000000	0.120198
2448.000000	0.126473
2449.000000	0.124722
2450.000000	0.112994
2451.000000	0.108256
2452.000000	0.107475
2453.000000	0.108381
2454.000000	0.111981
2455.000000	0.106686
2456.000000	0.090231
2457.000000	0.088628
2458.000000	0.096022
2459.000000	0.106133
2460.000000	0.131957
2461.000000	0.143638
2462.000000	0.145968
2463.000000	0.158659
2464.000000	0.149230
2465.000000	0.125628
2466.000000	0.107608
2467.000000	0.088872
2468.000000	0.093175
2469.000000	0.115141
2470.000000	0.124306
2471.000000	0.134921
2472.000000	0.123688
2473.000000	0.100617
2474.000000	0.102301
2475.000000	0.095756
2476.000000	0.092046
2477.000000	0.098275
2478.000000	0.087829
2479.000000	0.094535
2480.000000	0.114867
2481.000000	0.118367
2482.000000	0.117101
2483.000000	0.088089
2484.000000	0.042552
2485.000000	0.021963
2486.000000	0.028134
2487.000000	0.054361
2488.000000	0.066967
2489.000000	0.067591
2490.000000	0.068475
2491.000000	0.075871
2492.000000	0.079834
2493.000000	0.089365
2494.000000	0.088638
2495.000000	0.060697
2496.000000	0.045332
2497.000000	0.047201
2498.000000	0.014362
2499.000000	-0.068650
2500.000000	-0.065574
