# Wavelength	SM1200H-10_HEX-50_FV7-40_00001.asd.rts.txt
350.000000	0.218261
351.000000	0.213972
352.000000	0.224152
353.000000	0.227829
354.000000	0.222114
355.000000	0.236027
356.000000	0.243686
357.000000	0.239948
358.000000	0.226477
359.000000	0.231689
360.000000	0.241552
361.000000	0.236259
362.000000	0.234817
363.000000	0.233361
364.000000	0.229171
365.000000	0.228755
366.000000	0.227657
367.000000	0.226549
368.000000	0.231305
369.000000	0.231740
370.000000	0.232492
371.000000	0.240167
372.000000	0.239992
373.000000	0.236277
374.000000	0.234960
375.000000	0.240290
376.000000	0.242425
377.000000	0.241418
378.000000	0.247379
379.000000	0.244725
380.000000	0.239265
381.000000	0.242569
382.000000	0.243450
383.000000	0.243056
384.000000	0.244073
385.000000	0.249273
386.000000	0.250338
387.000000	0.247369
388.000000	0.249080
389.000000	0.249562
390.000000	0.249905
391.000000	0.252506
392.000000	0.250831
393.000000	0.249955
394.000000	0.252992
395.000000	0.251609
396.000000	0.251338
397.000000	0.253462
398.000000	0.253816
399.000000	0.253893
400.000000	0.254273
401.000000	0.255092
402.000000	0.255110
403.000000	0.254936
404.000000	0.255322
405.000000	0.255301
406.000000	0.255893
407.000000	0.257232
408.000000	0.257862
409.000000	0.257580
410.000000	0.257268
411.000000	0.258479
412.000000	0.259442
413.000000	0.260063
414.000000	0.260539
415.000000	0.260009
416.000000	0.260017
417.000000	0.261081
418.000000	0.261124
419.000000	0.261692
420.000000	0.262653
421.000000	0.262440
422.000000	0.262492
423.000000	0.262860
424.000000	0.263253
425.000000	0.263525
426.000000	0.263606
427.000000	0.263609
428.000000	0.264312
429.000000	0.264575
430.000000	0.264365
431.000000	0.265164
432.000000	0.265494
433.000000	0.265433
434.000000	0.265818
435.000000	0.266139
436.000000	0.266261
437.000000	0.266206
438.000000	0.266538
439.000000	0.266721
440.000000	0.266727
441.000000	0.267265
442.000000	0.267865
443.000000	0.268239
444.000000	0.268352
445.000000	0.268489
446.000000	0.268689
447.000000	0.268745
448.000000	0.268860
449.000000	0.269230
450.000000	0.269840
451.000000	0.270062
452.000000	0.270359
453.000000	0.270772
454.000000	0.271136
455.000000	0.271236
456.000000	0.271384
457.000000	0.271886
458.000000	0.272201
459.000000	0.272444
460.000000	0.272797
461.000000	0.272880
462.000000	0.273153
463.000000	0.273572
464.000000	0.273704
465.000000	0.273917
466.000000	0.274297
467.000000	0.274916
468.000000	0.275120
469.000000	0.275084
470.000000	0.275333
471.000000	0.275562
472.000000	0.275704
473.000000	0.275792
474.000000	0.275944
475.000000	0.276061
476.000000	0.276285
477.000000	0.276655
478.000000	0.276851
479.000000	0.276984
480.000000	0.276989
481.000000	0.277455
482.000000	0.277991
483.000000	0.278024
484.000000	0.278265
485.000000	0.278575
486.000000	0.278958
487.000000	0.279049
488.000000	0.279337
489.000000	0.279827
490.000000	0.280186
491.000000	0.280511
492.000000	0.280746
493.000000	0.280734
494.000000	0.281119
495.000000	0.281572
496.000000	0.281811
497.000000	0.282193
498.000000	0.282454
499.000000	0.282654
500.000000	0.283077
501.000000	0.283212
502.000000	0.283239
503.000000	0.283532
504.000000	0.283942
505.000000	0.284298
506.000000	0.284485
507.000000	0.284621
508.000000	0.284842
509.000000	0.285158
510.000000	0.285509
511.000000	0.285782
512.000000	0.286028
513.000000	0.286377
514.000000	0.286808
515.000000	0.287271
516.000000	0.287641
517.000000	0.287990
518.000000	0.288357
519.000000	0.288669
520.000000	0.288934
521.000000	0.289208
522.000000	0.289521
523.000000	0.289845
524.000000	0.290157
525.000000	0.290460
526.000000	0.290825
527.000000	0.291086
528.000000	0.291297
529.000000	0.291597
530.000000	0.291877
531.000000	0.292157
532.000000	0.292386
533.000000	0.292696
534.000000	0.293061
535.000000	0.293394
536.000000	0.293568
537.000000	0.293763
538.000000	0.294035
539.000000	0.294366
540.000000	0.294658
541.000000	0.294898
542.000000	0.295150
543.000000	0.295505
544.000000	0.295790
545.000000	0.295912
546.000000	0.296188
547.000000	0.296559
548.000000	0.296981
549.000000	0.297300
550.000000	0.297544
551.000000	0.297841
552.000000	0.298248
553.000000	0.298511
554.000000	0.298752
555.000000	0.299098
556.000000	0.299567
557.000000	0.299883
558.000000	0.300129
559.000000	0.300447
560.000000	0.300793
561.000000	0.301207
562.000000	0.301592
563.000000	0.301882
564.000000	0.302193
565.000000	0.302530
566.000000	0.302875
567.000000	0.303193
568.000000	0.303472
569.000000	0.303842
570.000000	0.304204
571.000000	0.304527
572.000000	0.304858
573.000000	0.305196
574.000000	0.305494
575.000000	0.305769
576.000000	0.306183
577.000000	0.306578
578.000000	0.306885
579.000000	0.307183
580.000000	0.307510
581.000000	0.307866
582.000000	0.308187
583.000000	0.308527
584.000000	0.308862
585.000000	0.309129
586.000000	0.309435
587.000000	0.309718
588.000000	0.309912
589.000000	0.310152
590.000000	0.310386
591.000000	0.310600
592.000000	0.310941
593.000000	0.311204
594.000000	0.311402
595.000000	0.311789
596.000000	0.312013
597.000000	0.312144
598.000000	0.312309
599.000000	0.312543
600.000000	0.312834
601.000000	0.313084
602.000000	0.313394
603.000000	0.313591
604.000000	0.313664
605.000000	0.313870
606.000000	0.314130
607.000000	0.314378
608.000000	0.314530
609.000000	0.314649
610.000000	0.314805
611.000000	0.315043
612.000000	0.315243
613.000000	0.315414
614.000000	0.315602
615.000000	0.315733
616.000000	0.315857
617.000000	0.315991
618.000000	0.316233
619.000000	0.316486
620.000000	0.316658
621.000000	0.316736
622.000000	0.316858
623.000000	0.316982
624.000000	0.317063
625.000000	0.317176
626.000000	0.317289
627.000000	0.317398
628.000000	0.317541
629.000000	0.317779
630.000000	0.317948
631.000000	0.318075
632.000000	0.318218
633.000000	0.318418
634.000000	0.318653
635.000000	0.318723
636.000000	0.318800
637.000000	0.318971
638.000000	0.319181
639.000000	0.319391
640.000000	0.319623
641.000000	0.319779
642.000000	0.319989
643.000000	0.320197
644.000000	0.320314
645.000000	0.320430
646.000000	0.320564
647.000000	0.320702
648.000000	0.320894
649.000000	0.321113
650.000000	0.321301
651.000000	0.321416
652.000000	0.321524
653.000000	0.321667
654.000000	0.321786
655.000000	0.321914
656.000000	0.322152
657.000000	0.322473
658.000000	0.322617
659.000000	0.322698
660.000000	0.322789
661.000000	0.322940
662.000000	0.323091
663.000000	0.323290
664.000000	0.323527
665.000000	0.323663
666.000000	0.323757
667.000000	0.323875
668.000000	0.324075
669.000000	0.324211
670.000000	0.324263
671.000000	0.324496
672.000000	0.324754
673.000000	0.324979
674.000000	0.325197
675.000000	0.325348
676.000000	0.325471
677.000000	0.325643
678.000000	0.325824
679.000000	0.325999
680.000000	0.326162
681.000000	0.326277
682.000000	0.326472
683.000000	0.326684
684.000000	0.326905
685.000000	0.327051
686.000000	0.327170
687.000000	0.327304
688.000000	0.327478
689.000000	0.327631
690.000000	0.327774
691.000000	0.328030
692.000000	0.328218
693.000000	0.328372
694.000000	0.328594
695.000000	0.328723
696.000000	0.328827
697.000000	0.329053
698.000000	0.329212
699.000000	0.329358
700.000000	0.329547
701.000000	0.329647
702.000000	0.329804
703.000000	0.330019
704.000000	0.330150
705.000000	0.330271
706.000000	0.330414
707.000000	0.330691
708.000000	0.330964
709.000000	0.331126
710.000000	0.331173
711.000000	0.331305
712.000000	0.331490
713.000000	0.331700
714.000000	0.331847
715.000000	0.332001
716.000000	0.332246
717.000000	0.332621
718.000000	0.332801
719.000000	0.332862
720.000000	0.332943
721.000000	0.333064
722.000000	0.333171
723.000000	0.333309
724.000000	0.333456
725.000000	0.333489
726.000000	0.333583
727.000000	0.333827
728.000000	0.333844
729.000000	0.333877
730.000000	0.334073
731.000000	0.334203
732.000000	0.334333
733.000000	0.334495
734.000000	0.334538
735.000000	0.334590
736.000000	0.334766
737.000000	0.334895
738.000000	0.334965
739.000000	0.335090
740.000000	0.335159
741.000000	0.335188
742.000000	0.335303
743.000000	0.335470
744.000000	0.335571
745.000000	0.335743
746.000000	0.335944
747.000000	0.335992
748.000000	0.336160
749.000000	0.336348
750.000000	0.336441
751.000000	0.336537
752.000000	0.336654
753.000000	0.336785
754.000000	0.336876
755.000000	0.336882
756.000000	0.336902
757.000000	0.336989
758.000000	0.337058
759.000000	0.337128
760.000000	0.337149
761.000000	0.337201
762.000000	0.337321
763.000000	0.337433
764.000000	0.337480
765.000000	0.337568
766.000000	0.337702
767.000000	0.337840
768.000000	0.337878
769.000000	0.337932
770.000000	0.338030
771.000000	0.338041
772.000000	0.338124
773.000000	0.338177
774.000000	0.338158
775.000000	0.338164
776.000000	0.338237
777.000000	0.338348
778.000000	0.338374
779.000000	0.338417
780.000000	0.338483
781.000000	0.338462
782.000000	0.338506
783.000000	0.338619
784.000000	0.338595
785.000000	0.338620
786.000000	0.338664
787.000000	0.338703
788.000000	0.338775
789.000000	0.338798
790.000000	0.338813
791.000000	0.338958
792.000000	0.339010
793.000000	0.338931
794.000000	0.338808
795.000000	0.339024
796.000000	0.339234
797.000000	0.339287
798.000000	0.339243
799.000000	0.339150
800.000000	0.339138
801.000000	0.339294
802.000000	0.339309
803.000000	0.339278
804.000000	0.339297
805.000000	0.339249
806.000000	0.339290
807.000000	0.339492
808.000000	0.339692
809.000000	0.339672
810.000000	0.339597
811.000000	0.339599
812.000000	0.339553
813.000000	0.339592
814.000000	0.339693
815.000000	0.339716
816.000000	0.339661
817.000000	0.339643
818.000000	0.339684
819.000000	0.339816
820.000000	0.339874
821.000000	0.339766
822.000000	0.339691
823.000000	0.339604
824.000000	0.339487
825.000000	0.339460
826.000000	0.339512
827.000000	0.339559
828.000000	0.339590
829.000000	0.339591
830.000000	0.339566
831.000000	0.339586
832.000000	0.339562
833.000000	0.339406
834.000000	0.339217
835.000000	0.339127
836.000000	0.339108
837.000000	0.339171
838.000000	0.339268
839.000000	0.339257
840.000000	0.339203
841.000000	0.339137
842.000000	0.339044
843.000000	0.338975
844.000000	0.338945
845.000000	0.338915
846.000000	0.338876
847.000000	0.338992
848.000000	0.339021
849.000000	0.338792
850.000000	0.338856
851.000000	0.338880
852.000000	0.338823
853.000000	0.338986
854.000000	0.338916
855.000000	0.338818
856.000000	0.338836
857.000000	0.338703
858.000000	0.338597
859.000000	0.338493
860.000000	0.338228
861.000000	0.338167
862.000000	0.338262
863.000000	0.338228
864.000000	0.338127
865.000000	0.337997
866.000000	0.337896
867.000000	0.337839
868.000000	0.337769
869.000000	0.337605
870.000000	0.337415
871.000000	0.337394
872.000000	0.337311
873.000000	0.337028
874.000000	0.336911
875.000000	0.336751
876.000000	0.336551
877.000000	0.336324
878.000000	0.336101
879.000000	0.336055
880.000000	0.336039
881.000000	0.335828
882.000000	0.335545
883.000000	0.335251
884.000000	0.334950
885.000000	0.334952
886.000000	0.334964
887.000000	0.334862
888.000000	0.334858
889.000000	0.334707
890.000000	0.334431
891.000000	0.334362
892.000000	0.334163
893.000000	0.333993
894.000000	0.334023
895.000000	0.333957
896.000000	0.333742
897.000000	0.333492
898.000000	0.333345
899.000000	0.333140
900.000000	0.332942
901.000000	0.332750
902.000000	0.332588
903.000000	0.332498
904.000000	0.332379
905.000000	0.332037
906.000000	0.331761
907.000000	0.331621
908.000000	0.331570
909.000000	0.331251
910.000000	0.331035
911.000000	0.330918
912.000000	0.330812
913.000000	0.330566
914.000000	0.330277
915.000000	0.330048
916.000000	0.329802
917.000000	0.329728
918.000000	0.329666
919.000000	0.329461
920.000000	0.329197
921.000000	0.328999
922.000000	0.328839
923.000000	0.328582
924.000000	0.328334
925.000000	0.328056
926.000000	0.327767
927.000000	0.327472
928.000000	0.327388
929.000000	0.327247
930.000000	0.326764
931.000000	0.326480
932.000000	0.326320
933.000000	0.326140
934.000000	0.325666
935.000000	0.325471
936.000000	0.325453
937.000000	0.325290
938.000000	0.324985
939.000000	0.324776
940.000000	0.324582
941.000000	0.324323
942.000000	0.324141
943.000000	0.323917
944.000000	0.323521
945.000000	0.323328
946.000000	0.323142
947.000000	0.322915
948.000000	0.322597
949.000000	0.322295
950.000000	0.322143
951.000000	0.322024
952.000000	0.321730
953.000000	0.321324
954.000000	0.321047
955.000000	0.320924
956.000000	0.320690
957.000000	0.320244
958.000000	0.319806
959.000000	0.319782
960.000000	0.319730
961.000000	0.319444
962.000000	0.319068
963.000000	0.319165
964.000000	0.318968
965.000000	0.318658
966.000000	0.318361
967.000000	0.317925
968.000000	0.317670
969.000000	0.317583
970.000000	0.317595
971.000000	0.317534
972.000000	0.317279
973.000000	0.316840
974.000000	0.316570
975.000000	0.316313
976.000000	0.316035
977.000000	0.315737
978.000000	0.315473
979.000000	0.315389
980.000000	0.315244
981.000000	0.315147
982.000000	0.314956
983.000000	0.314622
984.000000	0.314350
985.000000	0.314391
986.000000	0.314057
987.000000	0.313739
988.000000	0.313626
989.000000	0.313426
990.000000	0.313341
991.000000	0.313217
992.000000	0.312942
993.000000	0.312897
994.000000	0.312837
995.000000	0.312714
996.000000	0.312283
997.000000	0.312074
998.000000	0.311916
999.000000	0.311826
1000.000000	0.311935
1001.000000	0.311604
1002.000000	0.312046
1003.000000	0.312028
1004.000000	0.311862
1005.000000	0.311275
1006.000000	0.310745
1007.000000	0.309985
1008.000000	0.309771
1009.000000	0.309509
1010.000000	0.309061
1011.000000	0.309524
1012.000000	0.309769
1013.000000	0.309961
1014.000000	0.310282
1015.000000	0.309534
1016.000000	0.309604
1017.000000	0.310281
1018.000000	0.310528
1019.000000	0.310654
1020.000000	0.311457
1021.000000	0.310945
1022.000000	0.309136
1023.000000	0.308781
1024.000000	0.308440
1025.000000	0.308883
1026.000000	0.309359
1027.000000	0.309305
1028.000000	0.309294
1029.000000	0.308740
1030.000000	0.308329
1031.000000	0.308689
1032.000000	0.309164
1033.000000	0.309512
1034.000000	0.309682
1035.000000	0.310087
1036.000000	0.310066
1037.000000	0.309069
1038.000000	0.308998
1039.000000	0.309541
1040.000000	0.309880
1041.000000	0.309602
1042.000000	0.309959
1043.000000	0.310191
1044.000000	0.309813
1045.000000	0.310311
1046.000000	0.310861
1047.000000	0.310859
1048.000000	0.310253
1049.000000	0.310141
1050.000000	0.309743
1051.000000	0.309872
1052.000000	0.310514
1053.000000	0.310774
1054.000000	0.311411
1055.000000	0.311795
1056.000000	0.312070
1057.000000	0.312137
1058.000000	0.311932
1059.000000	0.311661
1060.000000	0.311535
1061.000000	0.311649
1062.000000	0.311931
1063.000000	0.312150
1064.000000	0.312366
1065.000000	0.312461
1066.000000	0.312649
1067.000000	0.312830
1068.000000	0.313003
1069.000000	0.313125
1070.000000	0.313319
1071.000000	0.313701
1072.000000	0.313952
1073.000000	0.314342
1074.000000	0.314464
1075.000000	0.314391
1076.000000	0.314611
1077.000000	0.314792
1078.000000	0.314909
1079.000000	0.315427
1080.000000	0.316477
1081.000000	0.316758
1082.000000	0.317258
1083.000000	0.317247
1084.000000	0.316170
1085.000000	0.316096
1086.000000	0.316377
1087.000000	0.316566
1088.000000	0.317077
1089.000000	0.317405
1090.000000	0.317459
1091.000000	0.317657
1092.000000	0.318004
1093.000000	0.318572
1094.000000	0.318789
1095.000000	0.318786
1096.000000	0.318965
1097.000000	0.319061
1098.000000	0.319190
1099.000000	0.319337
1100.000000	0.319662
1101.000000	0.319922
1102.000000	0.320243
1103.000000	0.320956
1104.000000	0.321272
1105.000000	0.321189
1106.000000	0.321348
1107.000000	0.321485
1108.000000	0.321542
1109.000000	0.321642
1110.000000	0.321859
1111.000000	0.322097
1112.000000	0.322264
1113.000000	0.322490
1114.000000	0.322930
1115.000000	0.323162
1116.000000	0.323244
1117.000000	0.323387
1118.000000	0.323628
1119.000000	0.323591
1120.000000	0.323325
1121.000000	0.323234
1122.000000	0.323056
1123.000000	0.323220
1124.000000	0.323431
1125.000000	0.323676
1126.000000	0.323965
1127.000000	0.324194
1128.000000	0.324412
1129.000000	0.324722
1130.000000	0.324887
1131.000000	0.324986
1132.000000	0.325056
1133.000000	0.325028
1134.000000	0.325198
1135.000000	0.325479
1136.000000	0.325555
1137.000000	0.325658
1138.000000	0.325637
1139.000000	0.325427
1140.000000	0.325444
1141.000000	0.325563
1142.000000	0.325587
1143.000000	0.325355
1144.000000	0.325536
1145.000000	0.325849
1146.000000	0.325886
1147.000000	0.326034
1148.000000	0.326372
1149.000000	0.326415
1150.000000	0.326173
1151.000000	0.326199
1152.000000	0.326283
1153.000000	0.326223
1154.000000	0.326125
1155.000000	0.326035
1156.000000	0.325680
1157.000000	0.325668
1158.000000	0.325983
1159.000000	0.326024
1160.000000	0.326063
1161.000000	0.326066
1162.000000	0.325973
1163.000000	0.325931
1164.000000	0.325981
1165.000000	0.325872
1166.000000	0.325888
1167.000000	0.325875
1168.000000	0.325806
1169.000000	0.325827
1170.000000	0.325783
1171.000000	0.325605
1172.000000	0.325623
1173.000000	0.325759
1174.000000	0.325768
1175.000000	0.325768
1176.000000	0.325722
1177.000000	0.325593
1178.000000	0.325578
1179.000000	0.325687
1180.000000	0.325662
1181.000000	0.325735
1182.000000	0.325709
1183.000000	0.325670
1184.000000	0.325701
1185.000000	0.325695
1186.000000	0.325745
1187.000000	0.325690
1188.000000	0.325514
1189.000000	0.325452
1190.000000	0.325387
1191.000000	0.325456
1192.000000	0.325898
1193.000000	0.326062
1194.000000	0.325981
1195.000000	0.326029
1196.000000	0.325955
1197.000000	0.325832
1198.000000	0.325807
1199.000000	0.325736
1200.000000	0.325388
1201.000000	0.325283
1202.000000	0.325458
1203.000000	0.325597
1204.000000	0.325704
1205.000000	0.325767
1206.000000	0.325746
1207.000000	0.325641
1208.000000	0.325604
1209.000000	0.325659
1210.000000	0.325676
1211.000000	0.325663
1212.000000	0.325665
1213.000000	0.325712
1214.000000	0.325783
1215.000000	0.325888
1216.000000	0.325943
1217.000000	0.326009
1218.000000	0.325962
1219.000000	0.325842
1220.000000	0.325706
1221.000000	0.325653
1222.000000	0.325698
1223.000000	0.325858
1224.000000	0.325955
1225.000000	0.325903
1226.000000	0.325844
1227.000000	0.325660
1228.000000	0.325536
1229.000000	0.325434
1230.000000	0.325312
1231.000000	0.325196
1232.000000	0.325256
1233.000000	0.325363
1234.000000	0.325517
1235.000000	0.325544
1236.000000	0.325437
1237.000000	0.325447
1238.000000	0.325366
1239.000000	0.325334
1240.000000	0.325424
1241.000000	0.325462
1242.000000	0.325289
1243.000000	0.325217
1244.000000	0.325371
1245.000000	0.325493
1246.000000	0.325580
1247.000000	0.325747
1248.000000	0.325780
1249.000000	0.325721
1250.000000	0.325726
1251.000000	0.325816
1252.000000	0.325753
1253.000000	0.325561
1254.000000	0.325497
1255.000000	0.325430
1256.000000	0.325327
1257.000000	0.325298
1258.000000	0.325280
1259.000000	0.325126
1260.000000	0.325106
1261.000000	0.325122
1262.000000	0.325117
1263.000000	0.325166
1264.000000	0.325195
1265.000000	0.325132
1266.000000	0.325018
1267.000000	0.324910
1268.000000	0.324784
1269.000000	0.324806
1270.000000	0.325004
1271.000000	0.325049
1272.000000	0.325179
1273.000000	0.325219
1274.000000	0.325061
1275.000000	0.325047
1276.000000	0.325141
1277.000000	0.325141
1278.000000	0.325057
1279.000000	0.325007
1280.000000	0.324813
1281.000000	0.324630
1282.000000	0.324517
1283.000000	0.324520
1284.000000	0.324370
1285.000000	0.324463
1286.000000	0.324822
1287.000000	0.324976
1288.000000	0.325110
1289.000000	0.325251
1290.000000	0.325059
1291.000000	0.324956
1292.000000	0.325046
1293.000000	0.324985
1294.000000	0.324862
1295.000000	0.324856
1296.000000	0.324765
1297.000000	0.324666
1298.000000	0.324757
1299.000000	0.324734
1300.000000	0.324652
1301.000000	0.324667
1302.000000	0.324577
1303.000000	0.324533
1304.000000	0.324450
1305.000000	0.324398
1306.000000	0.324340
1307.000000	0.324334
1308.000000	0.324402
1309.000000	0.324606
1310.000000	0.324617
1311.000000	0.324599
1312.000000	0.324463
1313.000000	0.324367
1314.000000	0.324295
1315.000000	0.324263
1316.000000	0.324291
1317.000000	0.324244
1318.000000	0.324072
1319.000000	0.323970
1320.000000	0.324039
1321.000000	0.324030
1322.000000	0.324065
1323.000000	0.324062
1324.000000	0.323806
1325.000000	0.323481
1326.000000	0.323258
1327.000000	0.323171
1328.000000	0.323143
1329.000000	0.323045
1330.000000	0.323080
1331.000000	0.322945
1332.000000	0.322736
1333.000000	0.322522
1334.000000	0.322199
1335.000000	0.322102
1336.000000	0.322126
1337.000000	0.322090
1338.000000	0.322154
1339.000000	0.322064
1340.000000	0.321876
1341.000000	0.321652
1342.000000	0.321374
1343.000000	0.321243
1344.000000	0.321191
1345.000000	0.320973
1346.000000	0.320855
1347.000000	0.320651
1348.000000	0.320404
1349.000000	0.320231
1350.000000	0.320161
1351.000000	0.320150
1352.000000	0.320093
1353.000000	0.319964
1354.000000	0.319692
1355.000000	0.319430
1356.000000	0.319309
1357.000000	0.319000
1358.000000	0.318850
1359.000000	0.318798
1360.000000	0.318654
1361.000000	0.318499
1362.000000	0.318387
1363.000000	0.318256
1364.000000	0.318046
1365.000000	0.317774
1366.000000	0.317609
1367.000000	0.317393
1368.000000	0.317229
1369.000000	0.317442
1370.000000	0.317456
1371.000000	0.317264
1372.000000	0.317062
1373.000000	0.316720
1374.000000	0.316298
1375.000000	0.315962
1376.000000	0.315846
1377.000000	0.315642
1378.000000	0.315279
1379.000000	0.314874
1380.000000	0.314533
1381.000000	0.314079
1382.000000	0.313504
1383.000000	0.313086
1384.000000	0.312450
1385.000000	0.311615
1386.000000	0.311052
1387.000000	0.310490
1388.000000	0.309859
1389.000000	0.309539
1390.000000	0.309277
1391.000000	0.308914
1392.000000	0.308748
1393.000000	0.308460
1394.000000	0.308134
1395.000000	0.307867
1396.000000	0.307607
1397.000000	0.307234
1398.000000	0.306845
1399.000000	0.306426
1400.000000	0.305977
1401.000000	0.305447
1402.000000	0.304908
1403.000000	0.304243
1404.000000	0.303791
1405.000000	0.303158
1406.000000	0.302410
1407.000000	0.301865
1408.000000	0.301067
1409.000000	0.300127
1410.000000	0.299421
1411.000000	0.298666
1412.000000	0.297721
1413.000000	0.296908
1414.000000	0.296213
1415.000000	0.295428
1416.000000	0.294649
1417.000000	0.293970
1418.000000	0.293151
1419.000000	0.292347
1420.000000	0.291702
1421.000000	0.291193
1422.000000	0.290625
1423.000000	0.290046
1424.000000	0.289312
1425.000000	0.288514
1426.000000	0.287814
1427.000000	0.287193
1428.000000	0.286661
1429.000000	0.286197
1430.000000	0.285613
1431.000000	0.285005
1432.000000	0.284444
1433.000000	0.283944
1434.000000	0.283368
1435.000000	0.282838
1436.000000	0.282338
1437.000000	0.281821
1438.000000	0.281290
1439.000000	0.280851
1440.000000	0.280372
1441.000000	0.279804
1442.000000	0.279344
1443.000000	0.278871
1444.000000	0.278451
1445.000000	0.278119
1446.000000	0.277766
1447.000000	0.277294
1448.000000	0.276937
1449.000000	0.276591
1450.000000	0.276133
1451.000000	0.275840
1452.000000	0.275528
1453.000000	0.275166
1454.000000	0.274947
1455.000000	0.274758
1456.000000	0.274620
1457.000000	0.274434
1458.000000	0.274240
1459.000000	0.274120
1460.000000	0.273838
1461.000000	0.273617
1462.000000	0.273594
1463.000000	0.273439
1464.000000	0.273304
1465.000000	0.273273
1466.000000	0.273074
1467.000000	0.272936
1468.000000	0.272953
1469.000000	0.272994
1470.000000	0.272932
1471.000000	0.272898
1472.000000	0.272964
1473.000000	0.273101
1474.000000	0.273168
1475.000000	0.273263
1476.000000	0.273401
1477.000000	0.273502
1478.000000	0.273720
1479.000000	0.273988
1480.000000	0.274150
1481.000000	0.274295
1482.000000	0.274416
1483.000000	0.274643
1484.000000	0.274884
1485.000000	0.275175
1486.000000	0.275527
1487.000000	0.275859
1488.000000	0.276289
1489.000000	0.276579
1490.000000	0.276689
1491.000000	0.276952
1492.000000	0.277069
1493.000000	0.277337
1494.000000	0.277782
1495.000000	0.278067
1496.000000	0.278347
1497.000000	0.278618
1498.000000	0.278815
1499.000000	0.279074
1500.000000	0.279425
1501.000000	0.279576
1502.000000	0.279688
1503.000000	0.279869
1504.000000	0.279928
1505.000000	0.280099
1506.000000	0.280396
1507.000000	0.280546
1508.000000	0.280739
1509.000000	0.280959
1510.000000	0.281135
1511.000000	0.281333
1512.000000	0.281530
1513.000000	0.281730
1514.000000	0.281885
1515.000000	0.282037
1516.000000	0.282275
1517.000000	0.282411
1518.000000	0.282594
1519.000000	0.282820
1520.000000	0.282959
1521.000000	0.283016
1522.000000	0.283030
1523.000000	0.283032
1524.000000	0.283033
1525.000000	0.283129
1526.000000	0.283290
1527.000000	0.283446
1528.000000	0.283612
1529.000000	0.283717
1530.000000	0.283742
1531.000000	0.283826
1532.000000	0.283847
1533.000000	0.283874
1534.000000	0.283964
1535.000000	0.284127
1536.000000	0.284234
1537.000000	0.284278
1538.000000	0.284349
1539.000000	0.284221
1540.000000	0.284123
1541.000000	0.284205
1542.000000	0.284235
1543.000000	0.284358
1544.000000	0.284543
1545.000000	0.284654
1546.000000	0.284690
1547.000000	0.284712
1548.000000	0.284772
1549.000000	0.284780
1550.000000	0.284796
1551.000000	0.284772
1552.000000	0.284613
1553.000000	0.284549
1554.000000	0.284576
1555.000000	0.284601
1556.000000	0.284709
1557.000000	0.284757
1558.000000	0.284857
1559.000000	0.284947
1560.000000	0.284994
1561.000000	0.285139
1562.000000	0.285090
1563.000000	0.284895
1564.000000	0.284813
1565.000000	0.284665
1566.000000	0.284532
1567.000000	0.284529
1568.000000	0.284551
1569.000000	0.284661
1570.000000	0.284727
1571.000000	0.284890
1572.000000	0.284859
1573.000000	0.284616
1574.000000	0.284574
1575.000000	0.284576
1576.000000	0.284605
1577.000000	0.284783
1578.000000	0.284808
1579.000000	0.284791
1580.000000	0.284755
1581.000000	0.284673
1582.000000	0.284710
1583.000000	0.284802
1584.000000	0.284788
1585.000000	0.284926
1586.000000	0.284978
1587.000000	0.284893
1588.000000	0.284823
1589.000000	0.284759
1590.000000	0.284709
1591.000000	0.284609
1592.000000	0.284662
1593.000000	0.284871
1594.000000	0.284929
1595.000000	0.285071
1596.000000	0.285118
1597.000000	0.285028
1598.000000	0.285062
1599.000000	0.285181
1600.000000	0.285163
1601.000000	0.285190
1602.000000	0.285229
1603.000000	0.285215
1604.000000	0.285246
1605.000000	0.285424
1606.000000	0.285447
1607.000000	0.285392
1608.000000	0.285410
1609.000000	0.285467
1610.000000	0.285455
1611.000000	0.285465
1612.000000	0.285457
1613.000000	0.285456
1614.000000	0.285480
1615.000000	0.285651
1616.000000	0.285756
1617.000000	0.285749
1618.000000	0.285795
1619.000000	0.285800
1620.000000	0.285829
1621.000000	0.285967
1622.000000	0.286089
1623.000000	0.286157
1624.000000	0.286214
1625.000000	0.286108
1626.000000	0.286072
1627.000000	0.286109
1628.000000	0.286162
1629.000000	0.286186
1630.000000	0.286306
1631.000000	0.286384
1632.000000	0.286495
1633.000000	0.286767
1634.000000	0.286971
1635.000000	0.287169
1636.000000	0.287355
1637.000000	0.287556
1638.000000	0.287667
1639.000000	0.287824
1640.000000	0.287868
1641.000000	0.287812
1642.000000	0.287862
1643.000000	0.287874
1644.000000	0.288033
1645.000000	0.288408
1646.000000	0.288546
1647.000000	0.288699
1648.000000	0.288756
1649.000000	0.288655
1650.000000	0.288774
1651.000000	0.289075
1652.000000	0.289207
1653.000000	0.289300
1654.000000	0.289428
1655.000000	0.289348
1656.000000	0.289427
1657.000000	0.289767
1658.000000	0.289912
1659.000000	0.290094
1660.000000	0.290253
1661.000000	0.290242
1662.000000	0.290362
1663.000000	0.290526
1664.000000	0.290684
1665.000000	0.290850
1666.000000	0.291095
1667.000000	0.291336
1668.000000	0.291477
1669.000000	0.291603
1670.000000	0.291680
1671.000000	0.291741
1672.000000	0.291861
1673.000000	0.292011
1674.000000	0.291994
1675.000000	0.292114
1676.000000	0.292258
1677.000000	0.292386
1678.000000	0.292530
1679.000000	0.292512
1680.000000	0.292363
1681.000000	0.292274
1682.000000	0.292323
1683.000000	0.292513
1684.000000	0.292705
1685.000000	0.292832
1686.000000	0.293021
1687.000000	0.293184
1688.000000	0.293194
1689.000000	0.293336
1690.000000	0.293343
1691.000000	0.293260
1692.000000	0.293334
1693.000000	0.293445
1694.000000	0.293427
1695.000000	0.293473
1696.000000	0.293485
1697.000000	0.293472
1698.000000	0.293529
1699.000000	0.293623
1700.000000	0.293707
1701.000000	0.293899
1702.000000	0.294081
1703.000000	0.294153
1704.000000	0.294239
1705.000000	0.294333
1706.000000	0.294441
1707.000000	0.294490
1708.000000	0.294461
1709.000000	0.294488
1710.000000	0.294604
1711.000000	0.294673
1712.000000	0.294827
1713.000000	0.294912
1714.000000	0.294914
1715.000000	0.294966
1716.000000	0.295074
1717.000000	0.295138
1718.000000	0.295125
1719.000000	0.295174
1720.000000	0.295328
1721.000000	0.295394
1722.000000	0.295452
1723.000000	0.295521
1724.000000	0.295523
1725.000000	0.295641
1726.000000	0.295790
1727.000000	0.295891
1728.000000	0.295967
1729.000000	0.295962
1730.000000	0.295990
1731.000000	0.296049
1732.000000	0.296154
1733.000000	0.296223
1734.000000	0.296104
1735.000000	0.296199
1736.000000	0.296291
1737.000000	0.296440
1738.000000	0.296814
1739.000000	0.296966
1740.000000	0.297005
1741.000000	0.297029
1742.000000	0.296997
1743.000000	0.297037
1744.000000	0.297044
1745.000000	0.297053
1746.000000	0.297084
1747.000000	0.297076
1748.000000	0.297027
1749.000000	0.296961
1750.000000	0.296891
1751.000000	0.296931
1752.000000	0.297019
1753.000000	0.296974
1754.000000	0.297003
1755.000000	0.297038
1756.000000	0.297060
1757.000000	0.297115
1758.000000	0.297196
1759.000000	0.297206
1760.000000	0.297325
1761.000000	0.297529
1762.000000	0.297689
1763.000000	0.297994
1764.000000	0.298106
1765.000000	0.298012
1766.000000	0.298035
1767.000000	0.297924
1768.000000	0.297847
1769.000000	0.297919
1770.000000	0.298008
1771.000000	0.298049
1772.000000	0.298097
1773.000000	0.298127
1774.000000	0.298233
1775.000000	0.298442
1776.000000	0.298533
1777.000000	0.298611
1778.000000	0.298655
1779.000000	0.298516
1780.000000	0.298643
1781.000000	0.298944
1782.000000	0.299017
1783.000000	0.299117
1784.000000	0.299302
1785.000000	0.299252
1786.000000	0.299224
1787.000000	0.299230
1788.000000	0.299262
1789.000000	0.299405
1790.000000	0.299858
1791.000000	0.300059
1792.000000	0.300115
1793.000000	0.300185
1794.000000	0.300156
1795.000000	0.300252
1796.000000	0.300465
1797.000000	0.300525
1798.000000	0.300478
1799.000000	0.300569
1800.000000	0.300624
1801.000000	0.300615
1802.000000	0.300615
1803.000000	0.300441
1804.000000	0.300449
1805.000000	0.300331
1806.000000	0.300338
1807.000000	0.300547
1808.000000	0.300669
1809.000000	0.300908
1810.000000	0.300926
1811.000000	0.300777
1812.000000	0.300268
1813.000000	0.300384
1814.000000	0.300912
1815.000000	0.300926
1816.000000	0.301534
1817.000000	0.301148
1818.000000	0.299829
1819.000000	0.298280
1820.000000	0.298297
1821.000000	0.297632
1822.000000	0.297930
1823.000000	0.299690
1824.000000	0.300235
1825.000000	0.300558
1826.000000	0.301021
1827.000000	0.301335
1828.000000	0.301074
1829.000000	0.301417
1830.000000	0.300687
1831.000000	0.300321
1832.000000	0.299363
1833.000000	0.299281
1834.000000	0.300088
1835.000000	0.299955
1836.000000	0.299644
1837.000000	0.299399
1838.000000	0.298268
1839.000000	0.297602
1840.000000	0.297793
1841.000000	0.297529
1842.000000	0.297460
1843.000000	0.297450
1844.000000	0.297421
1845.000000	0.297305
1846.000000	0.297506
1847.000000	0.297812
1848.000000	0.298076
1849.000000	0.298315
1850.000000	0.298069
1851.000000	0.297834
1852.000000	0.297143
1853.000000	0.296932
1854.000000	0.296763
1855.000000	0.296354
1856.000000	0.295948
1857.000000	0.295614
1858.000000	0.294261
1859.000000	0.293086
1860.000000	0.292553
1861.000000	0.291601
1862.000000	0.290803
1863.000000	0.290528
1864.000000	0.289909
1865.000000	0.289074
1866.000000	0.288116
1867.000000	0.286946
1868.000000	0.286029
1869.000000	0.284919
1870.000000	0.283920
1871.000000	0.283094
1872.000000	0.282605
1873.000000	0.281674
1874.000000	0.280628
1875.000000	0.279255
1876.000000	0.277565
1877.000000	0.275163
1878.000000	0.272548
1879.000000	0.270261
1880.000000	0.268383
1881.000000	0.266362
1882.000000	0.264935
1883.000000	0.263430
1884.000000	0.261431
1885.000000	0.258735
1886.000000	0.256470
1887.000000	0.254200
1888.000000	0.251374
1889.000000	0.248617
1890.000000	0.246373
1891.000000	0.243490
1892.000000	0.240609
1893.000000	0.238438
1894.000000	0.236080
1895.000000	0.233471
1896.000000	0.231047
1897.000000	0.228357
1898.000000	0.224956
1899.000000	0.221792
1900.000000	0.218691
1901.000000	0.215804
1902.000000	0.213358
1903.000000	0.211003
1904.000000	0.208516
1905.000000	0.206450
1906.000000	0.204383
1907.000000	0.202564
1908.000000	0.200486
1909.000000	0.198623
1910.000000	0.196424
1911.000000	0.193688
1912.000000	0.191163
1913.000000	0.189553
1914.000000	0.188068
1915.000000	0.186906
1916.000000	0.186299
1917.000000	0.185169
1918.000000	0.183716
1919.000000	0.182245
1920.000000	0.181320
1921.000000	0.180530
1922.000000	0.179716
1923.000000	0.179400
1924.000000	0.178384
1925.000000	0.177106
1926.000000	0.176633
1927.000000	0.176015
1928.000000	0.175579
1929.000000	0.175523
1930.000000	0.175621
1931.000000	0.175444
1932.000000	0.175618
1933.000000	0.176147
1934.000000	0.176672
1935.000000	0.176654
1936.000000	0.176917
1937.000000	0.176996
1938.000000	0.176147
1939.000000	0.175798
1940.000000	0.175881
1941.000000	0.175538
1942.000000	0.174662
1943.000000	0.174424
1944.000000	0.174204
1945.000000	0.173790
1946.000000	0.173464
1947.000000	0.173772
1948.000000	0.173905
1949.000000	0.173796
1950.000000	0.173921
1951.000000	0.173774
1952.000000	0.173298
1953.000000	0.172871
1954.000000	0.173051
1955.000000	0.173159
1956.000000	0.172760
1957.000000	0.172348
1958.000000	0.171670
1959.000000	0.170923
1960.000000	0.170885
1961.000000	0.170737
1962.000000	0.170624
1963.000000	0.170648
1964.000000	0.170626
1965.000000	0.169887
1966.000000	0.169616
1967.000000	0.169313
1968.000000	0.168515
1969.000000	0.168571
1970.000000	0.168912
1971.000000	0.168870
1972.000000	0.169411
1973.000000	0.169678
1974.000000	0.169934
1975.000000	0.169975
1976.000000	0.169875
1977.000000	0.169880
1978.000000	0.169817
1979.000000	0.170325
1980.000000	0.171279
1981.000000	0.171977
1982.000000	0.172419
1983.000000	0.172771
1984.000000	0.172978
1985.000000	0.172953
1986.000000	0.172923
1987.000000	0.172760
1988.000000	0.172682
1989.000000	0.173121
1990.000000	0.173680
1991.000000	0.174705
1992.000000	0.175983
1993.000000	0.176800
1994.000000	0.177267
1995.000000	0.177349
1996.000000	0.177974
1997.000000	0.178517
1998.000000	0.179052
1999.000000	0.179660
2000.000000	0.180648
2001.000000	0.180898
2002.000000	0.181388
2003.000000	0.182130
2004.000000	0.182507
2005.000000	0.183112
2006.000000	0.183922
2007.000000	0.184950
2008.000000	0.185840
2009.000000	0.187042
2010.000000	0.187914
2011.000000	0.188403
2012.000000	0.188901
2013.000000	0.189351
2014.000000	0.189635
2015.000000	0.189463
2016.000000	0.189553
2017.000000	0.190594
2018.000000	0.191342
2019.000000	0.192729
2020.000000	0.194421
2021.000000	0.195553
2022.000000	0.196275
2023.000000	0.197151
2024.000000	0.197942
2025.000000	0.198639
2026.000000	0.199136
2027.000000	0.199381
2028.000000	0.200191
2029.000000	0.200909
2030.000000	0.201402
2031.000000	0.202329
2032.000000	0.203379
2033.000000	0.204212
2034.000000	0.204900
2035.000000	0.205834
2036.000000	0.206543
2037.000000	0.206751
2038.000000	0.207346
2039.000000	0.208320
2040.000000	0.209246
2041.000000	0.209626
2042.000000	0.210541
2043.000000	0.211248
2044.000000	0.211703
2045.000000	0.212263
2046.000000	0.212262
2047.000000	0.212464
2048.000000	0.212371
2049.000000	0.212687
2050.000000	0.212774
2051.000000	0.213313
2052.000000	0.214456
2053.000000	0.215015
2054.000000	0.215546
2055.000000	0.216508
2056.000000	0.216828
2057.000000	0.216843
2058.000000	0.217908
2059.000000	0.218754
2060.000000	0.219368
2061.000000	0.220240
2062.000000	0.220724
2063.000000	0.220643
2064.000000	0.220776
2065.000000	0.221103
2066.000000	0.221456
2067.000000	0.221778
2068.000000	0.222616
2069.000000	0.223657
2070.000000	0.223961
2071.000000	0.224895
2072.000000	0.225182
2073.000000	0.224731
2074.000000	0.224975
2075.000000	0.225490
2076.000000	0.225886
2077.000000	0.226620
2078.000000	0.228484
2079.000000	0.229369
2080.000000	0.229832
2081.000000	0.230327
2082.000000	0.230660
2083.000000	0.230597
2084.000000	0.230791
2085.000000	0.231177
2086.000000	0.232259
2087.000000	0.233201
2088.000000	0.233842
2089.000000	0.234485
2090.000000	0.234725
2091.000000	0.234130
2092.000000	0.234337
2093.000000	0.234658
2094.000000	0.235196
2095.000000	0.236458
2096.000000	0.237124
2097.000000	0.237617
2098.000000	0.237868
2099.000000	0.238096
2100.000000	0.238559
2101.000000	0.238983
2102.000000	0.240570
2103.000000	0.241936
2104.000000	0.242409
2105.000000	0.243094
2106.000000	0.243705
2107.000000	0.243980
2108.000000	0.243929
2109.000000	0.244153
2110.000000	0.243953
2111.000000	0.244187
2112.000000	0.244483
2113.000000	0.245005
2114.000000	0.246196
2115.000000	0.246866
2116.000000	0.247240
2117.000000	0.247671
2118.000000	0.248187
2119.000000	0.248957
2120.000000	0.249361
2121.000000	0.250220
2122.000000	0.250399
2123.000000	0.249346
2124.000000	0.249361
2125.000000	0.249969
2126.000000	0.250043
2127.000000	0.250688
2128.000000	0.250703
2129.000000	0.249939
2130.000000	0.248928
2131.000000	0.248474
2132.000000	0.248678
2133.000000	0.249951
2134.000000	0.251603
2135.000000	0.252709
2136.000000	0.253335
2137.000000	0.253362
2138.000000	0.252293
2139.000000	0.251863
2140.000000	0.250642
2141.000000	0.250648
2142.000000	0.251779
2143.000000	0.251934
2144.000000	0.252446
2145.000000	0.253114
2146.000000	0.253545
2147.000000	0.253977
2148.000000	0.254833
2149.000000	0.255287
2150.000000	0.254253
2151.000000	0.252876
2152.000000	0.252634
2153.000000	0.252238
2154.000000	0.252204
2155.000000	0.253338
2156.000000	0.253728
2157.000000	0.253651
2158.000000	0.253781
2159.000000	0.254102
2160.000000	0.254378
2161.000000	0.254806
2162.000000	0.255054
2163.000000	0.254627
2164.000000	0.254740
2165.000000	0.255347
2166.000000	0.255100
2167.000000	0.255521
2168.000000	0.256241
2169.000000	0.256181
2170.000000	0.256369
2171.000000	0.256335
2172.000000	0.256296
2173.000000	0.255946
2174.000000	0.254914
2175.000000	0.255078
2176.000000	0.255722
2177.000000	0.256157
2178.000000	0.257917
2179.000000	0.258053
2180.000000	0.256402
2181.000000	0.256433
2182.000000	0.255961
2183.000000	0.255896
2184.000000	0.258258
2185.000000	0.259322
2186.000000	0.259879
2187.000000	0.260915
2188.000000	0.260258
2189.000000	0.258929
2190.000000	0.257711
2191.000000	0.258126
2192.000000	0.258082
2193.000000	0.258936
2194.000000	0.258565
2195.000000	0.257077
2196.000000	0.256334
2197.000000	0.255756
2198.000000	0.254766
2199.000000	0.254059
2200.000000	0.253560
2201.000000	0.251771
2202.000000	0.250986
2203.000000	0.251559
2204.000000	0.251732
2205.000000	0.251329
2206.000000	0.251236
2207.000000	0.250910
2208.000000	0.252666
2209.000000	0.253741
2210.000000	0.255701
2211.000000	0.256143
2212.000000	0.254278
2213.000000	0.253381
2214.000000	0.250746
2215.000000	0.250537
2216.000000	0.252503
2217.000000	0.252913
2218.000000	0.253740
2219.000000	0.254248
2220.000000	0.253681
2221.000000	0.253960
2222.000000	0.254468
2223.000000	0.255583
2224.000000	0.258062
2225.000000	0.258231
2226.000000	0.258713
2227.000000	0.259266
2228.000000	0.258461
2229.000000	0.257899
2230.000000	0.257982
2231.000000	0.257589
2232.000000	0.258457
2233.000000	0.259255
2234.000000	0.258254
2235.000000	0.258278
2236.000000	0.258885
2237.000000	0.259624
2238.000000	0.259934
2239.000000	0.261050
2240.000000	0.261788
2241.000000	0.260438
2242.000000	0.260837
2243.000000	0.264165
2244.000000	0.264906
2245.000000	0.265303
2246.000000	0.265446
2247.000000	0.263550
2248.000000	0.261984
2249.000000	0.261131
2250.000000	0.258468
2251.000000	0.255548
2252.000000	0.253060
2253.000000	0.252223
2254.000000	0.251713
2255.000000	0.250130
2256.000000	0.250871
2257.000000	0.252512
2258.000000	0.253751
2259.000000	0.256879
2260.000000	0.258911
2261.000000	0.258610
2262.000000	0.254792
2263.000000	0.254122
2264.000000	0.253308
2265.000000	0.253627
2266.000000	0.256266
2267.000000	0.257351
2268.000000	0.257699
2269.000000	0.258278
2270.000000	0.259710
2271.000000	0.258880
2272.000000	0.256805
2273.000000	0.255194
2274.000000	0.250667
2275.000000	0.249599
2276.000000	0.251543
2277.000000	0.251204
2278.000000	0.252258
2279.000000	0.253895
2280.000000	0.252863
2281.000000	0.251965
2282.000000	0.251061
2283.000000	0.248377
2284.000000	0.245569
2285.000000	0.243854
2286.000000	0.242102
2287.000000	0.240445
2288.000000	0.241137
2289.000000	0.243479
2290.000000	0.244793
2291.000000	0.246181
2292.000000	0.245737
2293.000000	0.242136
2294.000000	0.241108
2295.000000	0.241080
2296.000000	0.240529
2297.000000	0.240683
2298.000000	0.240684
2299.000000	0.239834
2300.000000	0.238945
2301.000000	0.239409
2302.000000	0.238773
2303.000000	0.236610
2304.000000	0.235200
2305.000000	0.232557
2306.000000	0.231469
2307.000000	0.231004
2308.000000	0.232362
2309.000000	0.232821
2310.000000	0.234808
2311.000000	0.238408
2312.000000	0.238266
2313.000000	0.239004
2314.000000	0.241340
2315.000000	0.238538
2316.000000	0.237290
2317.000000	0.236591
2318.000000	0.232706
2319.000000	0.229792
2320.000000	0.227543
2321.000000	0.227551
2322.000000	0.228390
2323.000000	0.228599
2324.000000	0.230227
2325.000000	0.229601
2326.000000	0.227859
2327.000000	0.228645
2328.000000	0.228534
2329.000000	0.229340
2330.000000	0.228588
2331.000000	0.224041
2332.000000	0.222193
2333.000000	0.220205
2334.000000	0.219351
2335.000000	0.218805
2336.000000	0.220416
2337.000000	0.219510
2338.000000	0.216325
2339.000000	0.214752
2340.000000	0.212113
2341.000000	0.211968
2342.000000	0.214794
2343.000000	0.216363
2344.000000	0.220506
2345.000000	0.222694
2346.000000	0.222409
2347.000000	0.221411
2348.000000	0.220409
2349.000000	0.216556
2350.000000	0.211842
2351.000000	0.207535
2352.000000	0.202226
2353.000000	0.199692
2354.000000	0.196484
2355.000000	0.199468
2356.000000	0.203694
2357.000000	0.201533
2358.000000	0.200749
2359.000000	0.198447
2360.000000	0.198242
2361.000000	0.202820
2362.000000	0.206346
2363.000000	0.209851
2364.000000	0.205726
2365.000000	0.198443
2366.000000	0.195540
2367.000000	0.189536
2368.000000	0.186913
2369.000000	0.187823
2370.000000	0.185258
2371.000000	0.183601
2372.000000	0.185829
2373.000000	0.188994
2374.000000	0.191490
2375.000000	0.195922
2376.000000	0.197316
2377.000000	0.194203
2378.000000	0.194086
2379.000000	0.196652
2380.000000	0.194729
2381.000000	0.189668
2382.000000	0.185548
2383.000000	0.179905
2384.000000	0.180309
2385.000000	0.189424
2386.000000	0.196011
2387.000000	0.195987
2388.000000	0.192252
2389.000000	0.184087
2390.000000	0.179534
2391.000000	0.183473
2392.000000	0.185566
2393.000000	0.185997
2394.000000	0.181532
2395.000000	0.173590
2396.000000	0.168838
2397.000000	0.169363
2398.000000	0.176019
2399.000000	0.183006
2400.000000	0.189779
2401.000000	0.195097
2402.000000	0.196501
2403.000000	0.195777
2404.000000	0.196969
2405.000000	0.199444
2406.000000	0.200526
2407.000000	0.198501
2408.000000	0.191851
2409.000000	0.182112
2410.000000	0.180234
2411.000000	0.180164
2412.000000	0.180416
2413.000000	0.186023
2414.000000	0.183495
2415.000000	0.182782
2416.000000	0.183603
2417.000000	0.176938
2418.000000	0.169696
2419.000000	0.167229
2420.000000	0.169122
2421.000000	0.172134
2422.000000	0.169998
2423.000000	0.167848
2424.000000	0.167349
2425.000000	0.156966
2426.000000	0.152766
2427.000000	0.150964
2428.000000	0.140817
2429.000000	0.136707
2430.000000	0.135903
2431.000000	0.136114
2432.000000	0.143696
2433.000000	0.154556
2434.000000	0.167843
2435.000000	0.179561
2436.000000	0.174407
2437.000000	0.155707
2438.000000	0.142244
2439.000000	0.138908
2440.000000	0.148018
2441.000000	0.173202
2442.000000	0.188368
2443.000000	0.178078
2444.000000	0.161037
2445.000000	0.136399
2446.000000	0.121378
2447.000000	0.125701
2448.000000	0.132831
2449.000000	0.155317
2450.000000	0.168799
2451.000000	0.168807
2452.000000	0.170762
2453.000000	0.158788
2454.000000	0.146730
2455.000000	0.156049
2456.000000	0.157594
2457.000000	0.152240
2458.000000	0.166751
2459.000000	0.157419
2460.000000	0.153532
2461.000000	0.166009
2462.000000	0.148775
2463.000000	0.141049
2464.000000	0.141065
2465.000000	0.141478
2466.000000	0.146130
2467.000000	0.145234
2468.000000	0.146195
2469.000000	0.134443
2470.000000	0.126700
2471.000000	0.121699
2472.000000	0.114272
2473.000000	0.137317
2474.000000	0.152946
2475.000000	0.164629
2476.000000	0.167883
2477.000000	0.130857
2478.000000	0.124729
2479.000000	0.144399
2480.000000	0.161674
2481.000000	0.187664
2482.000000	0.187783
2483.000000	0.169480
2484.000000	0.165996
2485.000000	0.169102
2486.000000	0.171603
2487.000000	0.163038
2488.000000	0.142083
2489.000000	0.130018
2490.000000	0.109331
2491.000000	0.135872
2492.000000	0.128604
2493.000000	0.103236
2494.000000	0.104923
2495.000000	0.077585
2496.000000	0.087307
2497.000000	0.171021
2498.000000	0.185674
2499.000000	0.159264
2500.000000	0.163682
