# Wavelength	SM1200H-90_FV7-10_00001.asd.rts.txt
350.000000	0.457977
351.000000	0.455859
352.000000	0.451091
353.000000	0.448693
354.000000	0.453173
355.000000	0.452937
356.000000	0.453213
357.000000	0.455395
358.000000	0.450652
359.000000	0.450314
360.000000	0.453962
361.000000	0.457529
362.000000	0.459389
363.000000	0.460949
364.000000	0.462083
365.000000	0.462145
366.000000	0.463757
367.000000	0.465560
368.000000	0.463763
369.000000	0.464270
370.000000	0.466388
371.000000	0.467478
372.000000	0.466447
373.000000	0.465727
374.000000	0.467766
375.000000	0.471021
376.000000	0.471723
377.000000	0.470261
378.000000	0.471681
379.000000	0.473131
380.000000	0.474196
381.000000	0.476534
382.000000	0.477519
383.000000	0.477658
384.000000	0.478010
385.000000	0.477940
386.000000	0.478987
387.000000	0.481038
388.000000	0.481479
389.000000	0.481147
390.000000	0.481345
391.000000	0.482759
392.000000	0.482943
393.000000	0.483029
394.000000	0.484076
395.000000	0.485513
396.000000	0.486282
397.000000	0.486260
398.000000	0.486774
399.000000	0.486938
400.000000	0.487278
401.000000	0.488507
402.000000	0.488773
403.000000	0.489058
404.000000	0.490373
405.000000	0.490150
406.000000	0.490269
407.000000	0.491404
408.000000	0.491761
409.000000	0.492119
410.000000	0.492625
411.000000	0.493049
412.000000	0.493295
413.000000	0.493396
414.000000	0.493524
415.000000	0.494151
416.000000	0.494642
417.000000	0.494839
418.000000	0.495897
419.000000	0.496487
420.000000	0.496477
421.000000	0.496666
422.000000	0.497229
423.000000	0.497836
424.000000	0.498208
425.000000	0.498822
426.000000	0.499331
427.000000	0.499503
428.000000	0.499862
429.000000	0.500411
430.000000	0.501070
431.000000	0.501620
432.000000	0.502108
433.000000	0.502487
434.000000	0.502902
435.000000	0.503339
436.000000	0.503653
437.000000	0.503762
438.000000	0.504225
439.000000	0.504650
440.000000	0.505001
441.000000	0.505310
442.000000	0.505571
443.000000	0.505780
444.000000	0.506281
445.000000	0.506641
446.000000	0.507058
447.000000	0.507484
448.000000	0.507836
449.000000	0.508287
450.000000	0.508886
451.000000	0.509176
452.000000	0.509414
453.000000	0.509660
454.000000	0.510267
455.000000	0.510568
456.000000	0.510818
457.000000	0.511248
458.000000	0.511541
459.000000	0.511903
460.000000	0.512557
461.000000	0.512904
462.000000	0.513200
463.000000	0.513332
464.000000	0.513551
465.000000	0.513671
466.000000	0.513728
467.000000	0.514168
468.000000	0.514428
469.000000	0.514467
470.000000	0.514708
471.000000	0.514947
472.000000	0.515145
473.000000	0.515372
474.000000	0.515733
475.000000	0.515859
476.000000	0.516013
477.000000	0.516475
478.000000	0.516602
479.000000	0.516818
480.000000	0.517224
481.000000	0.517361
482.000000	0.517615
483.000000	0.517924
484.000000	0.518272
485.000000	0.518485
486.000000	0.518805
487.000000	0.519028
488.000000	0.519248
489.000000	0.519566
490.000000	0.520056
491.000000	0.520435
492.000000	0.520747
493.000000	0.520879
494.000000	0.521204
495.000000	0.521632
496.000000	0.521982
497.000000	0.522348
498.000000	0.522643
499.000000	0.522988
500.000000	0.523374
501.000000	0.523665
502.000000	0.524016
503.000000	0.524514
504.000000	0.524974
505.000000	0.525317
506.000000	0.525542
507.000000	0.525805
508.000000	0.526198
509.000000	0.526633
510.000000	0.526948
511.000000	0.527246
512.000000	0.527617
513.000000	0.528041
514.000000	0.528411
515.000000	0.528763
516.000000	0.529053
517.000000	0.529361
518.000000	0.529745
519.000000	0.530078
520.000000	0.530469
521.000000	0.530782
522.000000	0.531033
523.000000	0.531454
524.000000	0.531893
525.000000	0.532266
526.000000	0.532603
527.000000	0.532874
528.000000	0.533137
529.000000	0.533533
530.000000	0.533794
531.000000	0.534130
532.000000	0.534477
533.000000	0.534700
534.000000	0.534978
535.000000	0.535318
536.000000	0.535624
537.000000	0.535911
538.000000	0.536187
539.000000	0.536445
540.000000	0.536722
541.000000	0.537015
542.000000	0.537366
543.000000	0.537648
544.000000	0.538008
545.000000	0.538364
546.000000	0.538667
547.000000	0.539015
548.000000	0.539456
549.000000	0.539820
550.000000	0.540143
551.000000	0.540482
552.000000	0.540791
553.000000	0.541068
554.000000	0.541359
555.000000	0.541701
556.000000	0.542063
557.000000	0.542348
558.000000	0.542733
559.000000	0.543029
560.000000	0.543280
561.000000	0.543650
562.000000	0.544059
563.000000	0.544392
564.000000	0.544725
565.000000	0.544971
566.000000	0.545340
567.000000	0.545722
568.000000	0.546011
569.000000	0.546301
570.000000	0.546601
571.000000	0.546885
572.000000	0.547133
573.000000	0.547435
574.000000	0.547732
575.000000	0.548029
576.000000	0.548335
577.000000	0.548603
578.000000	0.548908
579.000000	0.549186
580.000000	0.549457
581.000000	0.549725
582.000000	0.549977
583.000000	0.550201
584.000000	0.550437
585.000000	0.550763
586.000000	0.551028
587.000000	0.551239
588.000000	0.551452
589.000000	0.551747
590.000000	0.552036
591.000000	0.552268
592.000000	0.552531
593.000000	0.552777
594.000000	0.552998
595.000000	0.553236
596.000000	0.553464
597.000000	0.553764
598.000000	0.554054
599.000000	0.554254
600.000000	0.554489
601.000000	0.554711
602.000000	0.554859
603.000000	0.554962
604.000000	0.555066
605.000000	0.555183
606.000000	0.555342
607.000000	0.555550
608.000000	0.555790
609.000000	0.556022
610.000000	0.556217
611.000000	0.556364
612.000000	0.556527
613.000000	0.556746
614.000000	0.557049
615.000000	0.557156
616.000000	0.557206
617.000000	0.557208
618.000000	0.557234
619.000000	0.557329
620.000000	0.557372
621.000000	0.557316
622.000000	0.557358
623.000000	0.557441
624.000000	0.557489
625.000000	0.557526
626.000000	0.557555
627.000000	0.557583
628.000000	0.557604
629.000000	0.557768
630.000000	0.557854
631.000000	0.557974
632.000000	0.558112
633.000000	0.558301
634.000000	0.558526
635.000000	0.558681
636.000000	0.558834
637.000000	0.559003
638.000000	0.559232
639.000000	0.559420
640.000000	0.559631
641.000000	0.559751
642.000000	0.559838
643.000000	0.559949
644.000000	0.560134
645.000000	0.560262
646.000000	0.560385
647.000000	0.560506
648.000000	0.560651
649.000000	0.560805
650.000000	0.560930
651.000000	0.561064
652.000000	0.561144
653.000000	0.561255
654.000000	0.561383
655.000000	0.561495
656.000000	0.561617
657.000000	0.561691
658.000000	0.561848
659.000000	0.562004
660.000000	0.562099
661.000000	0.562222
662.000000	0.562240
663.000000	0.562282
664.000000	0.562435
665.000000	0.562614
666.000000	0.562790
667.000000	0.562898
668.000000	0.562996
669.000000	0.563041
670.000000	0.563045
671.000000	0.563114
672.000000	0.563277
673.000000	0.563473
674.000000	0.563593
675.000000	0.563677
676.000000	0.563761
677.000000	0.563902
678.000000	0.564038
679.000000	0.564180
680.000000	0.564336
681.000000	0.564393
682.000000	0.564532
683.000000	0.564646
684.000000	0.564758
685.000000	0.564850
686.000000	0.564961
687.000000	0.565044
688.000000	0.565129
689.000000	0.565225
690.000000	0.565391
691.000000	0.565572
692.000000	0.565705
693.000000	0.565873
694.000000	0.566000
695.000000	0.566120
696.000000	0.566221
697.000000	0.566285
698.000000	0.566316
699.000000	0.566377
700.000000	0.566516
701.000000	0.566641
702.000000	0.566820
703.000000	0.566996
704.000000	0.567029
705.000000	0.567119
706.000000	0.567197
707.000000	0.567264
708.000000	0.567389
709.000000	0.567497
710.000000	0.567571
711.000000	0.567690
712.000000	0.567834
713.000000	0.567991
714.000000	0.568052
715.000000	0.568079
716.000000	0.568145
717.000000	0.568272
718.000000	0.568373
719.000000	0.568433
720.000000	0.568490
721.000000	0.568596
722.000000	0.568644
723.000000	0.568695
724.000000	0.568686
725.000000	0.568632
726.000000	0.568679
727.000000	0.568721
728.000000	0.568781
729.000000	0.568873
730.000000	0.568917
731.000000	0.569029
732.000000	0.569156
733.000000	0.569305
734.000000	0.569330
735.000000	0.569290
736.000000	0.569402
737.000000	0.569463
738.000000	0.569414
739.000000	0.569501
740.000000	0.569580
741.000000	0.569660
742.000000	0.569773
743.000000	0.569851
744.000000	0.569868
745.000000	0.569840
746.000000	0.569866
747.000000	0.569878
748.000000	0.569909
749.000000	0.569980
750.000000	0.570032
751.000000	0.570050
752.000000	0.570043
753.000000	0.570071
754.000000	0.570191
755.000000	0.570355
756.000000	0.570524
757.000000	0.570589
758.000000	0.570648
759.000000	0.570727
760.000000	0.570725
761.000000	0.570802
762.000000	0.570887
763.000000	0.570938
764.000000	0.571069
765.000000	0.571105
766.000000	0.571107
767.000000	0.571137
768.000000	0.571119
769.000000	0.571087
770.000000	0.571082
771.000000	0.571118
772.000000	0.571228
773.000000	0.571296
774.000000	0.571393
775.000000	0.571485
776.000000	0.571597
777.000000	0.571692
778.000000	0.571668
779.000000	0.571594
780.000000	0.571532
781.000000	0.571493
782.000000	0.571421
783.000000	0.571495
784.000000	0.571579
785.000000	0.571658
786.000000	0.571704
787.000000	0.571715
788.000000	0.571768
789.000000	0.571792
790.000000	0.571758
791.000000	0.571740
792.000000	0.571677
793.000000	0.571617
794.000000	0.571628
795.000000	0.571757
796.000000	0.571845
797.000000	0.571818
798.000000	0.571702
799.000000	0.571628
800.000000	0.571600
801.000000	0.571585
802.000000	0.571576
803.000000	0.571537
804.000000	0.571522
805.000000	0.571532
806.000000	0.571434
807.000000	0.571373
808.000000	0.571347
809.000000	0.571395
810.000000	0.571489
811.000000	0.571575
812.000000	0.571697
813.000000	0.571668
814.000000	0.571512
815.000000	0.571484
816.000000	0.571457
817.000000	0.571459
818.000000	0.571392
819.000000	0.571370
820.000000	0.571371
821.000000	0.571308
822.000000	0.571299
823.000000	0.571380
824.000000	0.571410
825.000000	0.571417
826.000000	0.571352
827.000000	0.571193
828.000000	0.571051
829.000000	0.571027
830.000000	0.570991
831.000000	0.570993
832.000000	0.570877
833.000000	0.570877
834.000000	0.570977
835.000000	0.571133
836.000000	0.571099
837.000000	0.570963
838.000000	0.570835
839.000000	0.570755
840.000000	0.570652
841.000000	0.570588
842.000000	0.570560
843.000000	0.570609
844.000000	0.570613
845.000000	0.570489
846.000000	0.570341
847.000000	0.570283
848.000000	0.570259
849.000000	0.570234
850.000000	0.570171
851.000000	0.570047
852.000000	0.569961
853.000000	0.569976
854.000000	0.569842
855.000000	0.569768
856.000000	0.569728
857.000000	0.569695
858.000000	0.569779
859.000000	0.569834
860.000000	0.569727
861.000000	0.569606
862.000000	0.569522
863.000000	0.569341
864.000000	0.569100
865.000000	0.568917
866.000000	0.568867
867.000000	0.568781
868.000000	0.568794
869.000000	0.568735
870.000000	0.568555
871.000000	0.568392
872.000000	0.568257
873.000000	0.568084
874.000000	0.568114
875.000000	0.568017
876.000000	0.567872
877.000000	0.567778
878.000000	0.567565
879.000000	0.567464
880.000000	0.567317
881.000000	0.567085
882.000000	0.566851
883.000000	0.566699
884.000000	0.566584
885.000000	0.566539
886.000000	0.566497
887.000000	0.566416
888.000000	0.566146
889.000000	0.565940
890.000000	0.565623
891.000000	0.565326
892.000000	0.565243
893.000000	0.565172
894.000000	0.565155
895.000000	0.564938
896.000000	0.564623
897.000000	0.564306
898.000000	0.564067
899.000000	0.563817
900.000000	0.563701
901.000000	0.563699
902.000000	0.563793
903.000000	0.563650
904.000000	0.563432
905.000000	0.563229
906.000000	0.563195
907.000000	0.563030
908.000000	0.562788
909.000000	0.562581
910.000000	0.562352
911.000000	0.562171
912.000000	0.562103
913.000000	0.561977
914.000000	0.561706
915.000000	0.561496
916.000000	0.561445
917.000000	0.561322
918.000000	0.561161
919.000000	0.560965
920.000000	0.560717
921.000000	0.560435
922.000000	0.560179
923.000000	0.559960
924.000000	0.559687
925.000000	0.559424
926.000000	0.559252
927.000000	0.559029
928.000000	0.558954
929.000000	0.558851
930.000000	0.558507
931.000000	0.558201
932.000000	0.557989
933.000000	0.557875
934.000000	0.557621
935.000000	0.557311
936.000000	0.557119
937.000000	0.556946
938.000000	0.556630
939.000000	0.556279
940.000000	0.555804
941.000000	0.555313
942.000000	0.554804
943.000000	0.554348
944.000000	0.553733
945.000000	0.553022
946.000000	0.552247
947.000000	0.551731
948.000000	0.551610
949.000000	0.551451
950.000000	0.551415
951.000000	0.551473
952.000000	0.551611
953.000000	0.551598
954.000000	0.551469
955.000000	0.551201
956.000000	0.550977
957.000000	0.550883
958.000000	0.550728
959.000000	0.550479
960.000000	0.550220
961.000000	0.550043
962.000000	0.549919
963.000000	0.549800
964.000000	0.549710
965.000000	0.549614
966.000000	0.549332
967.000000	0.549274
968.000000	0.549046
969.000000	0.548633
970.000000	0.548444
971.000000	0.548487
972.000000	0.548495
973.000000	0.548256
974.000000	0.548009
975.000000	0.547655
976.000000	0.547331
977.000000	0.547131
978.000000	0.546911
979.000000	0.547044
980.000000	0.547061
981.000000	0.547052
982.000000	0.546912
983.000000	0.546635
984.000000	0.546466
985.000000	0.546572
986.000000	0.546421
987.000000	0.546275
988.000000	0.546108
989.000000	0.545674
990.000000	0.545295
991.000000	0.545063
992.000000	0.545047
993.000000	0.545168
994.000000	0.544948
995.000000	0.544749
996.000000	0.544781
997.000000	0.544933
998.000000	0.544914
999.000000	0.544856
1000.000000	0.545056
1001.000000	0.545455
1002.000000	0.544962
1003.000000	0.544409
1004.000000	0.544201
1005.000000	0.544281
1006.000000	0.544046
1007.000000	0.543919
1008.000000	0.543940
1009.000000	0.543518
1010.000000	0.542981
1011.000000	0.543093
1012.000000	0.543448
1013.000000	0.543506
1014.000000	0.543345
1015.000000	0.543247
1016.000000	0.543145
1017.000000	0.542682
1018.000000	0.542912
1019.000000	0.542942
1020.000000	0.542951
1021.000000	0.542432
1022.000000	0.542139
1023.000000	0.542236
1024.000000	0.541914
1025.000000	0.542288
1026.000000	0.542627
1027.000000	0.542425
1028.000000	0.542471
1029.000000	0.542388
1030.000000	0.542115
1031.000000	0.542079
1032.000000	0.541890
1033.000000	0.541688
1034.000000	0.541675
1035.000000	0.541918
1036.000000	0.542146
1037.000000	0.542553
1038.000000	0.542551
1039.000000	0.542599
1040.000000	0.542839
1041.000000	0.542559
1042.000000	0.542404
1043.000000	0.542691
1044.000000	0.542688
1045.000000	0.542621
1046.000000	0.542723
1047.000000	0.542991
1048.000000	0.543313
1049.000000	0.543452
1050.000000	0.543834
1051.000000	0.543877
1052.000000	0.543408
1053.000000	0.543131
1054.000000	0.543032
1055.000000	0.543187
1056.000000	0.543508
1057.000000	0.543978
1058.000000	0.544575
1059.000000	0.544717
1060.000000	0.544503
1061.000000	0.544441
1062.000000	0.544432
1063.000000	0.544642
1064.000000	0.544892
1065.000000	0.545445
1066.000000	0.545697
1067.000000	0.545636
1068.000000	0.545747
1069.000000	0.545809
1070.000000	0.545931
1071.000000	0.546222
1072.000000	0.546489
1073.000000	0.546949
1074.000000	0.547297
1075.000000	0.547220
1076.000000	0.547438
1077.000000	0.547480
1078.000000	0.547277
1079.000000	0.547260
1080.000000	0.547447
1081.000000	0.547476
1082.000000	0.547600
1083.000000	0.547659
1084.000000	0.547656
1085.000000	0.547918
1086.000000	0.548314
1087.000000	0.548564
1088.000000	0.548681
1089.000000	0.548874
1090.000000	0.548909
1091.000000	0.548967
1092.000000	0.549222
1093.000000	0.550043
1094.000000	0.550215
1095.000000	0.550013
1096.000000	0.550131
1097.000000	0.550077
1098.000000	0.550240
1099.000000	0.550674
1100.000000	0.550965
1101.000000	0.551063
1102.000000	0.551236
1103.000000	0.551350
1104.000000	0.551588
1105.000000	0.552031
1106.000000	0.552223
1107.000000	0.552121
1108.000000	0.552203
1109.000000	0.552302
1110.000000	0.552470
1111.000000	0.552638
1112.000000	0.553039
1113.000000	0.553249
1114.000000	0.553353
1115.000000	0.553443
1116.000000	0.553585
1117.000000	0.553594
1118.000000	0.553321
1119.000000	0.553267
1120.000000	0.553324
1121.000000	0.553304
1122.000000	0.553463
1123.000000	0.553920
1124.000000	0.554101
1125.000000	0.554294
1126.000000	0.554616
1127.000000	0.554657
1128.000000	0.554532
1129.000000	0.554185
1130.000000	0.554097
1131.000000	0.553978
1132.000000	0.553876
1133.000000	0.554003
1134.000000	0.554037
1135.000000	0.553954
1136.000000	0.553813
1137.000000	0.553662
1138.000000	0.553423
1139.000000	0.553130
1140.000000	0.553079
1141.000000	0.553084
1142.000000	0.553032
1143.000000	0.552908
1144.000000	0.552991
1145.000000	0.552803
1146.000000	0.552562
1147.000000	0.552412
1148.000000	0.552149
1149.000000	0.552013
1150.000000	0.551978
1151.000000	0.551905
1152.000000	0.551717
1153.000000	0.551716
1154.000000	0.551663
1155.000000	0.551704
1156.000000	0.551951
1157.000000	0.552094
1158.000000	0.552108
1159.000000	0.552187
1160.000000	0.552283
1161.000000	0.552340
1162.000000	0.552454
1163.000000	0.552836
1164.000000	0.553002
1165.000000	0.552995
1166.000000	0.553201
1167.000000	0.553422
1168.000000	0.553470
1169.000000	0.553592
1170.000000	0.553690
1171.000000	0.553722
1172.000000	0.553812
1173.000000	0.553881
1174.000000	0.553959
1175.000000	0.553981
1176.000000	0.553940
1177.000000	0.554019
1178.000000	0.554096
1179.000000	0.554118
1180.000000	0.554056
1181.000000	0.554129
1182.000000	0.554225
1183.000000	0.554259
1184.000000	0.554257
1185.000000	0.554258
1186.000000	0.554206
1187.000000	0.554219
1188.000000	0.554244
1189.000000	0.554274
1190.000000	0.554499
1191.000000	0.554525
1192.000000	0.554629
1193.000000	0.554813
1194.000000	0.554671
1195.000000	0.554724
1196.000000	0.554831
1197.000000	0.554891
1198.000000	0.555048
1199.000000	0.555119
1200.000000	0.555119
1201.000000	0.555089
1202.000000	0.555011
1203.000000	0.554936
1204.000000	0.554883
1205.000000	0.554927
1206.000000	0.554876
1207.000000	0.555010
1208.000000	0.554982
1209.000000	0.554942
1210.000000	0.554949
1211.000000	0.554960
1212.000000	0.554958
1213.000000	0.555036
1214.000000	0.555125
1215.000000	0.555185
1216.000000	0.555235
1217.000000	0.555271
1218.000000	0.555255
1219.000000	0.555205
1220.000000	0.555253
1221.000000	0.555365
1222.000000	0.555430
1223.000000	0.555477
1224.000000	0.555444
1225.000000	0.555303
1226.000000	0.555220
1227.000000	0.555149
1228.000000	0.555122
1229.000000	0.555014
1230.000000	0.554850
1231.000000	0.554642
1232.000000	0.554575
1233.000000	0.554625
1234.000000	0.554624
1235.000000	0.554640
1236.000000	0.554599
1237.000000	0.554667
1238.000000	0.554693
1239.000000	0.554730
1240.000000	0.554846
1241.000000	0.554884
1242.000000	0.554883
1243.000000	0.554939
1244.000000	0.554927
1245.000000	0.554995
1246.000000	0.554911
1247.000000	0.554907
1248.000000	0.555045
1249.000000	0.555011
1250.000000	0.555000
1251.000000	0.555071
1252.000000	0.555005
1253.000000	0.554852
1254.000000	0.554770
1255.000000	0.554656
1256.000000	0.554568
1257.000000	0.554540
1258.000000	0.554569
1259.000000	0.554522
1260.000000	0.554561
1261.000000	0.554566
1262.000000	0.554565
1263.000000	0.554637
1264.000000	0.554604
1265.000000	0.554621
1266.000000	0.554554
1267.000000	0.554400
1268.000000	0.554308
1269.000000	0.554121
1270.000000	0.553979
1271.000000	0.553804
1272.000000	0.553674
1273.000000	0.553661
1274.000000	0.553613
1275.000000	0.553514
1276.000000	0.553447
1277.000000	0.553520
1278.000000	0.553446
1279.000000	0.553415
1280.000000	0.553411
1281.000000	0.553335
1282.000000	0.553255
1283.000000	0.553318
1284.000000	0.553365
1285.000000	0.553375
1286.000000	0.553330
1287.000000	0.553322
1288.000000	0.553379
1289.000000	0.553326
1290.000000	0.553177
1291.000000	0.553047
1292.000000	0.552916
1293.000000	0.552792
1294.000000	0.552735
1295.000000	0.552728
1296.000000	0.552574
1297.000000	0.552452
1298.000000	0.552460
1299.000000	0.552331
1300.000000	0.552306
1301.000000	0.552293
1302.000000	0.552128
1303.000000	0.552071
1304.000000	0.551931
1305.000000	0.551845
1306.000000	0.551711
1307.000000	0.551661
1308.000000	0.551563
1309.000000	0.551384
1310.000000	0.551250
1311.000000	0.551157
1312.000000	0.550985
1313.000000	0.550901
1314.000000	0.550852
1315.000000	0.550685
1316.000000	0.550547
1317.000000	0.550440
1318.000000	0.550287
1319.000000	0.549976
1320.000000	0.549727
1321.000000	0.549474
1322.000000	0.549121
1323.000000	0.548893
1324.000000	0.548769
1325.000000	0.548433
1326.000000	0.548024
1327.000000	0.547719
1328.000000	0.547446
1329.000000	0.547009
1330.000000	0.546520
1331.000000	0.546144
1332.000000	0.545784
1333.000000	0.545435
1334.000000	0.545327
1335.000000	0.545176
1336.000000	0.544922
1337.000000	0.544684
1338.000000	0.544434
1339.000000	0.544096
1340.000000	0.543719
1341.000000	0.543495
1342.000000	0.543327
1343.000000	0.543145
1344.000000	0.543006
1345.000000	0.542848
1346.000000	0.542707
1347.000000	0.542390
1348.000000	0.542045
1349.000000	0.541613
1350.000000	0.541310
1351.000000	0.541020
1352.000000	0.540716
1353.000000	0.540390
1354.000000	0.540035
1355.000000	0.539649
1356.000000	0.539382
1357.000000	0.539061
1358.000000	0.538656
1359.000000	0.538190
1360.000000	0.537730
1361.000000	0.537263
1362.000000	0.536786
1363.000000	0.536320
1364.000000	0.535832
1365.000000	0.535319
1366.000000	0.534686
1367.000000	0.533991
1368.000000	0.533183
1369.000000	0.532431
1370.000000	0.531358
1371.000000	0.530136
1372.000000	0.528762
1373.000000	0.527074
1374.000000	0.525230
1375.000000	0.523116
1376.000000	0.520680
1377.000000	0.517659
1378.000000	0.513849
1379.000000	0.509378
1380.000000	0.504130
1381.000000	0.498057
1382.000000	0.491597
1383.000000	0.484637
1384.000000	0.477228
1385.000000	0.469998
1386.000000	0.463226
1387.000000	0.457282
1388.000000	0.452293
1389.000000	0.448454
1390.000000	0.445872
1391.000000	0.444258
1392.000000	0.443799
1393.000000	0.444047
1394.000000	0.445677
1395.000000	0.447063
1396.000000	0.449293
1397.000000	0.450752
1398.000000	0.452222
1399.000000	0.453069
1400.000000	0.453523
1401.000000	0.453506
1402.000000	0.453118
1403.000000	0.452268
1404.000000	0.451266
1405.000000	0.450120
1406.000000	0.448915
1407.000000	0.447805
1408.000000	0.446716
1409.000000	0.445797
1410.000000	0.445109
1411.000000	0.444531
1412.000000	0.444115
1413.000000	0.443972
1414.000000	0.443949
1415.000000	0.444090
1416.000000	0.444408
1417.000000	0.444789
1418.000000	0.445301
1419.000000	0.446140
1420.000000	0.446929
1421.000000	0.447883
1422.000000	0.448914
1423.000000	0.449907
1424.000000	0.450897
1425.000000	0.451978
1426.000000	0.453022
1427.000000	0.454144
1428.000000	0.455269
1429.000000	0.456324
1430.000000	0.457473
1431.000000	0.458609
1432.000000	0.459649
1433.000000	0.460755
1434.000000	0.461739
1435.000000	0.462740
1436.000000	0.463663
1437.000000	0.464519
1438.000000	0.465282
1439.000000	0.466019
1440.000000	0.466679
1441.000000	0.467298
1442.000000	0.467894
1443.000000	0.468347
1444.000000	0.468765
1445.000000	0.469150
1446.000000	0.469534
1447.000000	0.469925
1448.000000	0.470276
1449.000000	0.470582
1450.000000	0.470823
1451.000000	0.470994
1452.000000	0.471047
1453.000000	0.471077
1454.000000	0.471053
1455.000000	0.470956
1456.000000	0.471031
1457.000000	0.471187
1458.000000	0.471312
1459.000000	0.471493
1460.000000	0.471658
1461.000000	0.471812
1462.000000	0.472071
1463.000000	0.472349
1464.000000	0.472734
1465.000000	0.473345
1466.000000	0.473986
1467.000000	0.474701
1468.000000	0.475476
1469.000000	0.476288
1470.000000	0.477036
1471.000000	0.477844
1472.000000	0.478727
1473.000000	0.479712
1474.000000	0.480602
1475.000000	0.481541
1476.000000	0.482539
1477.000000	0.483487
1478.000000	0.484449
1479.000000	0.485344
1480.000000	0.486151
1481.000000	0.486913
1482.000000	0.487629
1483.000000	0.488421
1484.000000	0.489264
1485.000000	0.490013
1486.000000	0.490715
1487.000000	0.491427
1488.000000	0.492088
1489.000000	0.492814
1490.000000	0.493404
1491.000000	0.494055
1492.000000	0.494708
1493.000000	0.495309
1494.000000	0.495804
1495.000000	0.496317
1496.000000	0.496756
1497.000000	0.497237
1498.000000	0.497780
1499.000000	0.498316
1500.000000	0.498791
1501.000000	0.499270
1502.000000	0.499736
1503.000000	0.500276
1504.000000	0.500925
1505.000000	0.501566
1506.000000	0.502156
1507.000000	0.502725
1508.000000	0.503400
1509.000000	0.504017
1510.000000	0.504566
1511.000000	0.505185
1512.000000	0.505640
1513.000000	0.506020
1514.000000	0.506505
1515.000000	0.506940
1516.000000	0.507421
1517.000000	0.507877
1518.000000	0.508286
1519.000000	0.508563
1520.000000	0.508821
1521.000000	0.509039
1522.000000	0.509344
1523.000000	0.509740
1524.000000	0.510017
1525.000000	0.510326
1526.000000	0.510556
1527.000000	0.510799
1528.000000	0.511202
1529.000000	0.511507
1530.000000	0.511700
1531.000000	0.512121
1532.000000	0.512486
1533.000000	0.512706
1534.000000	0.513075
1535.000000	0.513436
1536.000000	0.513699
1537.000000	0.514197
1538.000000	0.514690
1539.000000	0.515020
1540.000000	0.515396
1541.000000	0.515778
1542.000000	0.516135
1543.000000	0.516486
1544.000000	0.516783
1545.000000	0.517159
1546.000000	0.517532
1547.000000	0.517872
1548.000000	0.518272
1549.000000	0.518587
1550.000000	0.518816
1551.000000	0.519062
1552.000000	0.519379
1553.000000	0.519696
1554.000000	0.519978
1555.000000	0.520334
1556.000000	0.520628
1557.000000	0.520819
1558.000000	0.521055
1559.000000	0.521224
1560.000000	0.521358
1561.000000	0.521521
1562.000000	0.521605
1563.000000	0.521720
1564.000000	0.521821
1565.000000	0.521844
1566.000000	0.521834
1567.000000	0.521981
1568.000000	0.522031
1569.000000	0.522120
1570.000000	0.522263
1571.000000	0.522362
1572.000000	0.522495
1573.000000	0.522758
1574.000000	0.522866
1575.000000	0.522925
1576.000000	0.523061
1577.000000	0.523130
1578.000000	0.523218
1579.000000	0.523458
1580.000000	0.523592
1581.000000	0.523799
1582.000000	0.523917
1583.000000	0.523943
1584.000000	0.523969
1585.000000	0.524064
1586.000000	0.524208
1587.000000	0.524422
1588.000000	0.524558
1589.000000	0.524693
1590.000000	0.524782
1591.000000	0.524834
1592.000000	0.524915
1593.000000	0.525087
1594.000000	0.525134
1595.000000	0.525189
1596.000000	0.525263
1597.000000	0.525331
1598.000000	0.525364
1599.000000	0.525453
1600.000000	0.525460
1601.000000	0.525501
1602.000000	0.525569
1603.000000	0.525733
1604.000000	0.525813
1605.000000	0.525907
1606.000000	0.525965
1607.000000	0.526055
1608.000000	0.526109
1609.000000	0.526244
1610.000000	0.526293
1611.000000	0.526297
1612.000000	0.526326
1613.000000	0.526511
1614.000000	0.526565
1615.000000	0.526701
1616.000000	0.526812
1617.000000	0.526749
1618.000000	0.526762
1619.000000	0.526784
1620.000000	0.526775
1621.000000	0.526788
1622.000000	0.526915
1623.000000	0.527011
1624.000000	0.527111
1625.000000	0.527069
1626.000000	0.527037
1627.000000	0.527005
1628.000000	0.527055
1629.000000	0.527122
1630.000000	0.527260
1631.000000	0.527367
1632.000000	0.527399
1633.000000	0.527550
1634.000000	0.527524
1635.000000	0.527380
1636.000000	0.527274
1637.000000	0.527119
1638.000000	0.526930
1639.000000	0.526851
1640.000000	0.526728
1641.000000	0.526626
1642.000000	0.526598
1643.000000	0.526653
1644.000000	0.526683
1645.000000	0.526770
1646.000000	0.526746
1647.000000	0.526738
1648.000000	0.526675
1649.000000	0.526682
1650.000000	0.526740
1651.000000	0.526865
1652.000000	0.527020
1653.000000	0.527139
1654.000000	0.527284
1655.000000	0.527371
1656.000000	0.527314
1657.000000	0.527352
1658.000000	0.527299
1659.000000	0.527293
1660.000000	0.527328
1661.000000	0.527197
1662.000000	0.527182
1663.000000	0.527185
1664.000000	0.527135
1665.000000	0.527078
1666.000000	0.527190
1667.000000	0.527195
1668.000000	0.527236
1669.000000	0.527384
1670.000000	0.527317
1671.000000	0.527280
1672.000000	0.527348
1673.000000	0.527341
1674.000000	0.527450
1675.000000	0.527637
1676.000000	0.527741
1677.000000	0.527775
1678.000000	0.527651
1679.000000	0.527457
1680.000000	0.527253
1681.000000	0.527072
1682.000000	0.527026
1683.000000	0.527047
1684.000000	0.526998
1685.000000	0.526937
1686.000000	0.526776
1687.000000	0.526664
1688.000000	0.526588
1689.000000	0.526569
1690.000000	0.526521
1691.000000	0.526622
1692.000000	0.526639
1693.000000	0.526570
1694.000000	0.526523
1695.000000	0.526471
1696.000000	0.526498
1697.000000	0.526396
1698.000000	0.526368
1699.000000	0.526366
1700.000000	0.526249
1701.000000	0.526329
1702.000000	0.526331
1703.000000	0.526167
1704.000000	0.526062
1705.000000	0.525970
1706.000000	0.525851
1707.000000	0.525760
1708.000000	0.525653
1709.000000	0.525502
1710.000000	0.525495
1711.000000	0.525467
1712.000000	0.525548
1713.000000	0.525480
1714.000000	0.525358
1715.000000	0.525264
1716.000000	0.525154
1717.000000	0.525018
1718.000000	0.524864
1719.000000	0.524626
1720.000000	0.524330
1721.000000	0.524146
1722.000000	0.524024
1723.000000	0.523851
1724.000000	0.523768
1725.000000	0.523663
1726.000000	0.523317
1727.000000	0.523126
1728.000000	0.522942
1729.000000	0.522670
1730.000000	0.522573
1731.000000	0.522498
1732.000000	0.522469
1733.000000	0.522489
1734.000000	0.522358
1735.000000	0.522301
1736.000000	0.522193
1737.000000	0.522117
1738.000000	0.522128
1739.000000	0.522100
1740.000000	0.522032
1741.000000	0.521927
1742.000000	0.521818
1743.000000	0.521843
1744.000000	0.521876
1745.000000	0.521765
1746.000000	0.521710
1747.000000	0.521240
1748.000000	0.520892
1749.000000	0.520699
1750.000000	0.520341
1751.000000	0.520158
1752.000000	0.520100
1753.000000	0.519689
1754.000000	0.519450
1755.000000	0.519371
1756.000000	0.519176
1757.000000	0.518941
1758.000000	0.518778
1759.000000	0.518563
1760.000000	0.518385
1761.000000	0.518263
1762.000000	0.518039
1763.000000	0.517760
1764.000000	0.517538
1765.000000	0.517234
1766.000000	0.516994
1767.000000	0.516677
1768.000000	0.516374
1769.000000	0.516252
1770.000000	0.516116
1771.000000	0.515921
1772.000000	0.515739
1773.000000	0.515446
1774.000000	0.515260
1775.000000	0.515261
1776.000000	0.515147
1777.000000	0.514952
1778.000000	0.514789
1779.000000	0.514560
1780.000000	0.514426
1781.000000	0.514287
1782.000000	0.514182
1783.000000	0.514205
1784.000000	0.514089
1785.000000	0.513971
1786.000000	0.513865
1787.000000	0.513865
1788.000000	0.513913
1789.000000	0.513827
1790.000000	0.513682
1791.000000	0.513543
1792.000000	0.513614
1793.000000	0.513584
1794.000000	0.513522
1795.000000	0.513545
1796.000000	0.513533
1797.000000	0.513518
1798.000000	0.513583
1799.000000	0.513552
1800.000000	0.513494
1801.000000	0.513401
1802.000000	0.513628
1803.000000	0.513600
1804.000000	0.513695
1805.000000	0.514066
1806.000000	0.513989
1807.000000	0.513740
1808.000000	0.513330
1809.000000	0.512398
1810.000000	0.511619
1811.000000	0.511209
1812.000000	0.510922
1813.000000	0.510663
1814.000000	0.510417
1815.000000	0.510804
1816.000000	0.511861
1817.000000	0.512037
1818.000000	0.512631
1819.000000	0.513149
1820.000000	0.511820
1821.000000	0.511195
1822.000000	0.510973
1823.000000	0.510982
1824.000000	0.510678
1825.000000	0.510577
1826.000000	0.510438
1827.000000	0.509941
1828.000000	0.509299
1829.000000	0.508992
1830.000000	0.509319
1831.000000	0.509229
1832.000000	0.509111
1833.000000	0.508942
1834.000000	0.508597
1835.000000	0.508422
1836.000000	0.508105
1837.000000	0.507895
1838.000000	0.507771
1839.000000	0.507474
1840.000000	0.507180
1841.000000	0.506767
1842.000000	0.506098
1843.000000	0.505009
1844.000000	0.504343
1845.000000	0.503144
1846.000000	0.502784
1847.000000	0.502954
1848.000000	0.502775
1849.000000	0.502858
1850.000000	0.502811
1851.000000	0.502430
1852.000000	0.501629
1853.000000	0.501021
1854.000000	0.499978
1855.000000	0.498895
1856.000000	0.497716
1857.000000	0.496314
1858.000000	0.494723
1859.000000	0.493268
1860.000000	0.491376
1861.000000	0.489727
1862.000000	0.488013
1863.000000	0.486228
1864.000000	0.484572
1865.000000	0.483492
1866.000000	0.481516
1867.000000	0.479102
1868.000000	0.476700
1869.000000	0.473653
1870.000000	0.470426
1871.000000	0.466892
1872.000000	0.463041
1873.000000	0.459108
1874.000000	0.454806
1875.000000	0.450341
1876.000000	0.445574
1877.000000	0.440209
1878.000000	0.434477
1879.000000	0.428234
1880.000000	0.421794
1881.000000	0.415621
1882.000000	0.409136
1883.000000	0.402550
1884.000000	0.395888
1885.000000	0.388972
1886.000000	0.381438
1887.000000	0.373575
1888.000000	0.365302
1889.000000	0.356396
1890.000000	0.348124
1891.000000	0.339998
1892.000000	0.332089
1893.000000	0.324801
1894.000000	0.317163
1895.000000	0.309986
1896.000000	0.303200
1897.000000	0.296968
1898.000000	0.290822
1899.000000	0.286111
1900.000000	0.282103
1901.000000	0.278020
1902.000000	0.274940
1903.000000	0.272549
1904.000000	0.270536
1905.000000	0.269201
1906.000000	0.268398
1907.000000	0.268261
1908.000000	0.268415
1909.000000	0.268961
1910.000000	0.270328
1911.000000	0.271857
1912.000000	0.273513
1913.000000	0.275423
1914.000000	0.277580
1915.000000	0.279820
1916.000000	0.281809
1917.000000	0.283979
1918.000000	0.286492
1919.000000	0.289006
1920.000000	0.291093
1921.000000	0.293247
1922.000000	0.295183
1923.000000	0.297172
1924.000000	0.299224
1925.000000	0.301510
1926.000000	0.304043
1927.000000	0.306202
1928.000000	0.308203
1929.000000	0.310187
1930.000000	0.311989
1931.000000	0.313415
1932.000000	0.315067
1933.000000	0.316590
1934.000000	0.317943
1935.000000	0.319551
1936.000000	0.320783
1937.000000	0.321954
1938.000000	0.323185
1939.000000	0.324222
1940.000000	0.325091
1941.000000	0.325980
1942.000000	0.326897
1943.000000	0.327586
1944.000000	0.327912
1945.000000	0.328431
1946.000000	0.329182
1947.000000	0.329916
1948.000000	0.330753
1949.000000	0.331989
1950.000000	0.333242
1951.000000	0.334188
1952.000000	0.335117
1953.000000	0.336179
1954.000000	0.336895
1955.000000	0.337458
1956.000000	0.338089
1957.000000	0.338636
1958.000000	0.339622
1959.000000	0.340630
1960.000000	0.341368
1961.000000	0.342441
1962.000000	0.343356
1963.000000	0.344175
1964.000000	0.344977
1965.000000	0.345903
1966.000000	0.346725
1967.000000	0.347653
1968.000000	0.348558
1969.000000	0.349412
1970.000000	0.350244
1971.000000	0.351185
1972.000000	0.352081
1973.000000	0.352870
1974.000000	0.353927
1975.000000	0.354992
1976.000000	0.356014
1977.000000	0.357030
1978.000000	0.358136
1979.000000	0.359086
1980.000000	0.360103
1981.000000	0.360949
1982.000000	0.361836
1983.000000	0.362999
1984.000000	0.364051
1985.000000	0.365176
1986.000000	0.366314
1987.000000	0.367523
1988.000000	0.368837
1989.000000	0.370294
1990.000000	0.371535
1991.000000	0.372943
1992.000000	0.374038
1993.000000	0.375068
1994.000000	0.376475
1995.000000	0.377567
1996.000000	0.379057
1997.000000	0.380459
1998.000000	0.381880
1999.000000	0.383292
2000.000000	0.384914
2001.000000	0.386176
2002.000000	0.387401
2003.000000	0.388931
2004.000000	0.389947
2005.000000	0.390533
2006.000000	0.391330
2007.000000	0.392225
2008.000000	0.393418
2009.000000	0.395108
2010.000000	0.396481
2011.000000	0.397855
2012.000000	0.398935
2013.000000	0.399599
2014.000000	0.400164
2015.000000	0.401321
2016.000000	0.402237
2017.000000	0.403085
2018.000000	0.404538
2019.000000	0.405899
2020.000000	0.406902
2021.000000	0.407992
2022.000000	0.409171
2023.000000	0.410150
2024.000000	0.410900
2025.000000	0.412020
2026.000000	0.413073
2027.000000	0.414135
2028.000000	0.415587
2029.000000	0.416634
2030.000000	0.417333
2031.000000	0.417969
2032.000000	0.418432
2033.000000	0.419041
2034.000000	0.419735
2035.000000	0.420794
2036.000000	0.421564
2037.000000	0.422610
2038.000000	0.423431
2039.000000	0.424253
2040.000000	0.424990
2041.000000	0.425496
2042.000000	0.426007
2043.000000	0.426237
2044.000000	0.426603
2045.000000	0.427424
2046.000000	0.427860
2047.000000	0.428641
2048.000000	0.429736
2049.000000	0.430894
2050.000000	0.431874
2051.000000	0.432484
2052.000000	0.432858
2053.000000	0.432996
2054.000000	0.432923
2055.000000	0.433115
2056.000000	0.433392
2057.000000	0.433932
2058.000000	0.434513
2059.000000	0.435287
2060.000000	0.436022
2061.000000	0.436920
2062.000000	0.437589
2063.000000	0.438518
2064.000000	0.438608
2065.000000	0.438506
2066.000000	0.438270
2067.000000	0.437610
2068.000000	0.437675
2069.000000	0.438236
2070.000000	0.439093
2071.000000	0.439897
2072.000000	0.440505
2073.000000	0.440935
2074.000000	0.441046
2075.000000	0.441220
2076.000000	0.441459
2077.000000	0.441597
2078.000000	0.441482
2079.000000	0.441425
2080.000000	0.441416
2081.000000	0.441514
2082.000000	0.441463
2083.000000	0.441896
2084.000000	0.442367
2085.000000	0.442759
2086.000000	0.443304
2087.000000	0.443556
2088.000000	0.443515
2089.000000	0.443690
2090.000000	0.443828
2091.000000	0.443645
2092.000000	0.444048
2093.000000	0.445039
2094.000000	0.445606
2095.000000	0.446516
2096.000000	0.447213
2097.000000	0.447762
2098.000000	0.447521
2099.000000	0.447894
2100.000000	0.447902
2101.000000	0.447750
2102.000000	0.448329
2103.000000	0.448737
2104.000000	0.449002
2105.000000	0.449145
2106.000000	0.448979
2107.000000	0.449388
2108.000000	0.449948
2109.000000	0.450384
2110.000000	0.450951
2111.000000	0.451297
2112.000000	0.451240
2113.000000	0.450959
2114.000000	0.451037
2115.000000	0.451505
2116.000000	0.451771
2117.000000	0.451956
2118.000000	0.452384
2119.000000	0.452615
2120.000000	0.452950
2121.000000	0.453382
2122.000000	0.453823
2123.000000	0.454300
2124.000000	0.454590
2125.000000	0.454939
2126.000000	0.454973
2127.000000	0.454518
2128.000000	0.454666
2129.000000	0.454673
2130.000000	0.455134
2131.000000	0.455570
2132.000000	0.455970
2133.000000	0.456719
2134.000000	0.457260
2135.000000	0.457386
2136.000000	0.457895
2137.000000	0.458397
2138.000000	0.458685
2139.000000	0.459145
2140.000000	0.460427
2141.000000	0.460466
2142.000000	0.459464
2143.000000	0.458767
2144.000000	0.457432
2145.000000	0.457285
2146.000000	0.458024
2147.000000	0.459286
2148.000000	0.460712
2149.000000	0.461845
2150.000000	0.461981
2151.000000	0.462032
2152.000000	0.461519
2153.000000	0.460875
2154.000000	0.460822
2155.000000	0.461272
2156.000000	0.461331
2157.000000	0.461894
2158.000000	0.461742
2159.000000	0.460762
2160.000000	0.460565
2161.000000	0.460359
2162.000000	0.460545
2163.000000	0.461393
2164.000000	0.461672
2165.000000	0.461969
2166.000000	0.461811
2167.000000	0.461359
2168.000000	0.461250
2169.000000	0.461248
2170.000000	0.461085
2171.000000	0.461087
2172.000000	0.461337
2173.000000	0.461046
2174.000000	0.460593
2175.000000	0.460158
2176.000000	0.459086
2177.000000	0.459077
2178.000000	0.459919
2179.000000	0.460424
2180.000000	0.461450
2181.000000	0.462147
2182.000000	0.461730
2183.000000	0.461009
2184.000000	0.461120
2185.000000	0.460580
2186.000000	0.459858
2187.000000	0.459717
2188.000000	0.458651
2189.000000	0.457315
2190.000000	0.456167
2191.000000	0.455874
2192.000000	0.455531
2193.000000	0.455683
2194.000000	0.455507
2195.000000	0.455464
2196.000000	0.455336
2197.000000	0.454983
2198.000000	0.454476
2199.000000	0.454190
2200.000000	0.453939
2201.000000	0.453497
2202.000000	0.453187
2203.000000	0.453096
2204.000000	0.452072
2205.000000	0.450984
2206.000000	0.449509
2207.000000	0.447739
2208.000000	0.447372
2209.000000	0.448222
2210.000000	0.450076
2211.000000	0.451767
2212.000000	0.453280
2213.000000	0.453466
2214.000000	0.451581
2215.000000	0.450286
2216.000000	0.449450
2217.000000	0.447300
2218.000000	0.443660
2219.000000	0.442181
2220.000000	0.439570
2221.000000	0.439146
2222.000000	0.441848
2223.000000	0.442650
2224.000000	0.443185
2225.000000	0.444717
2226.000000	0.444681
2227.000000	0.444997
2228.000000	0.445809
2229.000000	0.444754
2230.000000	0.442603
2231.000000	0.440843
2232.000000	0.439045
2233.000000	0.438424
2234.000000	0.438657
2235.000000	0.438575
2236.000000	0.437971
2237.000000	0.436531
2238.000000	0.435808
2239.000000	0.434708
2240.000000	0.434332
2241.000000	0.435069
2242.000000	0.435168
2243.000000	0.435000
2244.000000	0.435536
2245.000000	0.436633
2246.000000	0.437009
2247.000000	0.437049
2248.000000	0.437282
2249.000000	0.437749
2250.000000	0.436573
2251.000000	0.436701
2252.000000	0.438259
2253.000000	0.437582
2254.000000	0.436341
2255.000000	0.436440
2256.000000	0.434982
2257.000000	0.434440
2258.000000	0.435263
2259.000000	0.434435
2260.000000	0.434410
2261.000000	0.433523
2262.000000	0.432582
2263.000000	0.431461
2264.000000	0.429128
2265.000000	0.428117
2266.000000	0.427806
2267.000000	0.427059
2268.000000	0.427297
2269.000000	0.426220
2270.000000	0.424730
2271.000000	0.422894
2272.000000	0.419669
2273.000000	0.417405
2274.000000	0.415437
2275.000000	0.412583
2276.000000	0.409717
2277.000000	0.406796
2278.000000	0.402242
2279.000000	0.398438
2280.000000	0.394968
2281.000000	0.391951
2282.000000	0.389478
2283.000000	0.386632
2284.000000	0.383255
2285.000000	0.379642
2286.000000	0.375875
2287.000000	0.371909
2288.000000	0.368801
2289.000000	0.365598
2290.000000	0.362426
2291.000000	0.361384
2292.000000	0.359413
2293.000000	0.356529
2294.000000	0.354983
2295.000000	0.353798
2296.000000	0.352291
2297.000000	0.351727
2298.000000	0.350752
2299.000000	0.349756
2300.000000	0.348084
2301.000000	0.346482
2302.000000	0.343731
2303.000000	0.339532
2304.000000	0.335734
2305.000000	0.331053
2306.000000	0.327256
2307.000000	0.324364
2308.000000	0.320162
2309.000000	0.316147
2310.000000	0.312960
2311.000000	0.308298
2312.000000	0.304897
2313.000000	0.302753
2314.000000	0.300882
2315.000000	0.300927
2316.000000	0.303735
2317.000000	0.307218
2318.000000	0.312213
2319.000000	0.318837
2320.000000	0.323231
2321.000000	0.329234
2322.000000	0.334905
2323.000000	0.336949
2324.000000	0.340718
2325.000000	0.344149
2326.000000	0.345758
2327.000000	0.349524
2328.000000	0.353554
2329.000000	0.356316
2330.000000	0.360226
2331.000000	0.364913
2332.000000	0.369080
2333.000000	0.372654
2334.000000	0.373893
2335.000000	0.374297
2336.000000	0.370979
2337.000000	0.370352
2338.000000	0.369989
2339.000000	0.369984
2340.000000	0.371705
2341.000000	0.372020
2342.000000	0.370506
2343.000000	0.370840
2344.000000	0.372042
2345.000000	0.373147
2346.000000	0.375999
2347.000000	0.376406
2348.000000	0.375626
2349.000000	0.374576
2350.000000	0.371623
2351.000000	0.371573
2352.000000	0.371576
2353.000000	0.371071
2354.000000	0.372713
2355.000000	0.372728
2356.000000	0.373076
2357.000000	0.373488
2358.000000	0.372276
2359.000000	0.372014
2360.000000	0.371599
2361.000000	0.371807
2362.000000	0.371474
2363.000000	0.369948
2364.000000	0.366798
2365.000000	0.364177
2366.000000	0.363121
2367.000000	0.361369
2368.000000	0.359135
2369.000000	0.355661
2370.000000	0.352563
2371.000000	0.349055
2372.000000	0.347835
2373.000000	0.349975
2374.000000	0.349255
2375.000000	0.348880
2376.000000	0.347067
2377.000000	0.341603
2378.000000	0.338100
2379.000000	0.334766
2380.000000	0.331890
2381.000000	0.330502
2382.000000	0.326509
2383.000000	0.322940
2384.000000	0.322100
2385.000000	0.322692
2386.000000	0.326027
2387.000000	0.326025
2388.000000	0.322263
2389.000000	0.320178
2390.000000	0.315438
2391.000000	0.312963
2392.000000	0.315372
2393.000000	0.316400
2394.000000	0.318237
2395.000000	0.320530
2396.000000	0.325995
2397.000000	0.332748
2398.000000	0.334816
2399.000000	0.336003
2400.000000	0.331239
2401.000000	0.322734
2402.000000	0.321555
2403.000000	0.321224
2404.000000	0.321301
2405.000000	0.324743
2406.000000	0.329373
2407.000000	0.333489
2408.000000	0.334269
2409.000000	0.333812
2410.000000	0.329158
2411.000000	0.326449
2412.000000	0.330193
2413.000000	0.332680
2414.000000	0.332542
2415.000000	0.332688
2416.000000	0.329086
2417.000000	0.323477
2418.000000	0.324827
2419.000000	0.321467
2420.000000	0.315872
2421.000000	0.317579
2422.000000	0.314434
2423.000000	0.315339
2424.000000	0.320125
2425.000000	0.323246
2426.000000	0.328606
2427.000000	0.327349
2428.000000	0.327036
2429.000000	0.321725
2430.000000	0.313182
2431.000000	0.315396
2432.000000	0.315229
2433.000000	0.320017
2434.000000	0.331686
2435.000000	0.332610
2436.000000	0.329559
2437.000000	0.324897
2438.000000	0.317222
2439.000000	0.309489
2440.000000	0.305733
2441.000000	0.302243
2442.000000	0.295772
2443.000000	0.295719
2444.000000	0.299898
2445.000000	0.310328
2446.000000	0.317002
2447.000000	0.315306
2448.000000	0.312982
2449.000000	0.307379
2450.000000	0.303996
2451.000000	0.305135
2452.000000	0.303564
2453.000000	0.299120
2454.000000	0.292767
2455.000000	0.285928
2456.000000	0.287103
2457.000000	0.286315
2458.000000	0.285911
2459.000000	0.285689
2460.000000	0.287270
2461.000000	0.289107
2462.000000	0.286778
2463.000000	0.294211
2464.000000	0.294259
2465.000000	0.293725
2466.000000	0.293201
2467.000000	0.285622
2468.000000	0.278732
2469.000000	0.264052
2470.000000	0.266313
2471.000000	0.276261
2472.000000	0.280480
2473.000000	0.294072
2474.000000	0.287325
2475.000000	0.273178
2476.000000	0.265139
2477.000000	0.255471
2478.000000	0.260111
2479.000000	0.264165
2480.000000	0.279467
2481.000000	0.288668
2482.000000	0.283048
2483.000000	0.296376
2484.000000	0.280423
2485.000000	0.262210
2486.000000	0.278506
2487.000000	0.280476
2488.000000	0.283344
2489.000000	0.289071
2490.000000	0.270315
2491.000000	0.240006
2492.000000	0.226840
2493.000000	0.229403
2494.000000	0.229847
2495.000000	0.239300
2496.000000	0.239599
2497.000000	0.227747
2498.000000	0.227730
2499.000000	0.246962
2500.000000	0.257930
