# Wavelength	SM1200H-50_HEX-10_FV7-40_00001.asd.rts.txt
350.000000	0.280413
351.000000	0.266709
352.000000	0.266168
353.000000	0.269471
354.000000	0.271061
355.000000	0.266549
356.000000	0.263266
357.000000	0.261089
358.000000	0.250397
359.000000	0.248501
360.000000	0.252769
361.000000	0.255520
362.000000	0.257069
363.000000	0.260217
364.000000	0.264036
365.000000	0.259943
366.000000	0.258952
367.000000	0.261791
368.000000	0.261448
369.000000	0.256549
370.000000	0.255300
371.000000	0.265454
372.000000	0.263966
373.000000	0.260729
374.000000	0.263904
375.000000	0.266767
376.000000	0.268104
377.000000	0.267732
378.000000	0.266796
379.000000	0.264387
380.000000	0.262309
381.000000	0.263553
382.000000	0.265641
383.000000	0.267694
384.000000	0.269214
385.000000	0.268335
386.000000	0.269993
387.000000	0.273360
388.000000	0.270641
389.000000	0.270563
390.000000	0.272506
391.000000	0.272629
392.000000	0.273293
393.000000	0.273383
394.000000	0.272411
395.000000	0.273124
396.000000	0.275365
397.000000	0.277519
398.000000	0.275745
399.000000	0.274291
400.000000	0.274137
401.000000	0.274807
402.000000	0.275881
403.000000	0.276626
404.000000	0.276758
405.000000	0.276889
406.000000	0.277154
407.000000	0.277563
408.000000	0.277843
409.000000	0.277919
410.000000	0.277914
411.000000	0.278040
412.000000	0.278461
413.000000	0.278812
414.000000	0.278898
415.000000	0.280179
416.000000	0.281083
417.000000	0.280867
418.000000	0.280844
419.000000	0.281254
420.000000	0.281927
421.000000	0.282281
422.000000	0.282516
423.000000	0.282898
424.000000	0.283687
425.000000	0.283784
426.000000	0.283478
427.000000	0.283332
428.000000	0.284469
429.000000	0.284818
430.000000	0.284169
431.000000	0.284800
432.000000	0.284889
433.000000	0.284592
434.000000	0.284983
435.000000	0.285311
436.000000	0.285547
437.000000	0.285753
438.000000	0.285915
439.000000	0.286008
440.000000	0.286207
441.000000	0.286751
442.000000	0.287177
443.000000	0.287405
444.000000	0.287811
445.000000	0.287819
446.000000	0.287777
447.000000	0.288012
448.000000	0.288425
449.000000	0.288880
450.000000	0.289267
451.000000	0.289504
452.000000	0.289606
453.000000	0.289631
454.000000	0.289987
455.000000	0.290062
456.000000	0.290099
457.000000	0.290441
458.000000	0.290664
459.000000	0.290979
460.000000	0.291542
461.000000	0.291489
462.000000	0.291605
463.000000	0.292009
464.000000	0.292181
465.000000	0.292351
466.000000	0.292570
467.000000	0.292957
468.000000	0.293304
469.000000	0.293389
470.000000	0.293296
471.000000	0.293571
472.000000	0.293894
473.000000	0.294052
474.000000	0.294195
475.000000	0.294159
476.000000	0.294215
477.000000	0.294762
478.000000	0.295020
479.000000	0.295152
480.000000	0.295287
481.000000	0.295399
482.000000	0.295640
483.000000	0.295879
484.000000	0.296186
485.000000	0.296340
486.000000	0.296482
487.000000	0.296728
488.000000	0.297018
489.000000	0.297329
490.000000	0.297624
491.000000	0.297793
492.000000	0.297924
493.000000	0.298019
494.000000	0.298384
495.000000	0.298807
496.000000	0.299093
497.000000	0.299470
498.000000	0.299761
499.000000	0.299979
500.000000	0.300136
501.000000	0.300285
502.000000	0.300523
503.000000	0.300844
504.000000	0.301104
505.000000	0.301298
506.000000	0.301464
507.000000	0.301651
508.000000	0.301938
509.000000	0.302285
510.000000	0.302584
511.000000	0.302905
512.000000	0.303255
513.000000	0.303518
514.000000	0.303905
515.000000	0.304278
516.000000	0.304370
517.000000	0.304638
518.000000	0.305022
519.000000	0.305316
520.000000	0.305559
521.000000	0.305774
522.000000	0.306007
523.000000	0.306339
524.000000	0.306578
525.000000	0.306764
526.000000	0.307116
527.000000	0.307461
528.000000	0.307755
529.000000	0.308043
530.000000	0.308282
531.000000	0.308529
532.000000	0.308746
533.000000	0.309049
534.000000	0.309356
535.000000	0.309606
536.000000	0.309786
537.000000	0.310026
538.000000	0.310292
539.000000	0.310479
540.000000	0.310726
541.000000	0.311013
542.000000	0.311325
543.000000	0.311579
544.000000	0.311858
545.000000	0.312116
546.000000	0.312335
547.000000	0.312605
548.000000	0.312962
549.000000	0.313293
550.000000	0.313561
551.000000	0.313852
552.000000	0.314195
553.000000	0.314411
554.000000	0.314606
555.000000	0.314885
556.000000	0.315218
557.000000	0.315497
558.000000	0.315820
559.000000	0.316124
560.000000	0.316394
561.000000	0.316709
562.000000	0.317022
563.000000	0.317326
564.000000	0.317661
565.000000	0.317951
566.000000	0.318278
567.000000	0.318591
568.000000	0.318854
569.000000	0.319177
570.000000	0.319486
571.000000	0.319767
572.000000	0.320090
573.000000	0.320414
574.000000	0.320684
575.000000	0.320916
576.000000	0.321214
577.000000	0.321552
578.000000	0.321931
579.000000	0.322164
580.000000	0.322361
581.000000	0.322586
582.000000	0.322859
583.000000	0.323101
584.000000	0.323320
585.000000	0.323579
586.000000	0.323839
587.000000	0.324096
588.000000	0.324357
589.000000	0.324624
590.000000	0.324910
591.000000	0.325201
592.000000	0.325417
593.000000	0.325627
594.000000	0.325848
595.000000	0.326047
596.000000	0.326187
597.000000	0.326349
598.000000	0.326548
599.000000	0.326728
600.000000	0.326889
601.000000	0.326984
602.000000	0.327231
603.000000	0.327395
604.000000	0.327457
605.000000	0.327769
606.000000	0.328010
607.000000	0.328184
608.000000	0.328480
609.000000	0.328742
610.000000	0.328935
611.000000	0.329071
612.000000	0.329228
613.000000	0.329336
614.000000	0.329402
615.000000	0.329473
616.000000	0.329563
617.000000	0.329645
618.000000	0.329774
619.000000	0.329927
620.000000	0.330042
621.000000	0.330123
622.000000	0.330259
623.000000	0.330413
624.000000	0.330529
625.000000	0.330564
626.000000	0.330526
627.000000	0.330480
628.000000	0.330582
629.000000	0.330826
630.000000	0.331007
631.000000	0.331119
632.000000	0.331255
633.000000	0.331444
634.000000	0.331671
635.000000	0.331932
636.000000	0.332173
637.000000	0.332341
638.000000	0.332441
639.000000	0.332585
640.000000	0.332796
641.000000	0.332833
642.000000	0.332959
643.000000	0.333139
644.000000	0.333260
645.000000	0.333351
646.000000	0.333455
647.000000	0.333567
648.000000	0.333678
649.000000	0.333812
650.000000	0.333953
651.000000	0.334111
652.000000	0.334226
653.000000	0.334346
654.000000	0.334475
655.000000	0.334608
656.000000	0.334760
657.000000	0.334886
658.000000	0.335053
659.000000	0.335246
660.000000	0.335417
661.000000	0.335521
662.000000	0.335581
663.000000	0.335679
664.000000	0.335816
665.000000	0.335924
666.000000	0.336045
667.000000	0.336193
668.000000	0.336304
669.000000	0.336440
670.000000	0.336619
671.000000	0.336700
672.000000	0.336891
673.000000	0.337154
674.000000	0.337281
675.000000	0.337419
676.000000	0.337564
677.000000	0.337701
678.000000	0.337901
679.000000	0.338090
680.000000	0.338228
681.000000	0.338341
682.000000	0.338495
683.000000	0.338632
684.000000	0.338823
685.000000	0.338955
686.000000	0.339080
687.000000	0.339235
688.000000	0.339390
689.000000	0.339494
690.000000	0.339580
691.000000	0.339780
692.000000	0.339914
693.000000	0.340007
694.000000	0.340131
695.000000	0.340292
696.000000	0.340464
697.000000	0.340610
698.000000	0.340744
699.000000	0.340892
700.000000	0.341075
701.000000	0.341240
702.000000	0.341451
703.000000	0.341651
704.000000	0.341668
705.000000	0.341718
706.000000	0.341787
707.000000	0.341878
708.000000	0.341958
709.000000	0.342039
710.000000	0.342159
711.000000	0.342314
712.000000	0.342429
713.000000	0.342524
714.000000	0.342687
715.000000	0.342902
716.000000	0.343104
717.000000	0.343186
718.000000	0.343391
719.000000	0.343586
720.000000	0.343677
721.000000	0.343869
722.000000	0.343996
723.000000	0.344081
724.000000	0.344203
725.000000	0.344246
726.000000	0.344317
727.000000	0.344421
728.000000	0.344487
729.000000	0.344565
730.000000	0.344645
731.000000	0.344748
732.000000	0.344845
733.000000	0.344957
734.000000	0.345046
735.000000	0.345064
736.000000	0.345143
737.000000	0.345199
738.000000	0.345304
739.000000	0.345453
740.000000	0.345462
741.000000	0.345533
742.000000	0.345670
743.000000	0.345800
744.000000	0.345861
745.000000	0.345900
746.000000	0.345993
747.000000	0.346092
748.000000	0.346117
749.000000	0.346164
750.000000	0.346263
751.000000	0.346390
752.000000	0.346515
753.000000	0.346627
754.000000	0.346700
755.000000	0.346789
756.000000	0.346880
757.000000	0.346890
758.000000	0.346839
759.000000	0.346886
760.000000	0.347014
761.000000	0.347150
762.000000	0.347296
763.000000	0.347372
764.000000	0.347355
765.000000	0.347363
766.000000	0.347402
767.000000	0.347444
768.000000	0.347489
769.000000	0.347507
770.000000	0.347507
771.000000	0.347544
772.000000	0.347699
773.000000	0.347818
774.000000	0.347816
775.000000	0.347845
776.000000	0.347884
777.000000	0.347895
778.000000	0.347959
779.000000	0.348077
780.000000	0.348200
781.000000	0.348205
782.000000	0.348203
783.000000	0.348230
784.000000	0.348127
785.000000	0.348156
786.000000	0.348182
787.000000	0.348151
788.000000	0.348250
789.000000	0.348294
790.000000	0.348258
791.000000	0.348253
792.000000	0.348280
793.000000	0.348308
794.000000	0.348315
795.000000	0.348296
796.000000	0.348302
797.000000	0.348340
798.000000	0.348380
799.000000	0.348375
800.000000	0.348350
801.000000	0.348354
802.000000	0.348402
803.000000	0.348442
804.000000	0.348487
805.000000	0.348544
806.000000	0.348528
807.000000	0.348530
808.000000	0.348548
809.000000	0.348562
810.000000	0.348560
811.000000	0.348538
812.000000	0.348591
813.000000	0.348619
814.000000	0.348595
815.000000	0.348573
816.000000	0.348504
817.000000	0.348424
818.000000	0.348314
819.000000	0.348413
820.000000	0.348515
821.000000	0.348480
822.000000	0.348461
823.000000	0.348470
824.000000	0.348438
825.000000	0.348407
826.000000	0.348364
827.000000	0.348282
828.000000	0.348234
829.000000	0.348346
830.000000	0.348364
831.000000	0.348316
832.000000	0.348203
833.000000	0.348095
834.000000	0.348027
835.000000	0.348033
836.000000	0.348008
837.000000	0.347936
838.000000	0.347868
839.000000	0.347862
840.000000	0.347831
841.000000	0.347809
842.000000	0.347788
843.000000	0.347761
844.000000	0.347691
845.000000	0.347554
846.000000	0.347435
847.000000	0.347332
848.000000	0.347253
849.000000	0.347241
850.000000	0.347252
851.000000	0.347224
852.000000	0.347197
853.000000	0.347238
854.000000	0.347229
855.000000	0.347261
856.000000	0.347254
857.000000	0.347183
858.000000	0.347066
859.000000	0.346879
860.000000	0.346810
861.000000	0.346687
862.000000	0.346591
863.000000	0.346577
864.000000	0.346541
865.000000	0.346467
866.000000	0.346393
867.000000	0.346348
868.000000	0.346300
869.000000	0.346167
870.000000	0.345984
871.000000	0.345801
872.000000	0.345623
873.000000	0.345417
874.000000	0.345335
875.000000	0.345169
876.000000	0.344922
877.000000	0.344619
878.000000	0.344352
879.000000	0.344255
880.000000	0.344225
881.000000	0.344303
882.000000	0.344184
883.000000	0.343938
884.000000	0.343725
885.000000	0.343611
886.000000	0.343439
887.000000	0.343212
888.000000	0.343174
889.000000	0.343114
890.000000	0.342865
891.000000	0.342564
892.000000	0.342319
893.000000	0.342054
894.000000	0.341872
895.000000	0.341744
896.000000	0.341558
897.000000	0.341352
898.000000	0.341204
899.000000	0.341007
900.000000	0.340929
901.000000	0.340899
902.000000	0.340657
903.000000	0.340487
904.000000	0.340373
905.000000	0.340132
906.000000	0.339990
907.000000	0.339736
908.000000	0.339466
909.000000	0.339413
910.000000	0.339269
911.000000	0.339085
912.000000	0.338960
913.000000	0.338773
914.000000	0.338431
915.000000	0.338109
916.000000	0.337981
917.000000	0.337716
918.000000	0.337404
919.000000	0.337181
920.000000	0.337238
921.000000	0.337199
922.000000	0.336944
923.000000	0.336507
924.000000	0.336316
925.000000	0.336110
926.000000	0.335784
927.000000	0.335498
928.000000	0.335214
929.000000	0.334951
930.000000	0.334725
931.000000	0.334442
932.000000	0.334181
933.000000	0.333933
934.000000	0.333477
935.000000	0.333072
936.000000	0.332813
937.000000	0.332599
938.000000	0.332360
939.000000	0.332236
940.000000	0.332056
941.000000	0.331677
942.000000	0.331254
943.000000	0.330996
944.000000	0.330798
945.000000	0.330467
946.000000	0.330127
947.000000	0.329926
948.000000	0.329834
949.000000	0.329386
950.000000	0.329070
951.000000	0.328988
952.000000	0.328960
953.000000	0.328797
954.000000	0.328553
955.000000	0.328257
956.000000	0.328048
957.000000	0.327729
958.000000	0.327364
959.000000	0.327221
960.000000	0.327082
961.000000	0.326932
962.000000	0.326787
963.000000	0.326740
964.000000	0.326545
965.000000	0.326343
966.000000	0.326121
967.000000	0.325702
968.000000	0.325405
969.000000	0.325180
970.000000	0.324957
971.000000	0.324868
972.000000	0.324566
973.000000	0.324019
974.000000	0.323812
975.000000	0.323651
976.000000	0.323492
977.000000	0.323337
978.000000	0.323217
979.000000	0.323147
980.000000	0.322813
981.000000	0.322396
982.000000	0.322363
983.000000	0.322082
984.000000	0.321630
985.000000	0.321687
986.000000	0.321560
987.000000	0.321495
988.000000	0.321521
989.000000	0.321238
990.000000	0.320946
991.000000	0.320691
992.000000	0.320509
993.000000	0.320535
994.000000	0.320440
995.000000	0.320233
996.000000	0.319832
997.000000	0.320126
998.000000	0.320044
999.000000	0.319426
1000.000000	0.319490
1001.000000	0.320203
1002.000000	0.319606
1003.000000	0.319150
1004.000000	0.319263
1005.000000	0.319911
1006.000000	0.319760
1007.000000	0.319685
1008.000000	0.319707
1009.000000	0.319108
1010.000000	0.318336
1011.000000	0.317662
1012.000000	0.317128
1013.000000	0.316692
1014.000000	0.316903
1015.000000	0.317547
1016.000000	0.318341
1017.000000	0.318793
1018.000000	0.318715
1019.000000	0.318877
1020.000000	0.319245
1021.000000	0.318882
1022.000000	0.318452
1023.000000	0.318428
1024.000000	0.317868
1025.000000	0.317966
1026.000000	0.318400
1027.000000	0.317896
1028.000000	0.317716
1029.000000	0.317752
1030.000000	0.317590
1031.000000	0.317891
1032.000000	0.318242
1033.000000	0.318232
1034.000000	0.318303
1035.000000	0.318611
1036.000000	0.318486
1037.000000	0.317800
1038.000000	0.317565
1039.000000	0.317449
1040.000000	0.317417
1041.000000	0.317269
1042.000000	0.318063
1043.000000	0.318770
1044.000000	0.318583
1045.000000	0.318408
1046.000000	0.317938
1047.000000	0.318116
1048.000000	0.318401
1049.000000	0.318588
1050.000000	0.319374
1051.000000	0.319617
1052.000000	0.319175
1053.000000	0.318852
1054.000000	0.318580
1055.000000	0.318760
1056.000000	0.319077
1057.000000	0.319436
1058.000000	0.320055
1059.000000	0.320211
1060.000000	0.319899
1061.000000	0.319402
1062.000000	0.319182
1063.000000	0.319349
1064.000000	0.319477
1065.000000	0.319709
1066.000000	0.320104
1067.000000	0.320769
1068.000000	0.320938
1069.000000	0.320818
1070.000000	0.321068
1071.000000	0.321259
1072.000000	0.321445
1073.000000	0.321883
1074.000000	0.322609
1075.000000	0.322622
1076.000000	0.322807
1077.000000	0.323395
1078.000000	0.323835
1079.000000	0.324027
1080.000000	0.324077
1081.000000	0.324323
1082.000000	0.324651
1083.000000	0.324632
1084.000000	0.324625
1085.000000	0.324770
1086.000000	0.324343
1087.000000	0.324541
1088.000000	0.325523
1089.000000	0.325888
1090.000000	0.326135
1091.000000	0.326274
1092.000000	0.325952
1093.000000	0.325811
1094.000000	0.325973
1095.000000	0.326221
1096.000000	0.326588
1097.000000	0.327400
1098.000000	0.327768
1099.000000	0.327922
1100.000000	0.328142
1101.000000	0.328198
1102.000000	0.328240
1103.000000	0.328197
1104.000000	0.328313
1105.000000	0.328263
1106.000000	0.328500
1107.000000	0.329172
1108.000000	0.329481
1109.000000	0.329901
1110.000000	0.330068
1111.000000	0.330188
1112.000000	0.329910
1113.000000	0.330161
1114.000000	0.330805
1115.000000	0.330905
1116.000000	0.330991
1117.000000	0.330972
1118.000000	0.330316
1119.000000	0.330258
1120.000000	0.330638
1121.000000	0.330789
1122.000000	0.331106
1123.000000	0.331558
1124.000000	0.331757
1125.000000	0.332009
1126.000000	0.332353
1127.000000	0.332552
1128.000000	0.332666
1129.000000	0.332656
1130.000000	0.332811
1131.000000	0.333086
1132.000000	0.333061
1133.000000	0.332963
1134.000000	0.333013
1135.000000	0.332826
1136.000000	0.332828
1137.000000	0.333182
1138.000000	0.333193
1139.000000	0.333012
1140.000000	0.333112
1141.000000	0.333068
1142.000000	0.333253
1143.000000	0.333931
1144.000000	0.334241
1145.000000	0.334211
1146.000000	0.334113
1147.000000	0.334065
1148.000000	0.333593
1149.000000	0.333560
1150.000000	0.333863
1151.000000	0.333970
1152.000000	0.334024
1153.000000	0.334083
1154.000000	0.334075
1155.000000	0.334098
1156.000000	0.334116
1157.000000	0.334152
1158.000000	0.334122
1159.000000	0.334154
1160.000000	0.334261
1161.000000	0.334301
1162.000000	0.334312
1163.000000	0.334595
1164.000000	0.334750
1165.000000	0.334675
1166.000000	0.334783
1167.000000	0.334928
1168.000000	0.334921
1169.000000	0.334943
1170.000000	0.334929
1171.000000	0.334794
1172.000000	0.334837
1173.000000	0.334903
1174.000000	0.334993
1175.000000	0.335262
1176.000000	0.335265
1177.000000	0.335218
1178.000000	0.335164
1179.000000	0.334881
1180.000000	0.334691
1181.000000	0.334594
1182.000000	0.334593
1183.000000	0.334747
1184.000000	0.335043
1185.000000	0.335079
1186.000000	0.335122
1187.000000	0.335064
1188.000000	0.334705
1189.000000	0.334559
1190.000000	0.334606
1191.000000	0.334578
1192.000000	0.334622
1193.000000	0.334811
1194.000000	0.335002
1195.000000	0.335038
1196.000000	0.334968
1197.000000	0.334969
1198.000000	0.334899
1199.000000	0.334877
1200.000000	0.334870
1201.000000	0.335008
1202.000000	0.335128
1203.000000	0.335175
1204.000000	0.335155
1205.000000	0.335132
1206.000000	0.335067
1207.000000	0.334988
1208.000000	0.334897
1209.000000	0.334879
1210.000000	0.334812
1211.000000	0.334644
1212.000000	0.334584
1213.000000	0.334633
1214.000000	0.334691
1215.000000	0.334848
1216.000000	0.334884
1217.000000	0.334807
1218.000000	0.334763
1219.000000	0.334812
1220.000000	0.334626
1221.000000	0.334417
1222.000000	0.334435
1223.000000	0.334392
1224.000000	0.334361
1225.000000	0.334413
1226.000000	0.334424
1227.000000	0.334401
1228.000000	0.334541
1229.000000	0.334617
1230.000000	0.334784
1231.000000	0.334764
1232.000000	0.334746
1233.000000	0.334789
1234.000000	0.334714
1235.000000	0.334718
1236.000000	0.334752
1237.000000	0.334762
1238.000000	0.334690
1239.000000	0.334682
1240.000000	0.334686
1241.000000	0.334709
1242.000000	0.334671
1243.000000	0.334556
1244.000000	0.334522
1245.000000	0.334464
1246.000000	0.334315
1247.000000	0.334313
1248.000000	0.334356
1249.000000	0.334348
1250.000000	0.334403
1251.000000	0.334546
1252.000000	0.334586
1253.000000	0.334540
1254.000000	0.334471
1255.000000	0.334370
1256.000000	0.334346
1257.000000	0.334288
1258.000000	0.334304
1259.000000	0.334396
1260.000000	0.334451
1261.000000	0.334368
1262.000000	0.334397
1263.000000	0.334517
1264.000000	0.334617
1265.000000	0.334678
1266.000000	0.334749
1267.000000	0.334963
1268.000000	0.334930
1269.000000	0.334795
1270.000000	0.334880
1271.000000	0.334720
1272.000000	0.334553
1273.000000	0.334581
1274.000000	0.334513
1275.000000	0.334460
1276.000000	0.334521
1277.000000	0.334522
1278.000000	0.334353
1279.000000	0.334240
1280.000000	0.333975
1281.000000	0.333786
1282.000000	0.333723
1283.000000	0.333769
1284.000000	0.333816
1285.000000	0.333898
1286.000000	0.334094
1287.000000	0.334139
1288.000000	0.334058
1289.000000	0.333968
1290.000000	0.333860
1291.000000	0.333740
1292.000000	0.333763
1293.000000	0.333882
1294.000000	0.333775
1295.000000	0.333633
1296.000000	0.333615
1297.000000	0.333546
1298.000000	0.333643
1299.000000	0.333861
1300.000000	0.333970
1301.000000	0.333981
1302.000000	0.333920
1303.000000	0.333875
1304.000000	0.333833
1305.000000	0.333873
1306.000000	0.333824
1307.000000	0.333811
1308.000000	0.333729
1309.000000	0.333470
1310.000000	0.333426
1311.000000	0.333487
1312.000000	0.333593
1313.000000	0.333691
1314.000000	0.333541
1315.000000	0.333368
1316.000000	0.333251
1317.000000	0.333053
1318.000000	0.333039
1319.000000	0.333111
1320.000000	0.333152
1321.000000	0.333186
1322.000000	0.333157
1323.000000	0.333019
1324.000000	0.332756
1325.000000	0.332661
1326.000000	0.332734
1327.000000	0.332638
1328.000000	0.332612
1329.000000	0.332452
1330.000000	0.332083
1331.000000	0.331897
1332.000000	0.331866
1333.000000	0.331734
1334.000000	0.331719
1335.000000	0.331722
1336.000000	0.331593
1337.000000	0.331529
1338.000000	0.331496
1339.000000	0.331458
1340.000000	0.331413
1341.000000	0.331390
1342.000000	0.331365
1343.000000	0.331308
1344.000000	0.331316
1345.000000	0.331417
1346.000000	0.331555
1347.000000	0.331534
1348.000000	0.331416
1349.000000	0.331128
1350.000000	0.330837
1351.000000	0.330540
1352.000000	0.330254
1353.000000	0.330171
1354.000000	0.330141
1355.000000	0.330018
1356.000000	0.330059
1357.000000	0.329939
1358.000000	0.329822
1359.000000	0.329867
1360.000000	0.329778
1361.000000	0.329681
1362.000000	0.329519
1363.000000	0.329207
1364.000000	0.329051
1365.000000	0.328902
1366.000000	0.328752
1367.000000	0.328706
1368.000000	0.328496
1369.000000	0.328294
1370.000000	0.328131
1371.000000	0.327779
1372.000000	0.327463
1373.000000	0.327209
1374.000000	0.326856
1375.000000	0.326478
1376.000000	0.326043
1377.000000	0.325441
1378.000000	0.324580
1379.000000	0.323572
1380.000000	0.322544
1381.000000	0.321185
1382.000000	0.319631
1383.000000	0.317981
1384.000000	0.316104
1385.000000	0.314305
1386.000000	0.312694
1387.000000	0.311296
1388.000000	0.310142
1389.000000	0.309253
1390.000000	0.308676
1391.000000	0.308238
1392.000000	0.307987
1393.000000	0.307935
1394.000000	0.308160
1395.000000	0.308398
1396.000000	0.308990
1397.000000	0.309244
1398.000000	0.309367
1399.000000	0.309393
1400.000000	0.309248
1401.000000	0.308982
1402.000000	0.308628
1403.000000	0.308339
1404.000000	0.307922
1405.000000	0.307437
1406.000000	0.307028
1407.000000	0.306512
1408.000000	0.305916
1409.000000	0.305465
1410.000000	0.305105
1411.000000	0.304799
1412.000000	0.304625
1413.000000	0.304495
1414.000000	0.304301
1415.000000	0.304154
1416.000000	0.303996
1417.000000	0.303854
1418.000000	0.303760
1419.000000	0.303732
1420.000000	0.303581
1421.000000	0.303586
1422.000000	0.303750
1423.000000	0.303887
1424.000000	0.303989
1425.000000	0.304215
1426.000000	0.304352
1427.000000	0.304430
1428.000000	0.304600
1429.000000	0.304787
1430.000000	0.304903
1431.000000	0.304926
1432.000000	0.304965
1433.000000	0.304989
1434.000000	0.305066
1435.000000	0.305292
1436.000000	0.305441
1437.000000	0.305598
1438.000000	0.305677
1439.000000	0.305697
1440.000000	0.305710
1441.000000	0.305742
1442.000000	0.305786
1443.000000	0.305747
1444.000000	0.305687
1445.000000	0.305711
1446.000000	0.305738
1447.000000	0.305702
1448.000000	0.305721
1449.000000	0.305724
1450.000000	0.305649
1451.000000	0.305633
1452.000000	0.305545
1453.000000	0.305405
1454.000000	0.305322
1455.000000	0.305341
1456.000000	0.305520
1457.000000	0.305693
1458.000000	0.305803
1459.000000	0.305818
1460.000000	0.305779
1461.000000	0.305820
1462.000000	0.305836
1463.000000	0.305749
1464.000000	0.305733
1465.000000	0.305820
1466.000000	0.305932
1467.000000	0.306144
1468.000000	0.306352
1469.000000	0.306497
1470.000000	0.306558
1471.000000	0.306697
1472.000000	0.306835
1473.000000	0.307081
1474.000000	0.307372
1475.000000	0.307600
1476.000000	0.307819
1477.000000	0.307985
1478.000000	0.308113
1479.000000	0.308270
1480.000000	0.308451
1481.000000	0.308618
1482.000000	0.308806
1483.000000	0.309078
1484.000000	0.309459
1485.000000	0.309723
1486.000000	0.309923
1487.000000	0.310210
1488.000000	0.310430
1489.000000	0.310771
1490.000000	0.311203
1491.000000	0.311590
1492.000000	0.312010
1493.000000	0.312276
1494.000000	0.312329
1495.000000	0.312472
1496.000000	0.312517
1497.000000	0.312673
1498.000000	0.312927
1499.000000	0.313275
1500.000000	0.313528
1501.000000	0.313633
1502.000000	0.313677
1503.000000	0.313778
1504.000000	0.313929
1505.000000	0.314056
1506.000000	0.314182
1507.000000	0.314313
1508.000000	0.314388
1509.000000	0.314516
1510.000000	0.314795
1511.000000	0.314913
1512.000000	0.314857
1513.000000	0.314878
1514.000000	0.314888
1515.000000	0.314918
1516.000000	0.315197
1517.000000	0.315417
1518.000000	0.315413
1519.000000	0.315490
1520.000000	0.315689
1521.000000	0.315765
1522.000000	0.316031
1523.000000	0.316318
1524.000000	0.316294
1525.000000	0.316424
1526.000000	0.316605
1527.000000	0.316676
1528.000000	0.316726
1529.000000	0.316682
1530.000000	0.316625
1531.000000	0.316579
1532.000000	0.316664
1533.000000	0.316866
1534.000000	0.316997
1535.000000	0.317151
1536.000000	0.317206
1537.000000	0.317222
1538.000000	0.317300
1539.000000	0.317355
1540.000000	0.317402
1541.000000	0.317557
1542.000000	0.317779
1543.000000	0.317952
1544.000000	0.318089
1545.000000	0.318270
1546.000000	0.318337
1547.000000	0.318334
1548.000000	0.318429
1549.000000	0.318507
1550.000000	0.318627
1551.000000	0.318763
1552.000000	0.318801
1553.000000	0.318827
1554.000000	0.318794
1555.000000	0.318750
1556.000000	0.318800
1557.000000	0.318814
1558.000000	0.318893
1559.000000	0.318992
1560.000000	0.319018
1561.000000	0.319069
1562.000000	0.319112
1563.000000	0.319117
1564.000000	0.319145
1565.000000	0.319245
1566.000000	0.319223
1567.000000	0.319224
1568.000000	0.319205
1569.000000	0.319222
1570.000000	0.319178
1571.000000	0.319072
1572.000000	0.319002
1573.000000	0.318860
1574.000000	0.318885
1575.000000	0.319059
1576.000000	0.319194
1577.000000	0.319444
1578.000000	0.319508
1579.000000	0.319465
1580.000000	0.319499
1581.000000	0.319568
1582.000000	0.319633
1583.000000	0.319763
1584.000000	0.319793
1585.000000	0.319867
1586.000000	0.319910
1587.000000	0.319869
1588.000000	0.319844
1589.000000	0.319815
1590.000000	0.319771
1591.000000	0.319748
1592.000000	0.319781
1593.000000	0.319852
1594.000000	0.319879
1595.000000	0.319997
1596.000000	0.320024
1597.000000	0.320015
1598.000000	0.319996
1599.000000	0.319957
1600.000000	0.319927
1601.000000	0.319974
1602.000000	0.319960
1603.000000	0.319982
1604.000000	0.319925
1605.000000	0.319809
1606.000000	0.319766
1607.000000	0.319745
1608.000000	0.319771
1609.000000	0.319957
1610.000000	0.319955
1611.000000	0.319972
1612.000000	0.319876
1613.000000	0.319636
1614.000000	0.319575
1615.000000	0.319660
1616.000000	0.319662
1617.000000	0.319651
1618.000000	0.319648
1619.000000	0.319525
1620.000000	0.319509
1621.000000	0.319700
1622.000000	0.319787
1623.000000	0.319755
1624.000000	0.319779
1625.000000	0.319635
1626.000000	0.319564
1627.000000	0.319578
1628.000000	0.319666
1629.000000	0.319813
1630.000000	0.319894
1631.000000	0.319922
1632.000000	0.319930
1633.000000	0.319899
1634.000000	0.319882
1635.000000	0.319894
1636.000000	0.319970
1637.000000	0.320101
1638.000000	0.320132
1639.000000	0.320241
1640.000000	0.320313
1641.000000	0.320353
1642.000000	0.320412
1643.000000	0.320574
1644.000000	0.320604
1645.000000	0.320477
1646.000000	0.320478
1647.000000	0.320597
1648.000000	0.320536
1649.000000	0.320536
1650.000000	0.320549
1651.000000	0.320480
1652.000000	0.320522
1653.000000	0.320594
1654.000000	0.320694
1655.000000	0.320760
1656.000000	0.320741
1657.000000	0.320837
1658.000000	0.320873
1659.000000	0.320908
1660.000000	0.320925
1661.000000	0.320872
1662.000000	0.320884
1663.000000	0.320819
1664.000000	0.320827
1665.000000	0.320937
1666.000000	0.321029
1667.000000	0.321073
1668.000000	0.321013
1669.000000	0.320848
1670.000000	0.320757
1671.000000	0.320674
1672.000000	0.320771
1673.000000	0.321040
1674.000000	0.321093
1675.000000	0.321171
1676.000000	0.321068
1677.000000	0.320988
1678.000000	0.320858
1679.000000	0.320625
1680.000000	0.320585
1681.000000	0.320567
1682.000000	0.320612
1683.000000	0.320764
1684.000000	0.320654
1685.000000	0.320533
1686.000000	0.320563
1687.000000	0.320671
1688.000000	0.320843
1689.000000	0.321042
1690.000000	0.321012
1691.000000	0.320956
1692.000000	0.320829
1693.000000	0.320751
1694.000000	0.320832
1695.000000	0.320880
1696.000000	0.320984
1697.000000	0.320993
1698.000000	0.320956
1699.000000	0.320949
1700.000000	0.320902
1701.000000	0.320986
1702.000000	0.321018
1703.000000	0.320960
1704.000000	0.320906
1705.000000	0.320921
1706.000000	0.320993
1707.000000	0.321008
1708.000000	0.321091
1709.000000	0.321056
1710.000000	0.320944
1711.000000	0.320905
1712.000000	0.320944
1713.000000	0.320888
1714.000000	0.320867
1715.000000	0.320772
1716.000000	0.320543
1717.000000	0.320433
1718.000000	0.320273
1719.000000	0.320226
1720.000000	0.320371
1721.000000	0.320433
1722.000000	0.320560
1723.000000	0.320610
1724.000000	0.320677
1725.000000	0.320638
1726.000000	0.320323
1727.000000	0.320279
1728.000000	0.320242
1729.000000	0.320145
1730.000000	0.320325
1731.000000	0.320390
1732.000000	0.320291
1733.000000	0.320431
1734.000000	0.320627
1735.000000	0.320721
1736.000000	0.320826
1737.000000	0.320825
1738.000000	0.320757
1739.000000	0.320655
1740.000000	0.320429
1741.000000	0.320352
1742.000000	0.320317
1743.000000	0.320298
1744.000000	0.320410
1745.000000	0.320204
1746.000000	0.319776
1747.000000	0.319624
1748.000000	0.319451
1749.000000	0.319492
1750.000000	0.319482
1751.000000	0.319573
1752.000000	0.319658
1753.000000	0.319579
1754.000000	0.319599
1755.000000	0.319567
1756.000000	0.319527
1757.000000	0.319560
1758.000000	0.319622
1759.000000	0.319688
1760.000000	0.319673
1761.000000	0.319612
1762.000000	0.319565
1763.000000	0.319457
1764.000000	0.319367
1765.000000	0.319232
1766.000000	0.319253
1767.000000	0.319293
1768.000000	0.319227
1769.000000	0.319274
1770.000000	0.319417
1771.000000	0.319528
1772.000000	0.319528
1773.000000	0.319638
1774.000000	0.319519
1775.000000	0.319100
1776.000000	0.318952
1777.000000	0.318789
1778.000000	0.318765
1779.000000	0.318900
1780.000000	0.318944
1781.000000	0.319058
1782.000000	0.318981
1783.000000	0.318832
1784.000000	0.318760
1785.000000	0.318368
1786.000000	0.318380
1787.000000	0.318504
1788.000000	0.318505
1789.000000	0.318723
1790.000000	0.318904
1791.000000	0.318921
1792.000000	0.319005
1793.000000	0.319073
1794.000000	0.319059
1795.000000	0.319007
1796.000000	0.318940
1797.000000	0.318874
1798.000000	0.318625
1799.000000	0.318550
1800.000000	0.318771
1801.000000	0.318622
1802.000000	0.318871
1803.000000	0.318453
1804.000000	0.318341
1805.000000	0.318699
1806.000000	0.318449
1807.000000	0.317442
1808.000000	0.317017
1809.000000	0.316148
1810.000000	0.315931
1811.000000	0.316472
1812.000000	0.318252
1813.000000	0.318821
1814.000000	0.319735
1815.000000	0.319994
1816.000000	0.319035
1817.000000	0.318723
1818.000000	0.318370
1819.000000	0.318951
1820.000000	0.319271
1821.000000	0.318888
1822.000000	0.318515
1823.000000	0.317491
1824.000000	0.317070
1825.000000	0.316870
1826.000000	0.316617
1827.000000	0.316481
1828.000000	0.316207
1829.000000	0.316008
1830.000000	0.315260
1831.000000	0.315260
1832.000000	0.315814
1833.000000	0.315893
1834.000000	0.316165
1835.000000	0.316299
1836.000000	0.315943
1837.000000	0.315819
1838.000000	0.315937
1839.000000	0.315701
1840.000000	0.314846
1841.000000	0.314623
1842.000000	0.314411
1843.000000	0.314038
1844.000000	0.313881
1845.000000	0.313862
1846.000000	0.314120
1847.000000	0.314342
1848.000000	0.314770
1849.000000	0.315780
1850.000000	0.315740
1851.000000	0.315544
1852.000000	0.314902
1853.000000	0.314403
1854.000000	0.313414
1855.000000	0.312719
1856.000000	0.312168
1857.000000	0.310985
1858.000000	0.310407
1859.000000	0.309733
1860.000000	0.309187
1861.000000	0.308959
1862.000000	0.308585
1863.000000	0.308350
1864.000000	0.307890
1865.000000	0.307353
1866.000000	0.306810
1867.000000	0.305984
1868.000000	0.305491
1869.000000	0.304882
1870.000000	0.304394
1871.000000	0.303570
1872.000000	0.302488
1873.000000	0.301076
1874.000000	0.298817
1875.000000	0.297114
1876.000000	0.295358
1877.000000	0.293231
1878.000000	0.290963
1879.000000	0.289038
1880.000000	0.287539
1881.000000	0.286038
1882.000000	0.284365
1883.000000	0.282567
1884.000000	0.280324
1885.000000	0.276766
1886.000000	0.273944
1887.000000	0.271180
1888.000000	0.268584
1889.000000	0.265566
1890.000000	0.262789
1891.000000	0.260126
1892.000000	0.256842
1893.000000	0.254528
1894.000000	0.251941
1895.000000	0.248983
1896.000000	0.245568
1897.000000	0.243235
1898.000000	0.240087
1899.000000	0.237770
1900.000000	0.236827
1901.000000	0.234889
1902.000000	0.233412
1903.000000	0.232046
1904.000000	0.230186
1905.000000	0.229012
1906.000000	0.227976
1907.000000	0.227276
1908.000000	0.226853
1909.000000	0.226495
1910.000000	0.226036
1911.000000	0.225947
1912.000000	0.226373
1913.000000	0.227315
1914.000000	0.227915
1915.000000	0.228194
1916.000000	0.228237
1917.000000	0.228367
1918.000000	0.228081
1919.000000	0.228927
1920.000000	0.229608
1921.000000	0.229848
1922.000000	0.230496
1923.000000	0.230748
1924.000000	0.231514
1925.000000	0.232555
1926.000000	0.233231
1927.000000	0.233955
1928.000000	0.234383
1929.000000	0.234384
1930.000000	0.234794
1931.000000	0.235403
1932.000000	0.235209
1933.000000	0.235057
1934.000000	0.234927
1935.000000	0.234881
1936.000000	0.235347
1937.000000	0.236363
1938.000000	0.237733
1939.000000	0.238557
1940.000000	0.239210
1941.000000	0.239717
1942.000000	0.239878
1943.000000	0.239346
1944.000000	0.238770
1945.000000	0.238561
1946.000000	0.238778
1947.000000	0.239561
1948.000000	0.240550
1949.000000	0.240972
1950.000000	0.241194
1951.000000	0.241443
1952.000000	0.241476
1953.000000	0.241361
1954.000000	0.241552
1955.000000	0.241767
1956.000000	0.241451
1957.000000	0.241048
1958.000000	0.240669
1959.000000	0.240639
1960.000000	0.241313
1961.000000	0.241865
1962.000000	0.242377
1963.000000	0.243223
1964.000000	0.244198
1965.000000	0.244156
1966.000000	0.244059
1967.000000	0.244314
1968.000000	0.243977
1969.000000	0.244281
1970.000000	0.244795
1971.000000	0.244614
1972.000000	0.244742
1973.000000	0.244890
1974.000000	0.244752
1975.000000	0.245153
1976.000000	0.246185
1977.000000	0.247066
1978.000000	0.247506
1979.000000	0.247715
1980.000000	0.247564
1981.000000	0.247727
1982.000000	0.248078
1983.000000	0.248517
1984.000000	0.249095
1985.000000	0.249940
1986.000000	0.250359
1987.000000	0.250648
1988.000000	0.251560
1989.000000	0.251815
1990.000000	0.252261
1991.000000	0.252640
1992.000000	0.252680
1993.000000	0.252729
1994.000000	0.252817
1995.000000	0.253350
1996.000000	0.254070
1997.000000	0.254672
1998.000000	0.255490
1999.000000	0.256255
2000.000000	0.256991
2001.000000	0.257619
2002.000000	0.258280
2003.000000	0.259146
2004.000000	0.259948
2005.000000	0.260029
2006.000000	0.260147
2007.000000	0.259970
2008.000000	0.260217
2009.000000	0.260588
2010.000000	0.261302
2011.000000	0.262444
2012.000000	0.263275
2013.000000	0.264252
2014.000000	0.264427
2015.000000	0.264991
2016.000000	0.265382
2017.000000	0.265696
2018.000000	0.266078
2019.000000	0.265920
2020.000000	0.265770
2021.000000	0.265773
2022.000000	0.265407
2023.000000	0.265745
2024.000000	0.267027
2025.000000	0.267542
2026.000000	0.267975
2027.000000	0.268209
2028.000000	0.268029
2029.000000	0.267568
2030.000000	0.267573
2031.000000	0.268042
2032.000000	0.268893
2033.000000	0.270339
2034.000000	0.271467
2035.000000	0.273256
2036.000000	0.274251
2037.000000	0.274947
2038.000000	0.275300
2039.000000	0.275480
2040.000000	0.275141
2041.000000	0.274804
2042.000000	0.274640
2043.000000	0.273713
2044.000000	0.273495
2045.000000	0.273703
2046.000000	0.273733
2047.000000	0.274020
2048.000000	0.275062
2049.000000	0.275648
2050.000000	0.275371
2051.000000	0.275752
2052.000000	0.276429
2053.000000	0.276719
2054.000000	0.277266
2055.000000	0.278038
2056.000000	0.278074
2057.000000	0.278482
2058.000000	0.278376
2059.000000	0.278134
2060.000000	0.278188
2061.000000	0.278146
2062.000000	0.278202
2063.000000	0.278691
2064.000000	0.278837
2065.000000	0.279273
2066.000000	0.279212
2067.000000	0.278925
2068.000000	0.279005
2069.000000	0.278962
2070.000000	0.278793
2071.000000	0.279717
2072.000000	0.280155
2073.000000	0.280424
2074.000000	0.281109
2075.000000	0.281444
2076.000000	0.281583
2077.000000	0.281717
2078.000000	0.281771
2079.000000	0.281645
2080.000000	0.281180
2081.000000	0.281115
2082.000000	0.280973
2083.000000	0.281298
2084.000000	0.281936
2085.000000	0.282288
2086.000000	0.282731
2087.000000	0.283162
2088.000000	0.283386
2089.000000	0.283881
2090.000000	0.284356
2091.000000	0.284899
2092.000000	0.285498
2093.000000	0.286465
2094.000000	0.286887
2095.000000	0.287225
2096.000000	0.287249
2097.000000	0.286789
2098.000000	0.286034
2099.000000	0.285558
2100.000000	0.285567
2101.000000	0.286133
2102.000000	0.286850
2103.000000	0.286982
2104.000000	0.287216
2105.000000	0.286969
2106.000000	0.285514
2107.000000	0.285533
2108.000000	0.285897
2109.000000	0.286434
2110.000000	0.287854
2111.000000	0.288726
2112.000000	0.289351
2113.000000	0.290064
2114.000000	0.290472
2115.000000	0.290213
2116.000000	0.289874
2117.000000	0.289257
2118.000000	0.288716
2119.000000	0.288782
2120.000000	0.288879
2121.000000	0.289386
2122.000000	0.289586
2123.000000	0.289797
2124.000000	0.289966
2125.000000	0.289586
2126.000000	0.289822
2127.000000	0.291035
2128.000000	0.291422
2129.000000	0.291280
2130.000000	0.291946
2131.000000	0.291583
2132.000000	0.290663
2133.000000	0.291115
2134.000000	0.291196
2135.000000	0.291524
2136.000000	0.292413
2137.000000	0.292676
2138.000000	0.292597
2139.000000	0.292867
2140.000000	0.293099
2141.000000	0.293087
2142.000000	0.292927
2143.000000	0.292867
2144.000000	0.292919
2145.000000	0.293028
2146.000000	0.293457
2147.000000	0.294254
2148.000000	0.293927
2149.000000	0.293516
2150.000000	0.293818
2151.000000	0.294201
2152.000000	0.294506
2153.000000	0.294989
2154.000000	0.294662
2155.000000	0.292839
2156.000000	0.292568
2157.000000	0.292824
2158.000000	0.292812
2159.000000	0.293696
2160.000000	0.294142
2161.000000	0.293733
2162.000000	0.294148
2163.000000	0.295569
2164.000000	0.295848
2165.000000	0.295788
2166.000000	0.295582
2167.000000	0.295147
2168.000000	0.293973
2169.000000	0.293643
2170.000000	0.294211
2171.000000	0.294078
2172.000000	0.293780
2173.000000	0.293386
2174.000000	0.292971
2175.000000	0.292084
2176.000000	0.290651
2177.000000	0.289947
2178.000000	0.288783
2179.000000	0.288801
2180.000000	0.289914
2181.000000	0.290878
2182.000000	0.292549
2183.000000	0.293001
2184.000000	0.292009
2185.000000	0.291990
2186.000000	0.291373
2187.000000	0.290778
2188.000000	0.290556
2189.000000	0.290039
2190.000000	0.289884
2191.000000	0.290725
2192.000000	0.291043
2193.000000	0.292148
2194.000000	0.292316
2195.000000	0.291283
2196.000000	0.291135
2197.000000	0.291595
2198.000000	0.291685
2199.000000	0.291820
2200.000000	0.291842
2201.000000	0.291061
2202.000000	0.291343
2203.000000	0.292394
2204.000000	0.293497
2205.000000	0.293886
2206.000000	0.292401
2207.000000	0.288921
2208.000000	0.286426
2209.000000	0.286999
2210.000000	0.288159
2211.000000	0.289121
2212.000000	0.290947
2213.000000	0.291198
2214.000000	0.288999
2215.000000	0.288731
2216.000000	0.289325
2217.000000	0.289468
2218.000000	0.289412
2219.000000	0.290245
2220.000000	0.291440
2221.000000	0.292295
2222.000000	0.293765
2223.000000	0.294980
2224.000000	0.296033
2225.000000	0.296945
2226.000000	0.295707
2227.000000	0.295218
2228.000000	0.294807
2229.000000	0.293117
2230.000000	0.292749
2231.000000	0.291150
2232.000000	0.288260
2233.000000	0.285780
2234.000000	0.285767
2235.000000	0.287905
2236.000000	0.288537
2237.000000	0.290570
2238.000000	0.290850
2239.000000	0.289015
2240.000000	0.288312
2241.000000	0.287293
2242.000000	0.287607
2243.000000	0.288731
2244.000000	0.289856
2245.000000	0.292575
2246.000000	0.293568
2247.000000	0.294338
2248.000000	0.293272
2249.000000	0.289822
2250.000000	0.287897
2251.000000	0.285447
2252.000000	0.284288
2253.000000	0.287195
2254.000000	0.290288
2255.000000	0.291130
2256.000000	0.291515
2257.000000	0.290212
2258.000000	0.287394
2259.000000	0.286677
2260.000000	0.286924
2261.000000	0.286329
2262.000000	0.286443
2263.000000	0.284907
2264.000000	0.281185
2265.000000	0.280285
2266.000000	0.279927
2267.000000	0.280093
2268.000000	0.282309
2269.000000	0.283136
2270.000000	0.283039
2271.000000	0.283117
2272.000000	0.283864
2273.000000	0.284263
2274.000000	0.283980
2275.000000	0.283697
2276.000000	0.283610
2277.000000	0.282452
2278.000000	0.281145
2279.000000	0.281618
2280.000000	0.279161
2281.000000	0.275059
2282.000000	0.273503
2283.000000	0.271346
2284.000000	0.269739
2285.000000	0.270879
2286.000000	0.270656
2287.000000	0.269364
2288.000000	0.269516
2289.000000	0.270263
2290.000000	0.269723
2291.000000	0.267932
2292.000000	0.266537
2293.000000	0.262386
2294.000000	0.260677
2295.000000	0.259953
2296.000000	0.259435
2297.000000	0.260834
2298.000000	0.261225
2299.000000	0.260909
2300.000000	0.260279
2301.000000	0.259597
2302.000000	0.257945
2303.000000	0.254269
2304.000000	0.252491
2305.000000	0.251831
2306.000000	0.250268
2307.000000	0.248355
2308.000000	0.248856
2309.000000	0.247804
2310.000000	0.245949
2311.000000	0.248344
2312.000000	0.250284
2313.000000	0.250550
2314.000000	0.250427
2315.000000	0.248937
2316.000000	0.247901
2317.000000	0.246548
2318.000000	0.248403
2319.000000	0.251538
2320.000000	0.252061
2321.000000	0.254991
2322.000000	0.256141
2323.000000	0.253265
2324.000000	0.251604
2325.000000	0.248926
2326.000000	0.248113
2327.000000	0.250780
2328.000000	0.253365
2329.000000	0.257865
2330.000000	0.259832
2331.000000	0.261049
2332.000000	0.263453
2333.000000	0.264384
2334.000000	0.266883
2335.000000	0.266712
2336.000000	0.263333
2337.000000	0.262243
2338.000000	0.258612
2339.000000	0.258154
2340.000000	0.261981
2341.000000	0.262636
2342.000000	0.263734
2343.000000	0.265551
2344.000000	0.266588
2345.000000	0.266429
2346.000000	0.265727
2347.000000	0.263457
2348.000000	0.258078
2349.000000	0.257286
2350.000000	0.255827
2351.000000	0.256620
2352.000000	0.258374
2353.000000	0.258924
2354.000000	0.259030
2355.000000	0.260322
2356.000000	0.263205
2357.000000	0.260936
2358.000000	0.258623
2359.000000	0.257575
2360.000000	0.254523
2361.000000	0.256896
2362.000000	0.259589
2363.000000	0.258887
2364.000000	0.259206
2365.000000	0.257436
2366.000000	0.256548
2367.000000	0.255667
2368.000000	0.252334
2369.000000	0.252121
2370.000000	0.245987
2371.000000	0.241630
2372.000000	0.244442
2373.000000	0.241305
2374.000000	0.243484
2375.000000	0.249671
2376.000000	0.248300
2377.000000	0.245654
2378.000000	0.244537
2379.000000	0.241979
2380.000000	0.240649
2381.000000	0.242365
2382.000000	0.239714
2383.000000	0.235628
2384.000000	0.231174
2385.000000	0.227452
2386.000000	0.227373
2387.000000	0.227608
2388.000000	0.232413
2389.000000	0.234164
2390.000000	0.234345
2391.000000	0.237717
2392.000000	0.239290
2393.000000	0.237755
2394.000000	0.235636
2395.000000	0.237549
2396.000000	0.235621
2397.000000	0.237225
2398.000000	0.243989
2399.000000	0.239960
2400.000000	0.233333
2401.000000	0.232313
2402.000000	0.231702
2403.000000	0.232359
2404.000000	0.232874
2405.000000	0.235548
2406.000000	0.237099
2407.000000	0.236661
2408.000000	0.243551
2409.000000	0.244077
2410.000000	0.236263
2411.000000	0.226908
2412.000000	0.217558
2413.000000	0.218564
2414.000000	0.227984
2415.000000	0.236000
2416.000000	0.239236
2417.000000	0.240344
2418.000000	0.236430
2419.000000	0.238691
2420.000000	0.244433
2421.000000	0.238013
2422.000000	0.236364
2423.000000	0.229954
2424.000000	0.219857
2425.000000	0.217394
2426.000000	0.210875
2427.000000	0.214518
2428.000000	0.219597
2429.000000	0.216919
2430.000000	0.216217
2431.000000	0.210201
2432.000000	0.199866
2433.000000	0.205427
2434.000000	0.212577
2435.000000	0.215883
2436.000000	0.228397
2437.000000	0.231314
2438.000000	0.243218
2439.000000	0.253874
2440.000000	0.252917
2441.000000	0.255840
2442.000000	0.244526
2443.000000	0.239092
2444.000000	0.245197
2445.000000	0.253086
2446.000000	0.262778
2447.000000	0.264121
2448.000000	0.258439
2449.000000	0.243735
2450.000000	0.228597
2451.000000	0.222107
2452.000000	0.210499
2453.000000	0.202757
2454.000000	0.205307
2455.000000	0.211805
2456.000000	0.221054
2457.000000	0.227431
2458.000000	0.237281
2459.000000	0.245315
2460.000000	0.252834
2461.000000	0.262623
2462.000000	0.260290
2463.000000	0.253669
2464.000000	0.243652
2465.000000	0.224081
2466.000000	0.222653
2467.000000	0.213417
2468.000000	0.188356
2469.000000	0.194052
2470.000000	0.192852
2471.000000	0.179659
2472.000000	0.202517
2473.000000	0.210597
2474.000000	0.186405
2475.000000	0.220460
2476.000000	0.234699
2477.000000	0.222407
2478.000000	0.282650
2479.000000	0.291815
2480.000000	0.276517
2481.000000	0.287975
2482.000000	0.231466
2483.000000	0.191237
2484.000000	0.163102
2485.000000	0.134822
2486.000000	0.165458
2487.000000	0.187614
2488.000000	0.211700
2489.000000	0.237298
2490.000000	0.245406
2491.000000	0.225688
2492.000000	0.208393
2493.000000	0.194878
2494.000000	0.174220
2495.000000	0.126989
2496.000000	0.120590
2497.000000	0.151617
2498.000000	0.147721
2499.000000	0.148033
2500.000000	0.165638
