# Wavelength	SM1200H-30_HEX-30_FV7-40_00000.asd.rts.txt
350.000000	0.229981
351.000000	0.243518
352.000000	0.257905
353.000000	0.258105
354.000000	0.249724
355.000000	0.271044
356.000000	0.276211
357.000000	0.265904
358.000000	0.266305
359.000000	0.260854
360.000000	0.257860
361.000000	0.265942
362.000000	0.261332
363.000000	0.257489
364.000000	0.261408
365.000000	0.258588
366.000000	0.257303
367.000000	0.259390
368.000000	0.262352
369.000000	0.264128
370.000000	0.266996
371.000000	0.272735
372.000000	0.267845
373.000000	0.261532
374.000000	0.261770
375.000000	0.266878
376.000000	0.270713
377.000000	0.271543
378.000000	0.271958
379.000000	0.268953
380.000000	0.266874
381.000000	0.271422
382.000000	0.268775
383.000000	0.266326
384.000000	0.269630
385.000000	0.272134
386.000000	0.273391
387.000000	0.273825
388.000000	0.274135
389.000000	0.276850
390.000000	0.279438
391.000000	0.277803
392.000000	0.277148
393.000000	0.276890
394.000000	0.276333
395.000000	0.277217
396.000000	0.278777
397.000000	0.280249
398.000000	0.281038
399.000000	0.280929
400.000000	0.280707
401.000000	0.281356
402.000000	0.280879
403.000000	0.280154
404.000000	0.280428
405.000000	0.281680
406.000000	0.282293
407.000000	0.282161
408.000000	0.283815
409.000000	0.283559
410.000000	0.282235
411.000000	0.283201
412.000000	0.283805
413.000000	0.284220
414.000000	0.284985
415.000000	0.284715
416.000000	0.284807
417.000000	0.285832
418.000000	0.286215
419.000000	0.286517
420.000000	0.286905
421.000000	0.287272
422.000000	0.287078
423.000000	0.287168
424.000000	0.288581
425.000000	0.288791
426.000000	0.288620
427.000000	0.288907
428.000000	0.289313
429.000000	0.289570
430.000000	0.289710
431.000000	0.290198
432.000000	0.290219
433.000000	0.290029
434.000000	0.290471
435.000000	0.290802
436.000000	0.290980
437.000000	0.291119
438.000000	0.291605
439.000000	0.291851
440.000000	0.291788
441.000000	0.291998
442.000000	0.292447
443.000000	0.292927
444.000000	0.293252
445.000000	0.293328
446.000000	0.293328
447.000000	0.293308
448.000000	0.293565
449.000000	0.293972
450.000000	0.294404
451.000000	0.294820
452.000000	0.295196
453.000000	0.295419
454.000000	0.295512
455.000000	0.295672
456.000000	0.296073
457.000000	0.296609
458.000000	0.296719
459.000000	0.296883
460.000000	0.297518
461.000000	0.297683
462.000000	0.297896
463.000000	0.298217
464.000000	0.298457
465.000000	0.298531
466.000000	0.298602
467.000000	0.299170
468.000000	0.299268
469.000000	0.299166
470.000000	0.299520
471.000000	0.299557
472.000000	0.299762
473.000000	0.300330
474.000000	0.300206
475.000000	0.300138
476.000000	0.300576
477.000000	0.301363
478.000000	0.301432
479.000000	0.301266
480.000000	0.301538
481.000000	0.301751
482.000000	0.302028
483.000000	0.302262
484.000000	0.302432
485.000000	0.302621
486.000000	0.302983
487.000000	0.303056
488.000000	0.303424
489.000000	0.303961
490.000000	0.304029
491.000000	0.304313
492.000000	0.304750
493.000000	0.304954
494.000000	0.305139
495.000000	0.305396
496.000000	0.305706
497.000000	0.306015
498.000000	0.306310
499.000000	0.306623
500.000000	0.306807
501.000000	0.306872
502.000000	0.307062
503.000000	0.307599
504.000000	0.307973
505.000000	0.308191
506.000000	0.308376
507.000000	0.308589
508.000000	0.308856
509.000000	0.309163
510.000000	0.309640
511.000000	0.309866
512.000000	0.309948
513.000000	0.310366
514.000000	0.310751
515.000000	0.311075
516.000000	0.311340
517.000000	0.311687
518.000000	0.312006
519.000000	0.312162
520.000000	0.312543
521.000000	0.312872
522.000000	0.313082
523.000000	0.313418
524.000000	0.313628
525.000000	0.313800
526.000000	0.314253
527.000000	0.314609
528.000000	0.314816
529.000000	0.314985
530.000000	0.315252
531.000000	0.315559
532.000000	0.315793
533.000000	0.316155
534.000000	0.316477
535.000000	0.316726
536.000000	0.317058
537.000000	0.317328
538.000000	0.317538
539.000000	0.317735
540.000000	0.317961
541.000000	0.318222
542.000000	0.318544
543.000000	0.318880
544.000000	0.319131
545.000000	0.319256
546.000000	0.319626
547.000000	0.319988
548.000000	0.320311
549.000000	0.320596
550.000000	0.320894
551.000000	0.321205
552.000000	0.321458
553.000000	0.321726
554.000000	0.322064
555.000000	0.322470
556.000000	0.322771
557.000000	0.322994
558.000000	0.323305
559.000000	0.323628
560.000000	0.323915
561.000000	0.324271
562.000000	0.324692
563.000000	0.324972
564.000000	0.325254
565.000000	0.325582
566.000000	0.325908
567.000000	0.326217
568.000000	0.326494
569.000000	0.326815
570.000000	0.327126
571.000000	0.327417
572.000000	0.327741
573.000000	0.328027
574.000000	0.328290
575.000000	0.328639
576.000000	0.328983
577.000000	0.329274
578.000000	0.329558
579.000000	0.329830
580.000000	0.330132
581.000000	0.330471
582.000000	0.330824
583.000000	0.331098
584.000000	0.331362
585.000000	0.331780
586.000000	0.332043
587.000000	0.332212
588.000000	0.332426
589.000000	0.332662
590.000000	0.332913
591.000000	0.333168
592.000000	0.333407
593.000000	0.333666
594.000000	0.333954
595.000000	0.334272
596.000000	0.334455
597.000000	0.334615
598.000000	0.334844
599.000000	0.334975
600.000000	0.335158
601.000000	0.335433
602.000000	0.335721
603.000000	0.335928
604.000000	0.336059
605.000000	0.336246
606.000000	0.336436
607.000000	0.336606
608.000000	0.336733
609.000000	0.336927
610.000000	0.337149
611.000000	0.337331
612.000000	0.337507
613.000000	0.337659
614.000000	0.337815
615.000000	0.337960
616.000000	0.338096
617.000000	0.338221
618.000000	0.338451
619.000000	0.338635
620.000000	0.338741
621.000000	0.338860
622.000000	0.338975
623.000000	0.339079
624.000000	0.339168
625.000000	0.339249
626.000000	0.339335
627.000000	0.339436
628.000000	0.339546
629.000000	0.339788
630.000000	0.339970
631.000000	0.340058
632.000000	0.340213
633.000000	0.340438
634.000000	0.340667
635.000000	0.340815
636.000000	0.340954
637.000000	0.341103
638.000000	0.341229
639.000000	0.341302
640.000000	0.341413
641.000000	0.341571
642.000000	0.341763
643.000000	0.341937
644.000000	0.342046
645.000000	0.342166
646.000000	0.342291
647.000000	0.342399
648.000000	0.342609
649.000000	0.342843
650.000000	0.343028
651.000000	0.343167
652.000000	0.343263
653.000000	0.343369
654.000000	0.343471
655.000000	0.343651
656.000000	0.343900
657.000000	0.344121
658.000000	0.344330
659.000000	0.344492
660.000000	0.344585
661.000000	0.344654
662.000000	0.344773
663.000000	0.344975
664.000000	0.345134
665.000000	0.345268
666.000000	0.345364
667.000000	0.345401
668.000000	0.345576
669.000000	0.345729
670.000000	0.345789
671.000000	0.345890
672.000000	0.346054
673.000000	0.346247
674.000000	0.346412
675.000000	0.346555
676.000000	0.346700
677.000000	0.346879
678.000000	0.346994
679.000000	0.347096
680.000000	0.347229
681.000000	0.347313
682.000000	0.347445
683.000000	0.347573
684.000000	0.347756
685.000000	0.347932
686.000000	0.348106
687.000000	0.348248
688.000000	0.348428
689.000000	0.348573
690.000000	0.348679
691.000000	0.348846
692.000000	0.348952
693.000000	0.349073
694.000000	0.349317
695.000000	0.349542
696.000000	0.349744
697.000000	0.349969
698.000000	0.350144
699.000000	0.350325
700.000000	0.350545
701.000000	0.350656
702.000000	0.350782
703.000000	0.350941
704.000000	0.351071
705.000000	0.351207
706.000000	0.351315
707.000000	0.351446
708.000000	0.351595
709.000000	0.351738
710.000000	0.351873
711.000000	0.351956
712.000000	0.352044
713.000000	0.352191
714.000000	0.352397
715.000000	0.352562
716.000000	0.352705
717.000000	0.352866
718.000000	0.353011
719.000000	0.353166
720.000000	0.353358
721.000000	0.353477
722.000000	0.353568
723.000000	0.353730
724.000000	0.353935
725.000000	0.354076
726.000000	0.354212
727.000000	0.354285
728.000000	0.354322
729.000000	0.354392
730.000000	0.354477
731.000000	0.354561
732.000000	0.354694
733.000000	0.354888
734.000000	0.354961
735.000000	0.355054
736.000000	0.355264
737.000000	0.355379
738.000000	0.355426
739.000000	0.355520
740.000000	0.355549
741.000000	0.355590
742.000000	0.355676
743.000000	0.355757
744.000000	0.355787
745.000000	0.355811
746.000000	0.355884
747.000000	0.355956
748.000000	0.356137
749.000000	0.356293
750.000000	0.356321
751.000000	0.356422
752.000000	0.356467
753.000000	0.356473
754.000000	0.356541
755.000000	0.356598
756.000000	0.356671
757.000000	0.356740
758.000000	0.356763
759.000000	0.356853
760.000000	0.356979
761.000000	0.357125
762.000000	0.357199
763.000000	0.357201
764.000000	0.357283
765.000000	0.357367
766.000000	0.357481
767.000000	0.357629
768.000000	0.357659
769.000000	0.357698
770.000000	0.357798
771.000000	0.357877
772.000000	0.357962
773.000000	0.358005
774.000000	0.358088
775.000000	0.358132
776.000000	0.358180
777.000000	0.358238
778.000000	0.358247
779.000000	0.358264
780.000000	0.358302
781.000000	0.358304
782.000000	0.358290
783.000000	0.358316
784.000000	0.358255
785.000000	0.358301
786.000000	0.358343
787.000000	0.358333
788.000000	0.358410
789.000000	0.358448
790.000000	0.358427
791.000000	0.358435
792.000000	0.358447
793.000000	0.358452
794.000000	0.358476
795.000000	0.358644
796.000000	0.358787
797.000000	0.358847
798.000000	0.358893
799.000000	0.358868
800.000000	0.358821
801.000000	0.358825
802.000000	0.358835
803.000000	0.358847
804.000000	0.358888
805.000000	0.358881
806.000000	0.358898
807.000000	0.358966
808.000000	0.358922
809.000000	0.358930
810.000000	0.358969
811.000000	0.358984
812.000000	0.358972
813.000000	0.358986
814.000000	0.359009
815.000000	0.358988
816.000000	0.358868
817.000000	0.358773
818.000000	0.358736
819.000000	0.358761
820.000000	0.358782
821.000000	0.358742
822.000000	0.358789
823.000000	0.358812
824.000000	0.358761
825.000000	0.358753
826.000000	0.358733
827.000000	0.358617
828.000000	0.358477
829.000000	0.358540
830.000000	0.358567
831.000000	0.358578
832.000000	0.358536
833.000000	0.358531
834.000000	0.358476
835.000000	0.358371
836.000000	0.358395
837.000000	0.358386
838.000000	0.358364
839.000000	0.358429
840.000000	0.358405
841.000000	0.358344
842.000000	0.358284
843.000000	0.358237
844.000000	0.358196
845.000000	0.358133
846.000000	0.358090
847.000000	0.358092
848.000000	0.358077
849.000000	0.358026
850.000000	0.358032
851.000000	0.357980
852.000000	0.357900
853.000000	0.357910
854.000000	0.357699
855.000000	0.357533
856.000000	0.357552
857.000000	0.357389
858.000000	0.357312
859.000000	0.357315
860.000000	0.357146
861.000000	0.357076
862.000000	0.357119
863.000000	0.357096
864.000000	0.356981
865.000000	0.356828
866.000000	0.356711
867.000000	0.356630
868.000000	0.356562
869.000000	0.356467
870.000000	0.356423
871.000000	0.356323
872.000000	0.356208
873.000000	0.356057
874.000000	0.355962
875.000000	0.355785
876.000000	0.355552
877.000000	0.355290
878.000000	0.355133
879.000000	0.354989
880.000000	0.354676
881.000000	0.354493
882.000000	0.354267
883.000000	0.354020
884.000000	0.353782
885.000000	0.353697
886.000000	0.353556
887.000000	0.353317
888.000000	0.353209
889.000000	0.353057
890.000000	0.352842
891.000000	0.352829
892.000000	0.352734
893.000000	0.352612
894.000000	0.352602
895.000000	0.352478
896.000000	0.352215
897.000000	0.351935
898.000000	0.351780
899.000000	0.351613
900.000000	0.351461
901.000000	0.351272
902.000000	0.351026
903.000000	0.350848
904.000000	0.350677
905.000000	0.350352
906.000000	0.350306
907.000000	0.350186
908.000000	0.349938
909.000000	0.349663
910.000000	0.349508
911.000000	0.349432
912.000000	0.349375
913.000000	0.349346
914.000000	0.349215
915.000000	0.349018
916.000000	0.348731
917.000000	0.348413
918.000000	0.348117
919.000000	0.347840
920.000000	0.347559
921.000000	0.347335
922.000000	0.347120
923.000000	0.346809
924.000000	0.346696
925.000000	0.346499
926.000000	0.346157
927.000000	0.345971
928.000000	0.345775
929.000000	0.345487
930.000000	0.345117
931.000000	0.344980
932.000000	0.344914
933.000000	0.344727
934.000000	0.344124
935.000000	0.343631
936.000000	0.343559
937.000000	0.343752
938.000000	0.343295
939.000000	0.343110
940.000000	0.343123
941.000000	0.342875
942.000000	0.342672
943.000000	0.342418
944.000000	0.341923
945.000000	0.341385
946.000000	0.340968
947.000000	0.340803
948.000000	0.340805
949.000000	0.340508
950.000000	0.340216
951.000000	0.340063
952.000000	0.340099
953.000000	0.339794
954.000000	0.339393
955.000000	0.339074
956.000000	0.338750
957.000000	0.338409
958.000000	0.338052
959.000000	0.337840
960.000000	0.337797
961.000000	0.337638
962.000000	0.337335
963.000000	0.337241
964.000000	0.337070
965.000000	0.336782
966.000000	0.336381
967.000000	0.336462
968.000000	0.336239
969.000000	0.335775
970.000000	0.335647
971.000000	0.335517
972.000000	0.335376
973.000000	0.335146
974.000000	0.334858
975.000000	0.334520
976.000000	0.334186
977.000000	0.333902
978.000000	0.333723
979.000000	0.333593
980.000000	0.333363
981.000000	0.333310
982.000000	0.332738
983.000000	0.332432
984.000000	0.332614
985.000000	0.332631
986.000000	0.332624
987.000000	0.332428
988.000000	0.331864
989.000000	0.331245
990.000000	0.331167
991.000000	0.331364
992.000000	0.331365
993.000000	0.331217
994.000000	0.330858
995.000000	0.330581
996.000000	0.330462
997.000000	0.330502
998.000000	0.330427
999.000000	0.330314
1000.000000	0.330500
1001.000000	0.330982
1002.000000	0.330457
1003.000000	0.329802
1004.000000	0.329660
1005.000000	0.329804
1006.000000	0.329531
1007.000000	0.329674
1008.000000	0.329188
1009.000000	0.328300
1010.000000	0.327681
1011.000000	0.328007
1012.000000	0.329247
1013.000000	0.329214
1014.000000	0.328644
1015.000000	0.328820
1016.000000	0.328706
1017.000000	0.328537
1018.000000	0.329021
1019.000000	0.329401
1020.000000	0.329575
1021.000000	0.329220
1022.000000	0.329244
1023.000000	0.329285
1024.000000	0.328480
1025.000000	0.328280
1026.000000	0.328812
1027.000000	0.328842
1028.000000	0.328904
1029.000000	0.328381
1030.000000	0.327352
1031.000000	0.327449
1032.000000	0.328366
1033.000000	0.328873
1034.000000	0.329060
1035.000000	0.329463
1036.000000	0.329497
1037.000000	0.328925
1038.000000	0.328476
1039.000000	0.328282
1040.000000	0.327733
1041.000000	0.327205
1042.000000	0.326778
1043.000000	0.327173
1044.000000	0.328025
1045.000000	0.328720
1046.000000	0.329226
1047.000000	0.329465
1048.000000	0.329200
1049.000000	0.329269
1050.000000	0.329390
1051.000000	0.329414
1052.000000	0.329363
1053.000000	0.329483
1054.000000	0.329745
1055.000000	0.329939
1056.000000	0.330322
1057.000000	0.330743
1058.000000	0.330666
1059.000000	0.330824
1060.000000	0.330910
1061.000000	0.330589
1062.000000	0.330391
1063.000000	0.330170
1064.000000	0.330297
1065.000000	0.330762
1066.000000	0.330956
1067.000000	0.331257
1068.000000	0.331441
1069.000000	0.331193
1070.000000	0.331343
1071.000000	0.331876
1072.000000	0.332125
1073.000000	0.332451
1074.000000	0.332715
1075.000000	0.332733
1076.000000	0.333432
1077.000000	0.333851
1078.000000	0.333763
1079.000000	0.333909
1080.000000	0.333851
1081.000000	0.333986
1082.000000	0.334449
1083.000000	0.334749
1084.000000	0.335021
1085.000000	0.335315
1086.000000	0.335637
1087.000000	0.335902
1088.000000	0.336173
1089.000000	0.336227
1090.000000	0.336028
1091.000000	0.335738
1092.000000	0.335775
1093.000000	0.336042
1094.000000	0.336204
1095.000000	0.336488
1096.000000	0.336827
1097.000000	0.337126
1098.000000	0.337441
1099.000000	0.337966
1100.000000	0.338282
1101.000000	0.338306
1102.000000	0.338463
1103.000000	0.338674
1104.000000	0.338810
1105.000000	0.338838
1106.000000	0.338959
1107.000000	0.338995
1108.000000	0.339085
1109.000000	0.339347
1110.000000	0.339633
1111.000000	0.339732
1112.000000	0.339633
1113.000000	0.339892
1114.000000	0.340287
1115.000000	0.340508
1116.000000	0.340853
1117.000000	0.341158
1118.000000	0.341305
1119.000000	0.341395
1120.000000	0.341686
1121.000000	0.341708
1122.000000	0.341239
1123.000000	0.341484
1124.000000	0.341942
1125.000000	0.342175
1126.000000	0.342550
1127.000000	0.342793
1128.000000	0.342897
1129.000000	0.342739
1130.000000	0.342697
1131.000000	0.342682
1132.000000	0.342667
1133.000000	0.342541
1134.000000	0.342676
1135.000000	0.343056
1136.000000	0.343146
1137.000000	0.343241
1138.000000	0.343197
1139.000000	0.342960
1140.000000	0.342933
1141.000000	0.342870
1142.000000	0.342895
1143.000000	0.342899
1144.000000	0.343118
1145.000000	0.343397
1146.000000	0.343481
1147.000000	0.343600
1148.000000	0.343703
1149.000000	0.343676
1150.000000	0.343526
1151.000000	0.343472
1152.000000	0.343280
1153.000000	0.343248
1154.000000	0.343252
1155.000000	0.343284
1156.000000	0.343365
1157.000000	0.343495
1158.000000	0.343732
1159.000000	0.343791
1160.000000	0.343775
1161.000000	0.343777
1162.000000	0.343695
1163.000000	0.343784
1164.000000	0.343946
1165.000000	0.343875
1166.000000	0.343925
1167.000000	0.343908
1168.000000	0.343896
1169.000000	0.343954
1170.000000	0.343995
1171.000000	0.344045
1172.000000	0.344129
1173.000000	0.344206
1174.000000	0.344262
1175.000000	0.344279
1176.000000	0.344281
1177.000000	0.344342
1178.000000	0.344387
1179.000000	0.344458
1180.000000	0.344438
1181.000000	0.344479
1182.000000	0.344466
1183.000000	0.344477
1184.000000	0.344355
1185.000000	0.344353
1186.000000	0.344398
1187.000000	0.344375
1188.000000	0.344357
1189.000000	0.344314
1190.000000	0.344276
1191.000000	0.344218
1192.000000	0.344314
1193.000000	0.344356
1194.000000	0.344129
1195.000000	0.344081
1196.000000	0.344005
1197.000000	0.343984
1198.000000	0.344123
1199.000000	0.344184
1200.000000	0.344156
1201.000000	0.344279
1202.000000	0.344281
1203.000000	0.344228
1204.000000	0.344145
1205.000000	0.344034
1206.000000	0.343982
1207.000000	0.344079
1208.000000	0.344040
1209.000000	0.344022
1210.000000	0.344080
1211.000000	0.344134
1212.000000	0.344135
1213.000000	0.344240
1214.000000	0.344342
1215.000000	0.344432
1216.000000	0.344415
1217.000000	0.344322
1218.000000	0.344260
1219.000000	0.344127
1220.000000	0.343978
1221.000000	0.344142
1222.000000	0.344116
1223.000000	0.344007
1224.000000	0.344196
1225.000000	0.344106
1226.000000	0.344044
1227.000000	0.344087
1228.000000	0.343959
1229.000000	0.343883
1230.000000	0.343854
1231.000000	0.343714
1232.000000	0.343592
1233.000000	0.343638
1234.000000	0.343699
1235.000000	0.343756
1236.000000	0.343817
1237.000000	0.343871
1238.000000	0.343852
1239.000000	0.343858
1240.000000	0.343878
1241.000000	0.343927
1242.000000	0.343925
1243.000000	0.343840
1244.000000	0.343817
1245.000000	0.343841
1246.000000	0.343845
1247.000000	0.343987
1248.000000	0.344065
1249.000000	0.344158
1250.000000	0.344184
1251.000000	0.343984
1252.000000	0.343888
1253.000000	0.343790
1254.000000	0.343675
1255.000000	0.343581
1256.000000	0.343526
1257.000000	0.343441
1258.000000	0.343444
1259.000000	0.343490
1260.000000	0.343538
1261.000000	0.343551
1262.000000	0.343542
1263.000000	0.343542
1264.000000	0.343532
1265.000000	0.343501
1266.000000	0.343470
1267.000000	0.343536
1268.000000	0.343576
1269.000000	0.343479
1270.000000	0.343539
1271.000000	0.343560
1272.000000	0.343444
1273.000000	0.343391
1274.000000	0.343416
1275.000000	0.343408
1276.000000	0.343401
1277.000000	0.343467
1278.000000	0.343472
1279.000000	0.343450
1280.000000	0.343411
1281.000000	0.343282
1282.000000	0.343117
1283.000000	0.343118
1284.000000	0.343036
1285.000000	0.343013
1286.000000	0.343080
1287.000000	0.343107
1288.000000	0.343187
1289.000000	0.343209
1290.000000	0.343055
1291.000000	0.343002
1292.000000	0.343015
1293.000000	0.342955
1294.000000	0.342935
1295.000000	0.342972
1296.000000	0.342961
1297.000000	0.342871
1298.000000	0.342834
1299.000000	0.342857
1300.000000	0.342922
1301.000000	0.342949
1302.000000	0.342915
1303.000000	0.343062
1304.000000	0.343010
1305.000000	0.342922
1306.000000	0.342831
1307.000000	0.342681
1308.000000	0.342669
1309.000000	0.342731
1310.000000	0.342690
1311.000000	0.342674
1312.000000	0.342695
1313.000000	0.342578
1314.000000	0.342585
1315.000000	0.342767
1316.000000	0.342691
1317.000000	0.342541
1318.000000	0.342374
1319.000000	0.341930
1320.000000	0.341699
1321.000000	0.341563
1322.000000	0.341430
1323.000000	0.341513
1324.000000	0.341358
1325.000000	0.341064
1326.000000	0.340884
1327.000000	0.340657
1328.000000	0.340683
1329.000000	0.340613
1330.000000	0.340707
1331.000000	0.340645
1332.000000	0.340503
1333.000000	0.340361
1334.000000	0.340263
1335.000000	0.340238
1336.000000	0.340260
1337.000000	0.340139
1338.000000	0.339964
1339.000000	0.339739
1340.000000	0.339432
1341.000000	0.339214
1342.000000	0.339205
1343.000000	0.339131
1344.000000	0.338879
1345.000000	0.338660
1346.000000	0.338606
1347.000000	0.338447
1348.000000	0.338339
1349.000000	0.338275
1350.000000	0.338156
1351.000000	0.338065
1352.000000	0.337988
1353.000000	0.337875
1354.000000	0.337771
1355.000000	0.337455
1356.000000	0.337334
1357.000000	0.337266
1358.000000	0.337073
1359.000000	0.336942
1360.000000	0.336749
1361.000000	0.336466
1362.000000	0.336301
1363.000000	0.336115
1364.000000	0.336046
1365.000000	0.336136
1366.000000	0.336027
1367.000000	0.335858
1368.000000	0.335713
1369.000000	0.335543
1370.000000	0.335344
1371.000000	0.335176
1372.000000	0.334966
1373.000000	0.334699
1374.000000	0.334302
1375.000000	0.333865
1376.000000	0.333513
1377.000000	0.333006
1378.000000	0.332362
1379.000000	0.331726
1380.000000	0.330879
1381.000000	0.329710
1382.000000	0.328579
1383.000000	0.327373
1384.000000	0.326121
1385.000000	0.325101
1386.000000	0.324112
1387.000000	0.323050
1388.000000	0.321912
1389.000000	0.321034
1390.000000	0.320415
1391.000000	0.319948
1392.000000	0.319850
1393.000000	0.319786
1394.000000	0.319999
1395.000000	0.320028
1396.000000	0.320160
1397.000000	0.320045
1398.000000	0.319666
1399.000000	0.319355
1400.000000	0.319041
1401.000000	0.318583
1402.000000	0.318118
1403.000000	0.317519
1404.000000	0.316918
1405.000000	0.316207
1406.000000	0.315463
1407.000000	0.314936
1408.000000	0.314252
1409.000000	0.313552
1410.000000	0.313093
1411.000000	0.312487
1412.000000	0.311797
1413.000000	0.311364
1414.000000	0.310959
1415.000000	0.310451
1416.000000	0.310138
1417.000000	0.309791
1418.000000	0.309135
1419.000000	0.308665
1420.000000	0.308301
1421.000000	0.308040
1422.000000	0.307822
1423.000000	0.307604
1424.000000	0.307256
1425.000000	0.306868
1426.000000	0.306485
1427.000000	0.306181
1428.000000	0.305908
1429.000000	0.305569
1430.000000	0.305340
1431.000000	0.305097
1432.000000	0.304789
1433.000000	0.304453
1434.000000	0.304179
1435.000000	0.303938
1436.000000	0.303778
1437.000000	0.303794
1438.000000	0.303509
1439.000000	0.303117
1440.000000	0.302837
1441.000000	0.302437
1442.000000	0.302172
1443.000000	0.301999
1444.000000	0.301792
1445.000000	0.301606
1446.000000	0.301356
1447.000000	0.301083
1448.000000	0.300865
1449.000000	0.300547
1450.000000	0.300301
1451.000000	0.300182
1452.000000	0.299947
1453.000000	0.299750
1454.000000	0.299611
1455.000000	0.299404
1456.000000	0.299302
1457.000000	0.299241
1458.000000	0.299141
1459.000000	0.299130
1460.000000	0.299217
1461.000000	0.299301
1462.000000	0.299305
1463.000000	0.299196
1464.000000	0.299076
1465.000000	0.298989
1466.000000	0.298876
1467.000000	0.298832
1468.000000	0.298897
1469.000000	0.299124
1470.000000	0.299323
1471.000000	0.299514
1472.000000	0.299707
1473.000000	0.299822
1474.000000	0.299841
1475.000000	0.300002
1476.000000	0.300288
1477.000000	0.300544
1478.000000	0.300722
1479.000000	0.300872
1480.000000	0.300989
1481.000000	0.301105
1482.000000	0.301270
1483.000000	0.301490
1484.000000	0.301699
1485.000000	0.301931
1486.000000	0.302167
1487.000000	0.302431
1488.000000	0.302791
1489.000000	0.303122
1490.000000	0.303340
1491.000000	0.303637
1492.000000	0.303865
1493.000000	0.304162
1494.000000	0.304494
1495.000000	0.304808
1496.000000	0.305180
1497.000000	0.305485
1498.000000	0.305795
1499.000000	0.305982
1500.000000	0.306248
1501.000000	0.306459
1502.000000	0.306497
1503.000000	0.306818
1504.000000	0.307133
1505.000000	0.307317
1506.000000	0.307746
1507.000000	0.307969
1508.000000	0.307987
1509.000000	0.308189
1510.000000	0.308300
1511.000000	0.308390
1512.000000	0.308674
1513.000000	0.308859
1514.000000	0.309018
1515.000000	0.309228
1516.000000	0.309359
1517.000000	0.309437
1518.000000	0.309530
1519.000000	0.309552
1520.000000	0.309521
1521.000000	0.309436
1522.000000	0.309470
1523.000000	0.309636
1524.000000	0.309795
1525.000000	0.309983
1526.000000	0.310037
1527.000000	0.310041
1528.000000	0.310133
1529.000000	0.310242
1530.000000	0.310303
1531.000000	0.310388
1532.000000	0.310454
1533.000000	0.310428
1534.000000	0.310485
1535.000000	0.310647
1536.000000	0.310732
1537.000000	0.310909
1538.000000	0.311092
1539.000000	0.311066
1540.000000	0.311068
1541.000000	0.311174
1542.000000	0.311197
1543.000000	0.311281
1544.000000	0.311381
1545.000000	0.311443
1546.000000	0.311547
1547.000000	0.311586
1548.000000	0.311631
1549.000000	0.311646
1550.000000	0.311539
1551.000000	0.311504
1552.000000	0.311522
1553.000000	0.311547
1554.000000	0.311600
1555.000000	0.311641
1556.000000	0.311707
1557.000000	0.311773
1558.000000	0.311899
1559.000000	0.312107
1560.000000	0.312142
1561.000000	0.312159
1562.000000	0.312099
1563.000000	0.311894
1564.000000	0.311888
1565.000000	0.311952
1566.000000	0.311934
1567.000000	0.312122
1568.000000	0.312091
1569.000000	0.311980
1570.000000	0.311933
1571.000000	0.311723
1572.000000	0.311740
1573.000000	0.311938
1574.000000	0.312014
1575.000000	0.312231
1576.000000	0.312307
1577.000000	0.312226
1578.000000	0.312179
1579.000000	0.312122
1580.000000	0.312107
1581.000000	0.312186
1582.000000	0.312202
1583.000000	0.312254
1584.000000	0.312178
1585.000000	0.312063
1586.000000	0.312032
1587.000000	0.311969
1588.000000	0.311924
1589.000000	0.311950
1590.000000	0.311946
1591.000000	0.311910
1592.000000	0.311943
1593.000000	0.312104
1594.000000	0.312122
1595.000000	0.312108
1596.000000	0.312161
1597.000000	0.312202
1598.000000	0.312255
1599.000000	0.312470
1600.000000	0.312495
1601.000000	0.312438
1602.000000	0.312482
1603.000000	0.312504
1604.000000	0.312536
1605.000000	0.312707
1606.000000	0.312766
1607.000000	0.312805
1608.000000	0.312847
1609.000000	0.312957
1610.000000	0.312905
1611.000000	0.312766
1612.000000	0.312653
1613.000000	0.312511
1614.000000	0.312512
1615.000000	0.312704
1616.000000	0.312763
1617.000000	0.312768
1618.000000	0.312800
1619.000000	0.312737
1620.000000	0.312781
1621.000000	0.312957
1622.000000	0.313123
1623.000000	0.313252
1624.000000	0.313373
1625.000000	0.313440
1626.000000	0.313423
1627.000000	0.313334
1628.000000	0.313377
1629.000000	0.313400
1630.000000	0.313453
1631.000000	0.313507
1632.000000	0.313565
1633.000000	0.313642
1634.000000	0.313740
1635.000000	0.313910
1636.000000	0.314073
1637.000000	0.314270
1638.000000	0.314367
1639.000000	0.314521
1640.000000	0.314555
1641.000000	0.314474
1642.000000	0.314570
1643.000000	0.314775
1644.000000	0.314943
1645.000000	0.315133
1646.000000	0.315300
1647.000000	0.315531
1648.000000	0.315592
1649.000000	0.315718
1650.000000	0.315792
1651.000000	0.315738
1652.000000	0.315793
1653.000000	0.315845
1654.000000	0.315939
1655.000000	0.316014
1656.000000	0.315978
1657.000000	0.315978
1658.000000	0.316028
1659.000000	0.316125
1660.000000	0.316231
1661.000000	0.316370
1662.000000	0.316455
1663.000000	0.316434
1664.000000	0.316505
1665.000000	0.316618
1666.000000	0.316727
1667.000000	0.316809
1668.000000	0.316794
1669.000000	0.316652
1670.000000	0.316632
1671.000000	0.316692
1672.000000	0.316815
1673.000000	0.317043
1674.000000	0.317095
1675.000000	0.317263
1676.000000	0.317410
1677.000000	0.317426
1678.000000	0.317470
1679.000000	0.317527
1680.000000	0.317580
1681.000000	0.317685
1682.000000	0.317724
1683.000000	0.317786
1684.000000	0.317895
1685.000000	0.318040
1686.000000	0.318260
1687.000000	0.318450
1688.000000	0.318426
1689.000000	0.318406
1690.000000	0.318442
1691.000000	0.318479
1692.000000	0.318469
1693.000000	0.318510
1694.000000	0.318453
1695.000000	0.318477
1696.000000	0.318469
1697.000000	0.318411
1698.000000	0.318394
1699.000000	0.318353
1700.000000	0.318254
1701.000000	0.318302
1702.000000	0.318188
1703.000000	0.318123
1704.000000	0.318244
1705.000000	0.318336
1706.000000	0.318506
1707.000000	0.318621
1708.000000	0.318709
1709.000000	0.318722
1710.000000	0.318739
1711.000000	0.318796
1712.000000	0.318857
1713.000000	0.318920
1714.000000	0.319083
1715.000000	0.319169
1716.000000	0.319253
1717.000000	0.319281
1718.000000	0.319184
1719.000000	0.319136
1720.000000	0.319116
1721.000000	0.319107
1722.000000	0.319150
1723.000000	0.319142
1724.000000	0.319113
1725.000000	0.319158
1726.000000	0.319084
1727.000000	0.319161
1728.000000	0.319348
1729.000000	0.319347
1730.000000	0.319484
1731.000000	0.319501
1732.000000	0.319359
1733.000000	0.319379
1734.000000	0.319304
1735.000000	0.319292
1736.000000	0.319335
1737.000000	0.319278
1738.000000	0.319183
1739.000000	0.319165
1740.000000	0.319117
1741.000000	0.319062
1742.000000	0.319020
1743.000000	0.319207
1744.000000	0.319476
1745.000000	0.319540
1746.000000	0.319732
1747.000000	0.319495
1748.000000	0.319351
1749.000000	0.319341
1750.000000	0.319289
1751.000000	0.319445
1752.000000	0.319517
1753.000000	0.319249
1754.000000	0.319234
1755.000000	0.319285
1756.000000	0.319246
1757.000000	0.319304
1758.000000	0.319409
1759.000000	0.319385
1760.000000	0.319443
1761.000000	0.319709
1762.000000	0.319779
1763.000000	0.319713
1764.000000	0.319719
1765.000000	0.319604
1766.000000	0.319632
1767.000000	0.319718
1768.000000	0.319707
1769.000000	0.319851
1770.000000	0.319905
1771.000000	0.319742
1772.000000	0.319779
1773.000000	0.319854
1774.000000	0.319903
1775.000000	0.320117
1776.000000	0.320221
1777.000000	0.320173
1778.000000	0.320223
1779.000000	0.320306
1780.000000	0.320392
1781.000000	0.320465
1782.000000	0.320507
1783.000000	0.320587
1784.000000	0.320605
1785.000000	0.320657
1786.000000	0.320550
1787.000000	0.320523
1788.000000	0.320647
1789.000000	0.320687
1790.000000	0.320923
1791.000000	0.320976
1792.000000	0.320819
1793.000000	0.320823
1794.000000	0.320996
1795.000000	0.321031
1796.000000	0.321078
1797.000000	0.321058
1798.000000	0.320752
1799.000000	0.320681
1800.000000	0.320857
1801.000000	0.320248
1802.000000	0.320510
1803.000000	0.321533
1804.000000	0.321882
1805.000000	0.322365
1806.000000	0.322583
1807.000000	0.322227
1808.000000	0.322344
1809.000000	0.323278
1810.000000	0.322708
1811.000000	0.322640
1812.000000	0.322648
1813.000000	0.322653
1814.000000	0.322787
1815.000000	0.322478
1816.000000	0.321784
1817.000000	0.321319
1818.000000	0.320454
1819.000000	0.319975
1820.000000	0.320201
1821.000000	0.321026
1822.000000	0.321355
1823.000000	0.321875
1824.000000	0.321973
1825.000000	0.321394
1826.000000	0.321390
1827.000000	0.321638
1828.000000	0.321320
1829.000000	0.321643
1830.000000	0.322130
1831.000000	0.321597
1832.000000	0.320032
1833.000000	0.319764
1834.000000	0.319201
1835.000000	0.319089
1836.000000	0.320604
1837.000000	0.320937
1838.000000	0.320508
1839.000000	0.319907
1840.000000	0.319733
1841.000000	0.318810
1842.000000	0.318293
1843.000000	0.317920
1844.000000	0.317737
1845.000000	0.317211
1846.000000	0.317345
1847.000000	0.318224
1848.000000	0.318131
1849.000000	0.318636
1850.000000	0.319343
1851.000000	0.319025
1852.000000	0.317778
1853.000000	0.317361
1854.000000	0.316337
1855.000000	0.315727
1856.000000	0.315468
1857.000000	0.315342
1858.000000	0.315195
1859.000000	0.314510
1860.000000	0.313192
1861.000000	0.312711
1862.000000	0.312518
1863.000000	0.312752
1864.000000	0.312406
1865.000000	0.312609
1866.000000	0.312109
1867.000000	0.310627
1868.000000	0.309494
1869.000000	0.308697
1870.000000	0.307609
1871.000000	0.305945
1872.000000	0.304534
1873.000000	0.303165
1874.000000	0.301681
1875.000000	0.300230
1876.000000	0.299072
1877.000000	0.296699
1878.000000	0.294681
1879.000000	0.292622
1880.000000	0.289725
1881.000000	0.287778
1882.000000	0.285552
1883.000000	0.282729
1884.000000	0.280458
1885.000000	0.278701
1886.000000	0.276306
1887.000000	0.273750
1888.000000	0.270959
1889.000000	0.267746
1890.000000	0.264588
1891.000000	0.261757
1892.000000	0.258855
1893.000000	0.256501
1894.000000	0.253937
1895.000000	0.250960
1896.000000	0.247658
1897.000000	0.244902
1898.000000	0.241644
1899.000000	0.238638
1900.000000	0.235762
1901.000000	0.232638
1902.000000	0.229776
1903.000000	0.227605
1904.000000	0.226724
1905.000000	0.225843
1906.000000	0.224329
1907.000000	0.223016
1908.000000	0.220987
1909.000000	0.218379
1910.000000	0.216498
1911.000000	0.215229
1912.000000	0.214455
1913.000000	0.213994
1914.000000	0.213287
1915.000000	0.212496
1916.000000	0.212327
1917.000000	0.211989
1918.000000	0.211896
1919.000000	0.211474
1920.000000	0.210919
1921.000000	0.209886
1922.000000	0.208727
1923.000000	0.208046
1924.000000	0.207993
1925.000000	0.208740
1926.000000	0.209151
1927.000000	0.209595
1928.000000	0.209861
1929.000000	0.209950
1930.000000	0.209597
1931.000000	0.210201
1932.000000	0.210451
1933.000000	0.210972
1934.000000	0.211929
1935.000000	0.211730
1936.000000	0.211931
1937.000000	0.212294
1938.000000	0.212010
1939.000000	0.211845
1940.000000	0.211841
1941.000000	0.211560
1942.000000	0.211057
1943.000000	0.210822
1944.000000	0.210765
1945.000000	0.210874
1946.000000	0.211044
1947.000000	0.211011
1948.000000	0.210920
1949.000000	0.211062
1950.000000	0.210825
1951.000000	0.210467
1952.000000	0.210143
1953.000000	0.209595
1954.000000	0.208474
1955.000000	0.207936
1956.000000	0.207829
1957.000000	0.207720
1958.000000	0.207911
1959.000000	0.208188
1960.000000	0.207909
1961.000000	0.207557
1962.000000	0.207498
1963.000000	0.207617
1964.000000	0.207653
1965.000000	0.208068
1966.000000	0.208686
1967.000000	0.208960
1968.000000	0.209368
1969.000000	0.209570
1970.000000	0.209270
1971.000000	0.209169
1972.000000	0.209174
1973.000000	0.209210
1974.000000	0.209809
1975.000000	0.209925
1976.000000	0.209836
1977.000000	0.209578
1978.000000	0.209593
1979.000000	0.209667
1980.000000	0.210190
1981.000000	0.211310
1982.000000	0.212264
1983.000000	0.212915
1984.000000	0.213628
1985.000000	0.214636
1986.000000	0.214851
1987.000000	0.214555
1988.000000	0.214819
1989.000000	0.214520
1990.000000	0.214400
1991.000000	0.215102
1992.000000	0.215814
1993.000000	0.216072
1994.000000	0.216710
1995.000000	0.217552
1996.000000	0.217700
1997.000000	0.218510
1998.000000	0.220482
1999.000000	0.221343
2000.000000	0.221683
2001.000000	0.222466
2002.000000	0.222938
2003.000000	0.222758
2004.000000	0.223694
2005.000000	0.224859
2006.000000	0.225359
2007.000000	0.226207
2008.000000	0.226871
2009.000000	0.226871
2010.000000	0.227509
2011.000000	0.228377
2012.000000	0.229347
2013.000000	0.230417
2014.000000	0.232117
2015.000000	0.233020
2016.000000	0.233682
2017.000000	0.234505
2018.000000	0.234679
2019.000000	0.235179
2020.000000	0.235621
2021.000000	0.235820
2022.000000	0.235480
2023.000000	0.235608
2024.000000	0.235577
2025.000000	0.236188
2026.000000	0.237251
2027.000000	0.238147
2028.000000	0.239117
2029.000000	0.240243
2030.000000	0.240767
2031.000000	0.241403
2032.000000	0.242332
2033.000000	0.243158
2034.000000	0.243822
2035.000000	0.244471
2036.000000	0.244998
2037.000000	0.245575
2038.000000	0.245950
2039.000000	0.246135
2040.000000	0.246627
2041.000000	0.247090
2042.000000	0.247418
2043.000000	0.248133
2044.000000	0.249076
2045.000000	0.249566
2046.000000	0.249963
2047.000000	0.250341
2048.000000	0.250472
2049.000000	0.250912
2050.000000	0.251150
2051.000000	0.251268
2052.000000	0.250932
2053.000000	0.251253
2054.000000	0.251726
2055.000000	0.253241
2056.000000	0.254630
2057.000000	0.255712
2058.000000	0.256645
2059.000000	0.257136
2060.000000	0.257557
2061.000000	0.257828
2062.000000	0.258350
2063.000000	0.258913
2064.000000	0.259149
2065.000000	0.259781
2066.000000	0.259989
2067.000000	0.260159
2068.000000	0.259755
2069.000000	0.259204
2070.000000	0.259054
2071.000000	0.259159
2072.000000	0.259218
2073.000000	0.259505
2074.000000	0.260383
2075.000000	0.260890
2076.000000	0.260896
2077.000000	0.261591
2078.000000	0.262862
2079.000000	0.263535
2080.000000	0.264384
2081.000000	0.264985
2082.000000	0.265153
2083.000000	0.265388
2084.000000	0.265793
2085.000000	0.266037
2086.000000	0.266610
2087.000000	0.266674
2088.000000	0.266295
2089.000000	0.266729
2090.000000	0.266944
2091.000000	0.266833
2092.000000	0.267440
2093.000000	0.268812
2094.000000	0.269544
2095.000000	0.270540
2096.000000	0.271045
2097.000000	0.270942
2098.000000	0.270688
2099.000000	0.270944
2100.000000	0.271930
2101.000000	0.272882
2102.000000	0.274248
2103.000000	0.275466
2104.000000	0.276017
2105.000000	0.276436
2106.000000	0.276741
2107.000000	0.276706
2108.000000	0.275977
2109.000000	0.275628
2110.000000	0.274769
2111.000000	0.274620
2112.000000	0.274760
2113.000000	0.274842
2114.000000	0.275519
2115.000000	0.276749
2116.000000	0.276846
2117.000000	0.277016
2118.000000	0.277875
2119.000000	0.277747
2120.000000	0.278183
2121.000000	0.279612
2122.000000	0.279780
2123.000000	0.278889
2124.000000	0.279053
2125.000000	0.279180
2126.000000	0.279266
2127.000000	0.280185
2128.000000	0.280631
2129.000000	0.280533
2130.000000	0.280326
2131.000000	0.280639
2132.000000	0.280361
2133.000000	0.280715
2134.000000	0.282044
2135.000000	0.282160
2136.000000	0.282330
2137.000000	0.282180
2138.000000	0.280872
2139.000000	0.280409
2140.000000	0.280207
2141.000000	0.280259
2142.000000	0.280640
2143.000000	0.280872
2144.000000	0.281720
2145.000000	0.282306
2146.000000	0.283033
2147.000000	0.283312
2148.000000	0.283668
2149.000000	0.284181
2150.000000	0.283846
2151.000000	0.283770
2152.000000	0.283604
2153.000000	0.282470
2154.000000	0.282122
2155.000000	0.282145
2156.000000	0.282118
2157.000000	0.282486
2158.000000	0.282569
2159.000000	0.282424
2160.000000	0.282594
2161.000000	0.282723
2162.000000	0.283062
2163.000000	0.284239
2164.000000	0.284503
2165.000000	0.284493
2166.000000	0.283541
2167.000000	0.283565
2168.000000	0.282904
2169.000000	0.282925
2170.000000	0.284357
2171.000000	0.284542
2172.000000	0.284445
2173.000000	0.284273
2174.000000	0.283142
2175.000000	0.283230
2176.000000	0.283955
2177.000000	0.283972
2178.000000	0.284732
2179.000000	0.284954
2180.000000	0.284083
2181.000000	0.284405
2182.000000	0.285278
2183.000000	0.284648
2184.000000	0.284722
2185.000000	0.284407
2186.000000	0.284413
2187.000000	0.284788
2188.000000	0.285427
2189.000000	0.286638
2190.000000	0.286805
2191.000000	0.286584
2192.000000	0.286021
2193.000000	0.284843
2194.000000	0.283118
2195.000000	0.280002
2196.000000	0.278932
2197.000000	0.278091
2198.000000	0.277945
2199.000000	0.280301
2200.000000	0.281179
2201.000000	0.281383
2202.000000	0.281953
2203.000000	0.282022
2204.000000	0.282777
2205.000000	0.283262
2206.000000	0.283137
2207.000000	0.284503
2208.000000	0.285514
2209.000000	0.285087
2210.000000	0.286097
2211.000000	0.285212
2212.000000	0.283283
2213.000000	0.282840
2214.000000	0.283357
2215.000000	0.283328
2216.000000	0.283873
2217.000000	0.284396
2218.000000	0.284654
2219.000000	0.284951
2220.000000	0.284611
2221.000000	0.285329
2222.000000	0.287981
2223.000000	0.288568
2224.000000	0.288718
2225.000000	0.288928
2226.000000	0.287622
2227.000000	0.284931
2228.000000	0.282852
2229.000000	0.281996
2230.000000	0.282593
2231.000000	0.281438
2232.000000	0.281107
2233.000000	0.282909
2234.000000	0.281733
2235.000000	0.281073
2236.000000	0.280517
2237.000000	0.279139
2238.000000	0.278654
2239.000000	0.278983
2240.000000	0.279237
2241.000000	0.280033
2242.000000	0.281077
2243.000000	0.283493
2244.000000	0.283267
2245.000000	0.281341
2246.000000	0.279913
2247.000000	0.274755
2248.000000	0.273928
2249.000000	0.276215
2250.000000	0.278849
2251.000000	0.281220
2252.000000	0.285038
2253.000000	0.284448
2254.000000	0.282644
2255.000000	0.282806
2256.000000	0.281449
2257.000000	0.281879
2258.000000	0.282924
2259.000000	0.281901
2260.000000	0.282992
2261.000000	0.282506
2262.000000	0.280610
2263.000000	0.280814
2264.000000	0.281230
2265.000000	0.280842
2266.000000	0.282005
2267.000000	0.281800
2268.000000	0.280233
2269.000000	0.279957
2270.000000	0.279766
2271.000000	0.279215
2272.000000	0.279213
2273.000000	0.278595
2274.000000	0.277750
2275.000000	0.276472
2276.000000	0.275002
2277.000000	0.272272
2278.000000	0.270015
2279.000000	0.266716
2280.000000	0.266272
2281.000000	0.267019
2282.000000	0.266855
2283.000000	0.268757
2284.000000	0.268897
2285.000000	0.267085
2286.000000	0.265542
2287.000000	0.264239
2288.000000	0.262749
2289.000000	0.261958
2290.000000	0.262360
2291.000000	0.262626
2292.000000	0.263409
2293.000000	0.262938
2294.000000	0.262749
2295.000000	0.262387
2296.000000	0.261654
2297.000000	0.260975
2298.000000	0.260230
2299.000000	0.259099
2300.000000	0.257854
2301.000000	0.255670
2302.000000	0.254441
2303.000000	0.253263
2304.000000	0.252415
2305.000000	0.254056
2306.000000	0.253229
2307.000000	0.250244
2308.000000	0.249342
2309.000000	0.247924
2310.000000	0.243926
2311.000000	0.243581
2312.000000	0.241211
2313.000000	0.239587
2314.000000	0.241849
2315.000000	0.243247
2316.000000	0.245555
2317.000000	0.246628
2318.000000	0.245769
2319.000000	0.247164
2320.000000	0.247336
2321.000000	0.249347
2322.000000	0.252783
2323.000000	0.252249
2324.000000	0.253885
2325.000000	0.253713
2326.000000	0.251170
2327.000000	0.249636
2328.000000	0.248337
2329.000000	0.250006
2330.000000	0.249767
2331.000000	0.250036
2332.000000	0.253143
2333.000000	0.251166
2334.000000	0.249540
2335.000000	0.250595
2336.000000	0.253391
2337.000000	0.252273
2338.000000	0.252443
2339.000000	0.250313
2340.000000	0.242655
2341.000000	0.240686
2342.000000	0.242114
2343.000000	0.241383
2344.000000	0.241425
2345.000000	0.240742
2346.000000	0.235393
2347.000000	0.234960
2348.000000	0.238341
2349.000000	0.241836
2350.000000	0.242162
2351.000000	0.246664
2352.000000	0.244622
2353.000000	0.239103
2354.000000	0.236740
2355.000000	0.234327
2356.000000	0.232221
2357.000000	0.233314
2358.000000	0.234056
2359.000000	0.232812
2360.000000	0.232222
2361.000000	0.230990
2362.000000	0.228346
2363.000000	0.228747
2364.000000	0.228657
2365.000000	0.228943
2366.000000	0.231658
2367.000000	0.230939
2368.000000	0.229921
2369.000000	0.227107
2370.000000	0.224354
2371.000000	0.222939
2372.000000	0.222836
2373.000000	0.225760
2374.000000	0.226781
2375.000000	0.227263
2376.000000	0.225264
2377.000000	0.224120
2378.000000	0.225684
2379.000000	0.221676
2380.000000	0.222233
2381.000000	0.224165
2382.000000	0.217395
2383.000000	0.216836
2384.000000	0.216880
2385.000000	0.212455
2386.000000	0.212252
2387.000000	0.211930
2388.000000	0.210386
2389.000000	0.209153
2390.000000	0.210125
2391.000000	0.210843
2392.000000	0.212339
2393.000000	0.211418
2394.000000	0.211202
2395.000000	0.213941
2396.000000	0.209478
2397.000000	0.211585
2398.000000	0.213620
2399.000000	0.206592
2400.000000	0.204816
2401.000000	0.201527
2402.000000	0.196817
2403.000000	0.199877
2404.000000	0.198403
2405.000000	0.197678
2406.000000	0.201799
2407.000000	0.201415
2408.000000	0.208238
2409.000000	0.215069
2410.000000	0.212785
2411.000000	0.203988
2412.000000	0.195027
2413.000000	0.195379
2414.000000	0.196159
2415.000000	0.195696
2416.000000	0.195621
2417.000000	0.189988
2418.000000	0.183496
2419.000000	0.180560
2420.000000	0.183463
2421.000000	0.183239
2422.000000	0.183452
2423.000000	0.187327
2424.000000	0.179908
2425.000000	0.172183
2426.000000	0.172122
2427.000000	0.178478
2428.000000	0.189028
2429.000000	0.198404
2430.000000	0.197107
2431.000000	0.189178
2432.000000	0.189668
2433.000000	0.195117
2434.000000	0.202942
2435.000000	0.209674
2436.000000	0.203865
2437.000000	0.188406
2438.000000	0.182181
2439.000000	0.182463
2440.000000	0.188740
2441.000000	0.197352
2442.000000	0.196636
2443.000000	0.195817
2444.000000	0.191730
2445.000000	0.192882
2446.000000	0.190078
2447.000000	0.178618
2448.000000	0.175227
2449.000000	0.179257
2450.000000	0.204734
2451.000000	0.218919
2452.000000	0.216427
2453.000000	0.216256
2454.000000	0.194639
2455.000000	0.187782
2456.000000	0.188549
2457.000000	0.165607
2458.000000	0.158686
2459.000000	0.155198
2460.000000	0.147360
2461.000000	0.155179
2462.000000	0.164758
2463.000000	0.170435
2464.000000	0.179360
2465.000000	0.202847
2466.000000	0.214089
2467.000000	0.210936
2468.000000	0.200375
2469.000000	0.173439
2470.000000	0.156201
2471.000000	0.137009
2472.000000	0.135087
2473.000000	0.142048
2474.000000	0.125414
2475.000000	0.115846
2476.000000	0.091110
2477.000000	0.076941
2478.000000	0.081289
2479.000000	0.088441
2480.000000	0.124065
2481.000000	0.138352
2482.000000	0.143700
2483.000000	0.147710
2484.000000	0.130027
2485.000000	0.136831
2486.000000	0.133036
2487.000000	0.120091
2488.000000	0.129472
2489.000000	0.127277
2490.000000	0.132808
2491.000000	0.174607
2492.000000	0.191123
2493.000000	0.211646
2494.000000	0.211710
2495.000000	0.136640
2496.000000	0.123889
2497.000000	0.170555
2498.000000	0.162817
2499.000000	0.151856
2500.000000	0.159786
