# Wavelength	SM1200H-40_HEX-30_FV7-30_00000.asd.rts.txt
350.000000	0.285333
351.000000	0.284754
352.000000	0.275183
353.000000	0.272331
354.000000	0.281797
355.000000	0.277622
356.000000	0.267859
357.000000	0.262360
358.000000	0.269587
359.000000	0.277321
360.000000	0.279908
361.000000	0.276021
362.000000	0.282021
363.000000	0.284351
364.000000	0.277867
365.000000	0.287288
366.000000	0.293446
367.000000	0.290420
368.000000	0.282886
369.000000	0.280097
370.000000	0.281476
371.000000	0.282889
372.000000	0.281230
373.000000	0.277677
374.000000	0.275820
375.000000	0.283336
376.000000	0.286763
377.000000	0.284520
378.000000	0.286538
379.000000	0.284921
380.000000	0.282578
381.000000	0.285683
382.000000	0.289577
383.000000	0.291273
384.000000	0.290675
385.000000	0.293177
386.000000	0.293467
387.000000	0.291405
388.000000	0.291941
389.000000	0.291748
390.000000	0.291598
391.000000	0.292815
392.000000	0.291303
393.000000	0.289861
394.000000	0.290731
395.000000	0.291592
396.000000	0.292005
397.000000	0.291963
398.000000	0.291928
399.000000	0.292825
400.000000	0.294551
401.000000	0.296263
402.000000	0.296565
403.000000	0.295806
404.000000	0.295036
405.000000	0.295739
406.000000	0.296761
407.000000	0.297518
408.000000	0.298354
409.000000	0.298598
410.000000	0.298522
411.000000	0.298896
412.000000	0.299495
413.000000	0.299855
414.000000	0.299671
415.000000	0.299610
416.000000	0.299991
417.000000	0.300784
418.000000	0.301408
419.000000	0.301320
420.000000	0.301046
421.000000	0.302117
422.000000	0.302659
423.000000	0.302903
424.000000	0.303710
425.000000	0.304368
426.000000	0.304439
427.000000	0.303917
428.000000	0.303996
429.000000	0.304454
430.000000	0.305015
431.000000	0.305263
432.000000	0.305566
433.000000	0.305965
434.000000	0.306466
435.000000	0.306362
436.000000	0.306079
437.000000	0.306160
438.000000	0.306770
439.000000	0.307315
440.000000	0.307546
441.000000	0.307394
442.000000	0.307525
443.000000	0.307902
444.000000	0.308192
445.000000	0.308800
446.000000	0.309270
447.000000	0.308893
448.000000	0.308741
449.000000	0.309248
450.000000	0.310256
451.000000	0.310120
452.000000	0.310290
453.000000	0.310860
454.000000	0.310630
455.000000	0.310891
456.000000	0.311540
457.000000	0.311735
458.000000	0.312138
459.000000	0.312532
460.000000	0.312708
461.000000	0.312722
462.000000	0.312895
463.000000	0.313215
464.000000	0.313818
465.000000	0.314102
466.000000	0.314133
467.000000	0.314581
468.000000	0.314674
469.000000	0.314562
470.000000	0.314801
471.000000	0.315283
472.000000	0.315637
473.000000	0.315694
474.000000	0.315672
475.000000	0.315757
476.000000	0.315980
477.000000	0.315690
478.000000	0.315820
479.000000	0.316440
480.000000	0.316834
481.000000	0.316998
482.000000	0.317246
483.000000	0.317585
484.000000	0.318052
485.000000	0.318232
486.000000	0.318253
487.000000	0.318516
488.000000	0.318689
489.000000	0.318857
490.000000	0.319348
491.000000	0.319600
492.000000	0.319800
493.000000	0.320119
494.000000	0.320468
495.000000	0.320782
496.000000	0.321007
497.000000	0.321363
498.000000	0.321609
499.000000	0.321790
500.000000	0.322042
501.000000	0.322464
502.000000	0.322895
503.000000	0.322966
504.000000	0.323266
505.000000	0.323617
506.000000	0.323791
507.000000	0.323988
508.000000	0.324267
509.000000	0.324591
510.000000	0.324953
511.000000	0.325328
512.000000	0.325680
513.000000	0.325877
514.000000	0.326218
515.000000	0.326647
516.000000	0.326927
517.000000	0.327148
518.000000	0.327402
519.000000	0.327667
520.000000	0.328083
521.000000	0.328391
522.000000	0.328560
523.000000	0.328877
524.000000	0.329206
525.000000	0.329500
526.000000	0.329804
527.000000	0.330087
528.000000	0.330350
529.000000	0.330654
530.000000	0.330883
531.000000	0.331147
532.000000	0.331415
533.000000	0.331712
534.000000	0.332041
535.000000	0.332363
536.000000	0.332640
537.000000	0.332888
538.000000	0.333152
539.000000	0.333470
540.000000	0.333866
541.000000	0.334130
542.000000	0.334198
543.000000	0.334502
544.000000	0.334857
545.000000	0.335099
546.000000	0.335432
547.000000	0.335783
548.000000	0.336155
549.000000	0.336477
550.000000	0.336756
551.000000	0.337033
552.000000	0.337291
553.000000	0.337555
554.000000	0.337898
555.000000	0.338330
556.000000	0.338631
557.000000	0.338816
558.000000	0.339103
559.000000	0.339562
560.000000	0.339860
561.000000	0.340108
562.000000	0.340445
563.000000	0.340739
564.000000	0.341044
565.000000	0.341316
566.000000	0.341715
567.000000	0.342098
568.000000	0.342378
569.000000	0.342711
570.000000	0.343015
571.000000	0.343282
572.000000	0.343597
573.000000	0.343895
574.000000	0.344154
575.000000	0.344446
576.000000	0.344835
577.000000	0.345206
578.000000	0.345531
579.000000	0.345788
580.000000	0.346061
581.000000	0.346374
582.000000	0.346666
583.000000	0.346917
584.000000	0.347167
585.000000	0.347498
586.000000	0.347740
587.000000	0.347974
588.000000	0.348317
589.000000	0.348687
590.000000	0.348953
591.000000	0.349089
592.000000	0.349332
593.000000	0.349631
594.000000	0.349925
595.000000	0.350120
596.000000	0.350442
597.000000	0.350814
598.000000	0.350942
599.000000	0.351058
600.000000	0.351229
601.000000	0.351393
602.000000	0.351611
603.000000	0.351810
604.000000	0.351975
605.000000	0.352148
606.000000	0.352361
607.000000	0.352555
608.000000	0.352601
609.000000	0.352756
610.000000	0.352972
611.000000	0.353134
612.000000	0.353283
613.000000	0.353468
614.000000	0.353728
615.000000	0.353887
616.000000	0.354110
617.000000	0.354357
618.000000	0.354489
619.000000	0.354618
620.000000	0.354744
621.000000	0.354902
622.000000	0.355032
623.000000	0.355176
624.000000	0.355351
625.000000	0.355440
626.000000	0.355584
627.000000	0.355817
628.000000	0.355997
629.000000	0.356190
630.000000	0.356261
631.000000	0.356318
632.000000	0.356471
633.000000	0.356616
634.000000	0.356636
635.000000	0.356804
636.000000	0.356947
637.000000	0.356998
638.000000	0.357268
639.000000	0.357490
640.000000	0.357672
641.000000	0.357841
642.000000	0.357989
643.000000	0.358134
644.000000	0.358300
645.000000	0.358454
646.000000	0.358568
647.000000	0.358622
648.000000	0.358759
649.000000	0.358882
650.000000	0.358966
651.000000	0.359154
652.000000	0.359279
653.000000	0.359400
654.000000	0.359563
655.000000	0.359692
656.000000	0.359860
657.000000	0.360049
658.000000	0.360142
659.000000	0.360296
660.000000	0.360533
661.000000	0.360681
662.000000	0.360795
663.000000	0.360961
664.000000	0.361165
665.000000	0.361363
666.000000	0.361535
667.000000	0.361644
668.000000	0.361768
669.000000	0.361896
670.000000	0.362023
671.000000	0.362137
672.000000	0.362308
673.000000	0.362507
674.000000	0.362652
675.000000	0.362756
676.000000	0.362905
677.000000	0.363193
678.000000	0.363432
679.000000	0.363623
680.000000	0.363780
681.000000	0.363814
682.000000	0.363946
683.000000	0.364128
684.000000	0.364317
685.000000	0.364472
686.000000	0.364621
687.000000	0.364757
688.000000	0.364898
689.000000	0.365074
690.000000	0.365327
691.000000	0.365580
692.000000	0.365712
693.000000	0.365804
694.000000	0.365969
695.000000	0.366144
696.000000	0.366304
697.000000	0.366441
698.000000	0.366650
699.000000	0.366843
700.000000	0.366962
701.000000	0.367108
702.000000	0.367263
703.000000	0.367398
704.000000	0.367538
705.000000	0.367694
706.000000	0.367825
707.000000	0.367977
708.000000	0.368046
709.000000	0.368106
710.000000	0.368245
711.000000	0.368358
712.000000	0.368537
713.000000	0.368809
714.000000	0.369040
715.000000	0.369207
716.000000	0.369316
717.000000	0.369369
718.000000	0.369452
719.000000	0.369547
720.000000	0.369652
721.000000	0.369825
722.000000	0.369937
723.000000	0.370041
724.000000	0.370225
725.000000	0.370362
726.000000	0.370514
727.000000	0.370614
728.000000	0.370689
729.000000	0.370790
730.000000	0.370887
731.000000	0.370974
732.000000	0.371084
733.000000	0.371243
734.000000	0.371318
735.000000	0.371364
736.000000	0.371538
737.000000	0.371713
738.000000	0.371796
739.000000	0.371892
740.000000	0.371899
741.000000	0.371950
742.000000	0.372016
743.000000	0.372066
744.000000	0.372160
745.000000	0.372201
746.000000	0.372291
747.000000	0.372452
748.000000	0.372546
749.000000	0.372626
750.000000	0.372692
751.000000	0.372711
752.000000	0.372820
753.000000	0.373018
754.000000	0.373145
755.000000	0.373275
756.000000	0.373393
757.000000	0.373416
758.000000	0.373420
759.000000	0.373443
760.000000	0.373432
761.000000	0.373484
762.000000	0.373548
763.000000	0.373587
764.000000	0.373667
765.000000	0.373769
766.000000	0.373906
767.000000	0.374070
768.000000	0.374212
769.000000	0.374273
770.000000	0.374276
771.000000	0.374354
772.000000	0.374409
773.000000	0.374425
774.000000	0.374562
775.000000	0.374630
776.000000	0.374655
777.000000	0.374668
778.000000	0.374716
779.000000	0.374716
780.000000	0.374685
781.000000	0.374699
782.000000	0.374756
783.000000	0.374929
784.000000	0.375062
785.000000	0.375115
786.000000	0.375125
787.000000	0.375115
788.000000	0.375090
789.000000	0.375114
790.000000	0.375155
791.000000	0.375193
792.000000	0.375230
793.000000	0.375292
794.000000	0.375386
795.000000	0.375414
796.000000	0.375438
797.000000	0.375467
798.000000	0.375474
799.000000	0.375452
800.000000	0.375443
801.000000	0.375484
802.000000	0.375480
803.000000	0.375491
804.000000	0.375579
805.000000	0.375636
806.000000	0.375605
807.000000	0.375564
808.000000	0.375485
809.000000	0.375606
810.000000	0.375699
811.000000	0.375596
812.000000	0.375603
813.000000	0.375626
814.000000	0.375639
815.000000	0.375692
816.000000	0.375707
817.000000	0.375695
818.000000	0.375602
819.000000	0.375601
820.000000	0.375624
821.000000	0.375571
822.000000	0.375487
823.000000	0.375476
824.000000	0.375451
825.000000	0.375417
826.000000	0.375388
827.000000	0.375355
828.000000	0.375368
829.000000	0.375439
830.000000	0.375436
831.000000	0.375405
832.000000	0.375289
833.000000	0.375236
834.000000	0.375183
835.000000	0.375111
836.000000	0.375051
837.000000	0.375069
838.000000	0.375102
839.000000	0.374940
840.000000	0.374872
841.000000	0.374870
842.000000	0.374799
843.000000	0.374653
844.000000	0.374591
845.000000	0.374595
846.000000	0.374553
847.000000	0.374548
848.000000	0.374511
849.000000	0.374408
850.000000	0.374344
851.000000	0.374255
852.000000	0.374193
853.000000	0.374241
854.000000	0.374194
855.000000	0.374163
856.000000	0.374122
857.000000	0.374093
858.000000	0.374080
859.000000	0.374005
860.000000	0.373947
861.000000	0.373946
862.000000	0.373931
863.000000	0.373724
864.000000	0.373531
865.000000	0.373411
866.000000	0.373382
867.000000	0.373315
868.000000	0.373328
869.000000	0.373264
870.000000	0.373038
871.000000	0.372850
872.000000	0.372719
873.000000	0.372582
874.000000	0.372533
875.000000	0.372351
876.000000	0.372123
877.000000	0.371960
878.000000	0.371683
879.000000	0.371492
880.000000	0.371348
881.000000	0.371329
882.000000	0.371210
883.000000	0.371048
884.000000	0.370916
885.000000	0.370692
886.000000	0.370442
887.000000	0.370271
888.000000	0.370233
889.000000	0.370160
890.000000	0.369915
891.000000	0.369682
892.000000	0.369516
893.000000	0.369342
894.000000	0.369240
895.000000	0.369069
896.000000	0.368877
897.000000	0.368744
898.000000	0.368716
899.000000	0.368568
900.000000	0.368378
901.000000	0.368193
902.000000	0.368159
903.000000	0.367958
904.000000	0.367717
905.000000	0.367534
906.000000	0.367504
907.000000	0.367414
908.000000	0.367223
909.000000	0.366871
910.000000	0.366542
911.000000	0.366365
912.000000	0.366346
913.000000	0.365997
914.000000	0.365694
915.000000	0.365556
916.000000	0.365300
917.000000	0.365138
918.000000	0.364975
919.000000	0.364722
920.000000	0.364579
921.000000	0.364284
922.000000	0.363967
923.000000	0.363866
924.000000	0.363516
925.000000	0.363215
926.000000	0.363140
927.000000	0.362981
928.000000	0.362848
929.000000	0.362648
930.000000	0.362302
931.000000	0.362077
932.000000	0.361809
933.000000	0.361513
934.000000	0.361297
935.000000	0.361035
936.000000	0.360706
937.000000	0.360278
938.000000	0.360171
939.000000	0.359973
940.000000	0.359621
941.000000	0.359435
942.000000	0.359022
943.000000	0.358731
944.000000	0.358553
945.000000	0.358174
946.000000	0.357890
947.000000	0.357699
948.000000	0.357447
949.000000	0.357268
950.000000	0.357116
951.000000	0.356951
952.000000	0.356885
953.000000	0.356690
954.000000	0.356232
955.000000	0.355579
956.000000	0.355607
957.000000	0.355619
958.000000	0.355338
959.000000	0.354913
960.000000	0.354818
961.000000	0.354761
962.000000	0.354517
963.000000	0.354102
964.000000	0.353787
965.000000	0.353565
966.000000	0.353280
967.000000	0.353210
968.000000	0.352997
969.000000	0.352678
970.000000	0.352583
971.000000	0.352311
972.000000	0.352072
973.000000	0.351855
974.000000	0.351561
975.000000	0.351415
976.000000	0.351332
977.000000	0.351200
978.000000	0.351096
979.000000	0.350892
980.000000	0.350507
981.000000	0.350415
982.000000	0.350260
983.000000	0.350002
984.000000	0.349743
985.000000	0.349519
986.000000	0.349281
987.000000	0.349027
988.000000	0.348696
989.000000	0.348617
990.000000	0.348259
991.000000	0.347979
992.000000	0.348246
993.000000	0.348219
994.000000	0.347840
995.000000	0.347555
996.000000	0.347623
997.000000	0.347820
998.000000	0.347702
999.000000	0.347339
1000.000000	0.347266
1001.000000	0.347741
1002.000000	0.347255
1003.000000	0.347311
1004.000000	0.347055
1005.000000	0.346487
1006.000000	0.346222
1007.000000	0.346044
1008.000000	0.346177
1009.000000	0.346204
1010.000000	0.346093
1011.000000	0.346618
1012.000000	0.346962
1013.000000	0.346520
1014.000000	0.346424
1015.000000	0.345876
1016.000000	0.344644
1017.000000	0.344181
1018.000000	0.344284
1019.000000	0.344232
1020.000000	0.344475
1021.000000	0.344487
1022.000000	0.344832
1023.000000	0.345171
1024.000000	0.345545
1025.000000	0.345446
1026.000000	0.345583
1027.000000	0.345370
1028.000000	0.345148
1029.000000	0.345318
1030.000000	0.345495
1031.000000	0.345409
1032.000000	0.345043
1033.000000	0.345241
1034.000000	0.345310
1035.000000	0.345181
1036.000000	0.345377
1037.000000	0.345996
1038.000000	0.345974
1039.000000	0.345875
1040.000000	0.345977
1041.000000	0.345532
1042.000000	0.345635
1043.000000	0.346121
1044.000000	0.346250
1045.000000	0.346281
1046.000000	0.346307
1047.000000	0.346268
1048.000000	0.345772
1049.000000	0.345934
1050.000000	0.346622
1051.000000	0.346778
1052.000000	0.346988
1053.000000	0.347063
1054.000000	0.346973
1055.000000	0.346906
1056.000000	0.346686
1057.000000	0.346927
1058.000000	0.347359
1059.000000	0.347514
1060.000000	0.348480
1061.000000	0.349584
1062.000000	0.349528
1063.000000	0.349476
1064.000000	0.349637
1065.000000	0.349350
1066.000000	0.349413
1067.000000	0.349974
1068.000000	0.350160
1069.000000	0.349994
1070.000000	0.350135
1071.000000	0.350507
1072.000000	0.350769
1073.000000	0.351073
1074.000000	0.351501
1075.000000	0.351904
1076.000000	0.352156
1077.000000	0.352275
1078.000000	0.352216
1079.000000	0.352346
1080.000000	0.352541
1081.000000	0.352447
1082.000000	0.352493
1083.000000	0.352379
1084.000000	0.351640
1085.000000	0.351632
1086.000000	0.352004
1087.000000	0.352377
1088.000000	0.353089
1089.000000	0.353513
1090.000000	0.353840
1091.000000	0.354159
1092.000000	0.354071
1093.000000	0.354112
1094.000000	0.354277
1095.000000	0.354377
1096.000000	0.354504
1097.000000	0.354767
1098.000000	0.355058
1099.000000	0.355022
1100.000000	0.355480
1101.000000	0.356654
1102.000000	0.356981
1103.000000	0.356997
1104.000000	0.357171
1105.000000	0.356655
1106.000000	0.356677
1107.000000	0.357251
1108.000000	0.357542
1109.000000	0.357913
1110.000000	0.358365
1111.000000	0.358380
1112.000000	0.357984
1113.000000	0.358110
1114.000000	0.358241
1115.000000	0.358380
1116.000000	0.358910
1117.000000	0.359078
1118.000000	0.358867
1119.000000	0.358860
1120.000000	0.358876
1121.000000	0.358953
1122.000000	0.359219
1123.000000	0.359593
1124.000000	0.359829
1125.000000	0.360053
1126.000000	0.360158
1127.000000	0.360263
1128.000000	0.360348
1129.000000	0.360435
1130.000000	0.360548
1131.000000	0.360621
1132.000000	0.360831
1133.000000	0.361220
1134.000000	0.361484
1135.000000	0.361908
1136.000000	0.361927
1137.000000	0.361566
1138.000000	0.361389
1139.000000	0.361119
1140.000000	0.361086
1141.000000	0.361183
1142.000000	0.361302
1143.000000	0.361544
1144.000000	0.361708
1145.000000	0.361591
1146.000000	0.361507
1147.000000	0.361502
1148.000000	0.361309
1149.000000	0.361285
1150.000000	0.361497
1151.000000	0.361529
1152.000000	0.361379
1153.000000	0.361363
1154.000000	0.361292
1155.000000	0.361286
1156.000000	0.361401
1157.000000	0.361459
1158.000000	0.361426
1159.000000	0.361482
1160.000000	0.361584
1161.000000	0.361593
1162.000000	0.361569
1163.000000	0.361871
1164.000000	0.361911
1165.000000	0.361777
1166.000000	0.361930
1167.000000	0.362235
1168.000000	0.362196
1169.000000	0.362170
1170.000000	0.362158
1171.000000	0.361908
1172.000000	0.361867
1173.000000	0.361969
1174.000000	0.362042
1175.000000	0.362156
1176.000000	0.362126
1177.000000	0.362108
1178.000000	0.362121
1179.000000	0.362040
1180.000000	0.361918
1181.000000	0.361839
1182.000000	0.361984
1183.000000	0.362046
1184.000000	0.361985
1185.000000	0.361993
1186.000000	0.362034
1187.000000	0.362076
1188.000000	0.362146
1189.000000	0.362105
1190.000000	0.362116
1191.000000	0.362056
1192.000000	0.361918
1193.000000	0.362041
1194.000000	0.362148
1195.000000	0.362284
1196.000000	0.362528
1197.000000	0.362622
1198.000000	0.362707
1199.000000	0.362715
1200.000000	0.362526
1201.000000	0.362497
1202.000000	0.362466
1203.000000	0.362397
1204.000000	0.362373
1205.000000	0.362298
1206.000000	0.362226
1207.000000	0.362213
1208.000000	0.362163
1209.000000	0.362206
1210.000000	0.362200
1211.000000	0.362182
1212.000000	0.362118
1213.000000	0.362034
1214.000000	0.362020
1215.000000	0.361973
1216.000000	0.361922
1217.000000	0.361829
1218.000000	0.361852
1219.000000	0.361983
1220.000000	0.362093
1221.000000	0.362162
1222.000000	0.362273
1223.000000	0.362231
1224.000000	0.362042
1225.000000	0.361948
1226.000000	0.361915
1227.000000	0.361786
1228.000000	0.361900
1229.000000	0.361882
1230.000000	0.361829
1231.000000	0.361745
1232.000000	0.361769
1233.000000	0.361813
1234.000000	0.361884
1235.000000	0.361878
1236.000000	0.361649
1237.000000	0.361641
1238.000000	0.361729
1239.000000	0.361665
1240.000000	0.361620
1241.000000	0.361543
1242.000000	0.361350
1243.000000	0.361249
1244.000000	0.361349
1245.000000	0.361580
1246.000000	0.361681
1247.000000	0.361755
1248.000000	0.361794
1249.000000	0.361826
1250.000000	0.361826
1251.000000	0.361818
1252.000000	0.361782
1253.000000	0.361654
1254.000000	0.361671
1255.000000	0.361811
1256.000000	0.361824
1257.000000	0.361943
1258.000000	0.361988
1259.000000	0.361662
1260.000000	0.361699
1261.000000	0.361923
1262.000000	0.361990
1263.000000	0.362074
1264.000000	0.362350
1265.000000	0.362446
1266.000000	0.362396
1267.000000	0.362494
1268.000000	0.362509
1269.000000	0.362294
1270.000000	0.362073
1271.000000	0.361861
1272.000000	0.361676
1273.000000	0.361675
1274.000000	0.361779
1275.000000	0.361828
1276.000000	0.361980
1277.000000	0.362072
1278.000000	0.362023
1279.000000	0.361987
1280.000000	0.361821
1281.000000	0.361744
1282.000000	0.361827
1283.000000	0.361817
1284.000000	0.361645
1285.000000	0.361601
1286.000000	0.361512
1287.000000	0.361482
1288.000000	0.361525
1289.000000	0.361532
1290.000000	0.361361
1291.000000	0.361162
1292.000000	0.361229
1293.000000	0.361286
1294.000000	0.361219
1295.000000	0.361130
1296.000000	0.360965
1297.000000	0.360779
1298.000000	0.360667
1299.000000	0.360825
1300.000000	0.360958
1301.000000	0.360995
1302.000000	0.360993
1303.000000	0.361115
1304.000000	0.361038
1305.000000	0.360967
1306.000000	0.360899
1307.000000	0.360826
1308.000000	0.360817
1309.000000	0.360835
1310.000000	0.360724
1311.000000	0.360554
1312.000000	0.360459
1313.000000	0.360428
1314.000000	0.360231
1315.000000	0.359936
1316.000000	0.359789
1317.000000	0.359523
1318.000000	0.359460
1319.000000	0.359514
1320.000000	0.359410
1321.000000	0.359284
1322.000000	0.359013
1323.000000	0.358835
1324.000000	0.358874
1325.000000	0.358660
1326.000000	0.358331
1327.000000	0.358283
1328.000000	0.358233
1329.000000	0.358014
1330.000000	0.357868
1331.000000	0.357773
1332.000000	0.357504
1333.000000	0.357390
1334.000000	0.357621
1335.000000	0.357558
1336.000000	0.357327
1337.000000	0.357211
1338.000000	0.356989
1339.000000	0.356813
1340.000000	0.356722
1341.000000	0.356442
1342.000000	0.356222
1343.000000	0.356211
1344.000000	0.356256
1345.000000	0.356474
1346.000000	0.356623
1347.000000	0.356343
1348.000000	0.356106
1349.000000	0.355780
1350.000000	0.355569
1351.000000	0.355505
1352.000000	0.355305
1353.000000	0.355101
1354.000000	0.354869
1355.000000	0.354642
1356.000000	0.354688
1357.000000	0.354680
1358.000000	0.354613
1359.000000	0.354456
1360.000000	0.354199
1361.000000	0.353724
1362.000000	0.353498
1363.000000	0.353294
1364.000000	0.353148
1365.000000	0.353182
1366.000000	0.352999
1367.000000	0.352722
1368.000000	0.352414
1369.000000	0.352149
1370.000000	0.351713
1371.000000	0.351210
1372.000000	0.350775
1373.000000	0.350192
1374.000000	0.349655
1375.000000	0.349145
1376.000000	0.348558
1377.000000	0.347938
1378.000000	0.347019
1379.000000	0.345878
1380.000000	0.344675
1381.000000	0.343193
1382.000000	0.341574
1383.000000	0.339857
1384.000000	0.337818
1385.000000	0.335784
1386.000000	0.334120
1387.000000	0.332734
1388.000000	0.331530
1389.000000	0.330678
1390.000000	0.330071
1391.000000	0.329484
1392.000000	0.329183
1393.000000	0.329076
1394.000000	0.329282
1395.000000	0.329408
1396.000000	0.329890
1397.000000	0.329939
1398.000000	0.329754
1399.000000	0.329454
1400.000000	0.328887
1401.000000	0.328330
1402.000000	0.327741
1403.000000	0.327125
1404.000000	0.326495
1405.000000	0.325809
1406.000000	0.325121
1407.000000	0.324474
1408.000000	0.323679
1409.000000	0.322950
1410.000000	0.322374
1411.000000	0.321692
1412.000000	0.321151
1413.000000	0.320716
1414.000000	0.320110
1415.000000	0.319622
1416.000000	0.319158
1417.000000	0.318758
1418.000000	0.318410
1419.000000	0.318014
1420.000000	0.317615
1421.000000	0.317326
1422.000000	0.317026
1423.000000	0.316800
1424.000000	0.316568
1425.000000	0.316289
1426.000000	0.315958
1427.000000	0.315737
1428.000000	0.315472
1429.000000	0.315196
1430.000000	0.315066
1431.000000	0.314920
1432.000000	0.314728
1433.000000	0.314631
1434.000000	0.314405
1435.000000	0.314134
1436.000000	0.313889
1437.000000	0.313584
1438.000000	0.313359
1439.000000	0.313254
1440.000000	0.313054
1441.000000	0.312907
1442.000000	0.312713
1443.000000	0.312398
1444.000000	0.312003
1445.000000	0.311755
1446.000000	0.311497
1447.000000	0.311235
1448.000000	0.311221
1449.000000	0.311135
1450.000000	0.310925
1451.000000	0.310794
1452.000000	0.310503
1453.000000	0.310270
1454.000000	0.310069
1455.000000	0.309784
1456.000000	0.309697
1457.000000	0.309532
1458.000000	0.309327
1459.000000	0.309345
1460.000000	0.309308
1461.000000	0.309261
1462.000000	0.309344
1463.000000	0.309277
1464.000000	0.309151
1465.000000	0.309159
1466.000000	0.309140
1467.000000	0.309156
1468.000000	0.309320
1469.000000	0.309533
1470.000000	0.309654
1471.000000	0.309857
1472.000000	0.310051
1473.000000	0.310276
1474.000000	0.310472
1475.000000	0.310629
1476.000000	0.310815
1477.000000	0.310963
1478.000000	0.311154
1479.000000	0.311529
1480.000000	0.311931
1481.000000	0.312235
1482.000000	0.312612
1483.000000	0.312955
1484.000000	0.313139
1485.000000	0.313438
1486.000000	0.313810
1487.000000	0.314191
1488.000000	0.314648
1489.000000	0.315057
1490.000000	0.315342
1491.000000	0.315723
1492.000000	0.316065
1493.000000	0.316416
1494.000000	0.316799
1495.000000	0.317065
1496.000000	0.317211
1497.000000	0.317474
1498.000000	0.317778
1499.000000	0.318043
1500.000000	0.318397
1501.000000	0.318727
1502.000000	0.318936
1503.000000	0.319245
1504.000000	0.319550
1505.000000	0.319759
1506.000000	0.320082
1507.000000	0.320341
1508.000000	0.320542
1509.000000	0.320759
1510.000000	0.320877
1511.000000	0.321091
1512.000000	0.321349
1513.000000	0.321622
1514.000000	0.321978
1515.000000	0.322128
1516.000000	0.322254
1517.000000	0.322336
1518.000000	0.322321
1519.000000	0.322373
1520.000000	0.322429
1521.000000	0.322434
1522.000000	0.322669
1523.000000	0.322890
1524.000000	0.322920
1525.000000	0.323074
1526.000000	0.323061
1527.000000	0.323079
1528.000000	0.323341
1529.000000	0.323456
1530.000000	0.323558
1531.000000	0.323708
1532.000000	0.323727
1533.000000	0.323792
1534.000000	0.323827
1535.000000	0.323855
1536.000000	0.323938
1537.000000	0.324131
1538.000000	0.324343
1539.000000	0.324410
1540.000000	0.324538
1541.000000	0.324684
1542.000000	0.324792
1543.000000	0.324980
1544.000000	0.325111
1545.000000	0.325201
1546.000000	0.325284
1547.000000	0.325390
1548.000000	0.325475
1549.000000	0.325597
1550.000000	0.325762
1551.000000	0.325721
1552.000000	0.325797
1553.000000	0.325933
1554.000000	0.325894
1555.000000	0.326074
1556.000000	0.326123
1557.000000	0.326052
1558.000000	0.326105
1559.000000	0.326169
1560.000000	0.326105
1561.000000	0.326051
1562.000000	0.326018
1563.000000	0.325963
1564.000000	0.325993
1565.000000	0.326121
1566.000000	0.326097
1567.000000	0.326125
1568.000000	0.326097
1569.000000	0.326057
1570.000000	0.326100
1571.000000	0.326121
1572.000000	0.326131
1573.000000	0.326259
1574.000000	0.326223
1575.000000	0.326101
1576.000000	0.326110
1577.000000	0.326080
1578.000000	0.326020
1579.000000	0.326042
1580.000000	0.326074
1581.000000	0.326116
1582.000000	0.326189
1583.000000	0.326423
1584.000000	0.326458
1585.000000	0.326412
1586.000000	0.326490
1587.000000	0.326587
1588.000000	0.326613
1589.000000	0.326698
1590.000000	0.326695
1591.000000	0.326590
1592.000000	0.326546
1593.000000	0.326564
1594.000000	0.326532
1595.000000	0.326526
1596.000000	0.326498
1597.000000	0.326415
1598.000000	0.326389
1599.000000	0.326438
1600.000000	0.326444
1601.000000	0.326573
1602.000000	0.326614
1603.000000	0.326603
1604.000000	0.326631
1605.000000	0.326680
1606.000000	0.326690
1607.000000	0.326812
1608.000000	0.326827
1609.000000	0.326741
1610.000000	0.326760
1611.000000	0.326853
1612.000000	0.326865
1613.000000	0.326983
1614.000000	0.327069
1615.000000	0.327165
1616.000000	0.327255
1617.000000	0.327335
1618.000000	0.327397
1619.000000	0.327297
1620.000000	0.327401
1621.000000	0.327746
1622.000000	0.327942
1623.000000	0.328111
1624.000000	0.328218
1625.000000	0.328019
1626.000000	0.327965
1627.000000	0.328053
1628.000000	0.328125
1629.000000	0.328141
1630.000000	0.328230
1631.000000	0.328275
1632.000000	0.328334
1633.000000	0.328516
1634.000000	0.328600
1635.000000	0.328623
1636.000000	0.328747
1637.000000	0.328947
1638.000000	0.329010
1639.000000	0.329139
1640.000000	0.329207
1641.000000	0.329186
1642.000000	0.329235
1643.000000	0.329367
1644.000000	0.329505
1645.000000	0.329625
1646.000000	0.329742
1647.000000	0.329985
1648.000000	0.330054
1649.000000	0.330132
1650.000000	0.330239
1651.000000	0.330304
1652.000000	0.330432
1653.000000	0.330556
1654.000000	0.330685
1655.000000	0.330765
1656.000000	0.330783
1657.000000	0.330888
1658.000000	0.330874
1659.000000	0.330872
1660.000000	0.330933
1661.000000	0.330838
1662.000000	0.330894
1663.000000	0.331050
1664.000000	0.331135
1665.000000	0.331213
1666.000000	0.331413
1667.000000	0.331509
1668.000000	0.331699
1669.000000	0.332070
1670.000000	0.332154
1671.000000	0.332250
1672.000000	0.332380
1673.000000	0.332323
1674.000000	0.332486
1675.000000	0.332619
1676.000000	0.332562
1677.000000	0.332544
1678.000000	0.332458
1679.000000	0.332433
1680.000000	0.332376
1681.000000	0.332385
1682.000000	0.332490
1683.000000	0.332538
1684.000000	0.332554
1685.000000	0.332626
1686.000000	0.332735
1687.000000	0.332815
1688.000000	0.332978
1689.000000	0.333143
1690.000000	0.333013
1691.000000	0.333031
1692.000000	0.333036
1693.000000	0.332980
1694.000000	0.333124
1695.000000	0.333176
1696.000000	0.333027
1697.000000	0.332975
1698.000000	0.332958
1699.000000	0.332985
1700.000000	0.333144
1701.000000	0.333328
1702.000000	0.333368
1703.000000	0.333325
1704.000000	0.333250
1705.000000	0.333303
1706.000000	0.333443
1707.000000	0.333528
1708.000000	0.333753
1709.000000	0.333766
1710.000000	0.333646
1711.000000	0.333618
1712.000000	0.333605
1713.000000	0.333533
1714.000000	0.333481
1715.000000	0.333473
1716.000000	0.333485
1717.000000	0.333437
1718.000000	0.333316
1719.000000	0.333315
1720.000000	0.333383
1721.000000	0.333438
1722.000000	0.333636
1723.000000	0.333725
1724.000000	0.333700
1725.000000	0.333805
1726.000000	0.333909
1727.000000	0.333992
1728.000000	0.334089
1729.000000	0.333994
1730.000000	0.333892
1731.000000	0.333825
1732.000000	0.333661
1733.000000	0.333699
1734.000000	0.333693
1735.000000	0.333798
1736.000000	0.333999
1737.000000	0.334127
1738.000000	0.334323
1739.000000	0.334474
1740.000000	0.334548
1741.000000	0.334657
1742.000000	0.334801
1743.000000	0.334974
1744.000000	0.335166
1745.000000	0.335186
1746.000000	0.335126
1747.000000	0.335225
1748.000000	0.335159
1749.000000	0.335098
1750.000000	0.335049
1751.000000	0.334909
1752.000000	0.335003
1753.000000	0.335238
1754.000000	0.335370
1755.000000	0.335562
1756.000000	0.335550
1757.000000	0.335228
1758.000000	0.335169
1759.000000	0.335172
1760.000000	0.335093
1761.000000	0.335078
1762.000000	0.335055
1763.000000	0.334875
1764.000000	0.334854
1765.000000	0.335053
1766.000000	0.335061
1767.000000	0.334901
1768.000000	0.334759
1769.000000	0.334575
1770.000000	0.334571
1771.000000	0.334641
1772.000000	0.334680
1773.000000	0.334746
1774.000000	0.334771
1775.000000	0.334864
1776.000000	0.334827
1777.000000	0.334623
1778.000000	0.334639
1779.000000	0.334660
1780.000000	0.334690
1781.000000	0.334836
1782.000000	0.334918
1783.000000	0.334967
1784.000000	0.335207
1785.000000	0.335193
1786.000000	0.335263
1787.000000	0.335191
1788.000000	0.335007
1789.000000	0.335045
1790.000000	0.335086
1791.000000	0.335072
1792.000000	0.335178
1793.000000	0.335312
1794.000000	0.335492
1795.000000	0.335637
1796.000000	0.335893
1797.000000	0.335999
1798.000000	0.335875
1799.000000	0.335863
1800.000000	0.335929
1801.000000	0.336280
1802.000000	0.336097
1803.000000	0.335289
1804.000000	0.335426
1805.000000	0.336275
1806.000000	0.336528
1807.000000	0.336867
1808.000000	0.337182
1809.000000	0.337249
1810.000000	0.337217
1811.000000	0.337262
1812.000000	0.337638
1813.000000	0.337598
1814.000000	0.337135
1815.000000	0.337028
1816.000000	0.337115
1817.000000	0.336862
1818.000000	0.336504
1819.000000	0.336391
1820.000000	0.336328
1821.000000	0.336506
1822.000000	0.336496
1823.000000	0.336531
1824.000000	0.336665
1825.000000	0.336667
1826.000000	0.336729
1827.000000	0.336824
1828.000000	0.337181
1829.000000	0.337087
1830.000000	0.336645
1831.000000	0.336448
1832.000000	0.336061
1833.000000	0.336096
1834.000000	0.336504
1835.000000	0.336536
1836.000000	0.336852
1837.000000	0.336717
1838.000000	0.335742
1839.000000	0.335216
1840.000000	0.334791
1841.000000	0.334098
1842.000000	0.334355
1843.000000	0.335733
1844.000000	0.336034
1845.000000	0.336737
1846.000000	0.336785
1847.000000	0.335924
1848.000000	0.334573
1849.000000	0.334057
1850.000000	0.333106
1851.000000	0.332549
1852.000000	0.332091
1853.000000	0.332002
1854.000000	0.332191
1855.000000	0.331956
1856.000000	0.331532
1857.000000	0.331546
1858.000000	0.331123
1859.000000	0.330199
1860.000000	0.330037
1861.000000	0.329461
1862.000000	0.328507
1863.000000	0.327357
1864.000000	0.326397
1865.000000	0.325188
1866.000000	0.323840
1867.000000	0.322657
1868.000000	0.321045
1869.000000	0.318854
1870.000000	0.316639
1871.000000	0.314534
1872.000000	0.312878
1873.000000	0.311426
1874.000000	0.310644
1875.000000	0.309309
1876.000000	0.307958
1877.000000	0.305754
1878.000000	0.303567
1879.000000	0.300696
1880.000000	0.298122
1881.000000	0.295809
1882.000000	0.292580
1883.000000	0.289673
1884.000000	0.286553
1885.000000	0.282297
1886.000000	0.279085
1887.000000	0.276541
1888.000000	0.273682
1889.000000	0.270339
1890.000000	0.266628
1891.000000	0.262158
1892.000000	0.257179
1893.000000	0.252703
1894.000000	0.249269
1895.000000	0.245914
1896.000000	0.243256
1897.000000	0.240350
1898.000000	0.237433
1899.000000	0.234358
1900.000000	0.230707
1901.000000	0.227809
1902.000000	0.225135
1903.000000	0.222440
1904.000000	0.220048
1905.000000	0.217551
1906.000000	0.215758
1907.000000	0.214476
1908.000000	0.213428
1909.000000	0.212578
1910.000000	0.212006
1911.000000	0.210720
1912.000000	0.209857
1913.000000	0.209893
1914.000000	0.209891
1915.000000	0.209505
1916.000000	0.209437
1917.000000	0.209014
1918.000000	0.208321
1919.000000	0.207118
1920.000000	0.206581
1921.000000	0.205744
1922.000000	0.204662
1923.000000	0.204743
1924.000000	0.204929
1925.000000	0.205081
1926.000000	0.205810
1927.000000	0.206249
1928.000000	0.206590
1929.000000	0.206844
1930.000000	0.207507
1931.000000	0.207754
1932.000000	0.207585
1933.000000	0.207875
1934.000000	0.208053
1935.000000	0.207790
1936.000000	0.208222
1937.000000	0.208571
1938.000000	0.208424
1939.000000	0.208770
1940.000000	0.209545
1941.000000	0.210258
1942.000000	0.210914
1943.000000	0.211575
1944.000000	0.211332
1945.000000	0.210909
1946.000000	0.210205
1947.000000	0.209136
1948.000000	0.208777
1949.000000	0.208537
1950.000000	0.208076
1951.000000	0.207927
1952.000000	0.208204
1953.000000	0.208477
1954.000000	0.208382
1955.000000	0.208649
1956.000000	0.208545
1957.000000	0.207878
1958.000000	0.208061
1959.000000	0.208279
1960.000000	0.208593
1961.000000	0.209357
1962.000000	0.210056
1963.000000	0.210944
1964.000000	0.211464
1965.000000	0.211494
1966.000000	0.211853
1967.000000	0.211117
1968.000000	0.210436
1969.000000	0.210574
1970.000000	0.210154
1971.000000	0.209994
1972.000000	0.210111
1973.000000	0.210280
1974.000000	0.210655
1975.000000	0.210981
1976.000000	0.211537
1977.000000	0.212115
1978.000000	0.211983
1979.000000	0.212290
1980.000000	0.212556
1981.000000	0.212662
1982.000000	0.213117
1983.000000	0.213499
1984.000000	0.214122
1985.000000	0.215235
1986.000000	0.215733
1987.000000	0.216161
1988.000000	0.216653
1989.000000	0.216667
1990.000000	0.216614
1991.000000	0.217118
1992.000000	0.217851
1993.000000	0.218686
1994.000000	0.220024
1995.000000	0.221370
1996.000000	0.222573
1997.000000	0.223532
1998.000000	0.224214
1999.000000	0.225027
2000.000000	0.225691
2001.000000	0.226458
2002.000000	0.227365
2003.000000	0.228317
2004.000000	0.228586
2005.000000	0.228530
2006.000000	0.229154
2007.000000	0.229605
2008.000000	0.230037
2009.000000	0.230919
2010.000000	0.231585
2011.000000	0.231616
2012.000000	0.232147
2013.000000	0.233108
2014.000000	0.233390
2015.000000	0.234062
2016.000000	0.235135
2017.000000	0.236014
2018.000000	0.237240
2019.000000	0.238857
2020.000000	0.239732
2021.000000	0.240668
2022.000000	0.241657
2023.000000	0.242415
2024.000000	0.242949
2025.000000	0.243620
2026.000000	0.243989
2027.000000	0.244592
2028.000000	0.245376
2029.000000	0.245673
2030.000000	0.246436
2031.000000	0.247183
2032.000000	0.247561
2033.000000	0.248441
2034.000000	0.249316
2035.000000	0.250319
2036.000000	0.251016
2037.000000	0.252365
2038.000000	0.252687
2039.000000	0.251981
2040.000000	0.252178
2041.000000	0.252386
2042.000000	0.252538
2043.000000	0.253839
2044.000000	0.254810
2045.000000	0.255049
2046.000000	0.255690
2047.000000	0.256256
2048.000000	0.256533
2049.000000	0.257144
2050.000000	0.257538
2051.000000	0.258271
2052.000000	0.259313
2053.000000	0.259985
2054.000000	0.260989
2055.000000	0.261990
2056.000000	0.262306
2057.000000	0.262644
2058.000000	0.263017
2059.000000	0.263224
2060.000000	0.263646
2061.000000	0.264052
2062.000000	0.264731
2063.000000	0.266006
2064.000000	0.266430
2065.000000	0.266825
2066.000000	0.267155
2067.000000	0.267174
2068.000000	0.267369
2069.000000	0.268061
2070.000000	0.268568
2071.000000	0.269500
2072.000000	0.270485
2073.000000	0.270934
2074.000000	0.271212
2075.000000	0.271502
2076.000000	0.271147
2077.000000	0.271334
2078.000000	0.272270
2079.000000	0.272495
2080.000000	0.271965
2081.000000	0.272328
2082.000000	0.273113
2083.000000	0.273308
2084.000000	0.274395
2085.000000	0.275595
2086.000000	0.275757
2087.000000	0.276181
2088.000000	0.276729
2089.000000	0.276984
2090.000000	0.277273
2091.000000	0.277564
2092.000000	0.277968
2093.000000	0.278285
2094.000000	0.278752
2095.000000	0.279696
2096.000000	0.280367
2097.000000	0.280673
2098.000000	0.281324
2099.000000	0.282049
2100.000000	0.281969
2101.000000	0.281899
2102.000000	0.281875
2103.000000	0.282357
2104.000000	0.283265
2105.000000	0.284020
2106.000000	0.285638
2107.000000	0.286070
2108.000000	0.285641
2109.000000	0.285553
2110.000000	0.284596
2111.000000	0.284570
2112.000000	0.285210
2113.000000	0.285179
2114.000000	0.285442
2115.000000	0.285778
2116.000000	0.285470
2117.000000	0.285549
2118.000000	0.285897
2119.000000	0.285553
2120.000000	0.285799
2121.000000	0.286259
2122.000000	0.286633
2123.000000	0.287466
2124.000000	0.287923
2125.000000	0.287829
2126.000000	0.288085
2127.000000	0.288447
2128.000000	0.288936
2129.000000	0.289653
2130.000000	0.290219
2131.000000	0.290667
2132.000000	0.290983
2133.000000	0.290781
2134.000000	0.291018
2135.000000	0.291843
2136.000000	0.292219
2137.000000	0.292361
2138.000000	0.292780
2139.000000	0.292704
2140.000000	0.291620
2141.000000	0.291117
2142.000000	0.290437
2143.000000	0.290285
2144.000000	0.291065
2145.000000	0.291503
2146.000000	0.292313
2147.000000	0.293028
2148.000000	0.293430
2149.000000	0.293699
2150.000000	0.294771
2151.000000	0.295317
2152.000000	0.295203
2153.000000	0.294786
2154.000000	0.294443
2155.000000	0.293390
2156.000000	0.293191
2157.000000	0.293756
2158.000000	0.293842
2159.000000	0.294077
2160.000000	0.294216
2161.000000	0.293989
2162.000000	0.294070
2163.000000	0.293997
2164.000000	0.294079
2165.000000	0.294908
2166.000000	0.294980
2167.000000	0.293325
2168.000000	0.292966
2169.000000	0.292622
2170.000000	0.292393
2171.000000	0.292953
2172.000000	0.295475
2173.000000	0.296178
2174.000000	0.296116
2175.000000	0.296305
2176.000000	0.296502
2177.000000	0.296201
2178.000000	0.295786
2179.000000	0.295286
2180.000000	0.293386
2181.000000	0.292972
2182.000000	0.292868
2183.000000	0.292721
2184.000000	0.293298
2185.000000	0.294017
2186.000000	0.293204
2187.000000	0.293057
2188.000000	0.292975
2189.000000	0.292266
2190.000000	0.293469
2191.000000	0.294742
2192.000000	0.295298
2193.000000	0.295895
2194.000000	0.296089
2195.000000	0.295261
2196.000000	0.295207
2197.000000	0.295401
2198.000000	0.295222
2199.000000	0.295452
2200.000000	0.294987
2201.000000	0.293600
2202.000000	0.292905
2203.000000	0.291730
2204.000000	0.290676
2205.000000	0.291854
2206.000000	0.293101
2207.000000	0.294156
2208.000000	0.296037
2209.000000	0.298389
2210.000000	0.298608
2211.000000	0.297755
2212.000000	0.298547
2213.000000	0.296850
2214.000000	0.291017
2215.000000	0.289908
2216.000000	0.289332
2217.000000	0.290330
2218.000000	0.296355
2219.000000	0.297844
2220.000000	0.298872
2221.000000	0.297724
2222.000000	0.291410
2223.000000	0.289330
2224.000000	0.286975
2225.000000	0.287782
2226.000000	0.290865
2227.000000	0.292092
2228.000000	0.294129
2229.000000	0.293142
2230.000000	0.292622
2231.000000	0.295116
2232.000000	0.293423
2233.000000	0.293371
2234.000000	0.293787
2235.000000	0.292091
2236.000000	0.292290
2237.000000	0.294505
2238.000000	0.294539
2239.000000	0.294854
2240.000000	0.293847
2241.000000	0.290481
2242.000000	0.289154
2243.000000	0.287215
2244.000000	0.286303
2245.000000	0.287049
2246.000000	0.288175
2247.000000	0.290724
2248.000000	0.291642
2249.000000	0.293016
2250.000000	0.292247
2251.000000	0.290413
2252.000000	0.289684
2253.000000	0.289837
2254.000000	0.292047
2255.000000	0.293644
2256.000000	0.293190
2257.000000	0.293006
2258.000000	0.291037
2259.000000	0.290567
2260.000000	0.292447
2261.000000	0.291508
2262.000000	0.289688
2263.000000	0.288772
2264.000000	0.285887
2265.000000	0.284946
2266.000000	0.287256
2267.000000	0.286277
2268.000000	0.283466
2269.000000	0.282073
2270.000000	0.278868
2271.000000	0.277913
2272.000000	0.279901
2273.000000	0.280225
2274.000000	0.280159
2275.000000	0.280129
2276.000000	0.279658
2277.000000	0.279022
2278.000000	0.279025
2279.000000	0.280765
2280.000000	0.280619
2281.000000	0.279256
2282.000000	0.275915
2283.000000	0.272471
2284.000000	0.270994
2285.000000	0.269447
2286.000000	0.270819
2287.000000	0.273275
2288.000000	0.274503
2289.000000	0.273810
2290.000000	0.270707
2291.000000	0.267994
2292.000000	0.264062
2293.000000	0.260323
2294.000000	0.258973
2295.000000	0.259029
2296.000000	0.259023
2297.000000	0.261857
2298.000000	0.262766
2299.000000	0.262313
2300.000000	0.262457
2301.000000	0.262546
2302.000000	0.261676
2303.000000	0.261643
2304.000000	0.259936
2305.000000	0.255533
2306.000000	0.253364
2307.000000	0.251578
2308.000000	0.248990
2309.000000	0.247996
2310.000000	0.247670
2311.000000	0.246570
2312.000000	0.245631
2313.000000	0.246693
2314.000000	0.246897
2315.000000	0.245642
2316.000000	0.246068
2317.000000	0.245180
2318.000000	0.244414
2319.000000	0.246957
2320.000000	0.248116
2321.000000	0.249478
2322.000000	0.251641
2323.000000	0.251775
2324.000000	0.255062
2325.000000	0.255626
2326.000000	0.254694
2327.000000	0.257042
2328.000000	0.254798
2329.000000	0.255613
2330.000000	0.258060
2331.000000	0.256396
2332.000000	0.255428
2333.000000	0.252129
2334.000000	0.249233
2335.000000	0.247869
2336.000000	0.246705
2337.000000	0.246677
2338.000000	0.248282
2339.000000	0.248323
2340.000000	0.249041
2341.000000	0.249169
2342.000000	0.248377
2343.000000	0.249182
2344.000000	0.250031
2345.000000	0.250176
2346.000000	0.250998
2347.000000	0.251379
2348.000000	0.250710
2349.000000	0.252498
2350.000000	0.252355
2351.000000	0.251932
2352.000000	0.249719
2353.000000	0.246305
2354.000000	0.241929
2355.000000	0.239170
2356.000000	0.239033
2357.000000	0.236047
2358.000000	0.237761
2359.000000	0.239634
2360.000000	0.235935
2361.000000	0.235796
2362.000000	0.236057
2363.000000	0.234741
2364.000000	0.237368
2365.000000	0.239600
2366.000000	0.237514
2367.000000	0.234783
2368.000000	0.230161
2369.000000	0.224695
2370.000000	0.222443
2371.000000	0.221638
2372.000000	0.222187
2373.000000	0.224513
2374.000000	0.226583
2375.000000	0.225054
2376.000000	0.223024
2377.000000	0.221074
2378.000000	0.216182
2379.000000	0.213608
2380.000000	0.208573
2381.000000	0.205290
2382.000000	0.205037
2383.000000	0.204072
2384.000000	0.205700
2385.000000	0.202861
2386.000000	0.204899
2387.000000	0.209508
2388.000000	0.213499
2389.000000	0.223974
2390.000000	0.226611
2391.000000	0.224626
2392.000000	0.220434
2393.000000	0.215303
2394.000000	0.217710
2395.000000	0.219843
2396.000000	0.223743
2397.000000	0.222409
2398.000000	0.211759
2399.000000	0.202687
2400.000000	0.191426
2401.000000	0.183612
2402.000000	0.185468
2403.000000	0.189830
2404.000000	0.192232
2405.000000	0.198920
2406.000000	0.204222
2407.000000	0.203294
2408.000000	0.207494
2409.000000	0.206532
2410.000000	0.202294
2411.000000	0.202785
2412.000000	0.195367
2413.000000	0.188171
2414.000000	0.190644
2415.000000	0.191484
2416.000000	0.196551
2417.000000	0.208720
2418.000000	0.216923
2419.000000	0.221703
2420.000000	0.220036
2421.000000	0.215549
2422.000000	0.207036
2423.000000	0.194406
2424.000000	0.192797
2425.000000	0.198276
2426.000000	0.200762
2427.000000	0.204246
2428.000000	0.209915
2429.000000	0.210257
2430.000000	0.208172
2431.000000	0.212278
2432.000000	0.213254
2433.000000	0.203950
2434.000000	0.199251
2435.000000	0.198560
2436.000000	0.191213
2437.000000	0.193317
2438.000000	0.198839
2439.000000	0.204244
2440.000000	0.218487
2441.000000	0.226330
2442.000000	0.233003
2443.000000	0.232430
2444.000000	0.214064
2445.000000	0.197649
2446.000000	0.189483
2447.000000	0.177908
2448.000000	0.176081
2449.000000	0.185594
2450.000000	0.183941
2451.000000	0.188047
2452.000000	0.193989
2453.000000	0.188946
2454.000000	0.194544
2455.000000	0.195236
2456.000000	0.187284
2457.000000	0.185834
2458.000000	0.188645
2459.000000	0.199325
2460.000000	0.203498
2461.000000	0.212231
2462.000000	0.204627
2463.000000	0.168432
2464.000000	0.169145
2465.000000	0.180059
2466.000000	0.175823
2467.000000	0.181644
2468.000000	0.156079
2469.000000	0.108268
2470.000000	0.085778
2471.000000	0.093090
2472.000000	0.125004
2473.000000	0.157151
2474.000000	0.176698
2475.000000	0.186823
2476.000000	0.178629
2477.000000	0.169293
2478.000000	0.166530
2479.000000	0.178379
2480.000000	0.193424
2481.000000	0.215471
2482.000000	0.230636
2483.000000	0.194686
2484.000000	0.155575
2485.000000	0.106623
2486.000000	0.059957
2487.000000	0.056031
2488.000000	0.058619
2489.000000	0.055044
2490.000000	0.049372
2491.000000	0.024543
2492.000000	0.021996
2493.000000	0.056063
2494.000000	0.073426
2495.000000	0.081762
2496.000000	0.099578
2497.000000	0.137969
2498.000000	0.122943
2499.000000	0.065009
2500.000000	0.059831
