# Wavelength	SM1200H-70_HEX-20_FV7-10_00001.asd.rts.txt
350.000000	0.389731
351.000000	0.411198
352.000000	0.413100
353.000000	0.414368
354.000000	0.424132
355.000000	0.406717
356.000000	0.402103
357.000000	0.411013
358.000000	0.401508
359.000000	0.403250
360.000000	0.412051
361.000000	0.416092
362.000000	0.417319
363.000000	0.422139
364.000000	0.429156
365.000000	0.419082
366.000000	0.416776
367.000000	0.422820
368.000000	0.418032
369.000000	0.417196
370.000000	0.419016
371.000000	0.418326
372.000000	0.416023
373.000000	0.417680
374.000000	0.424884
375.000000	0.424334
376.000000	0.424224
377.000000	0.427121
378.000000	0.431392
379.000000	0.431588
380.000000	0.430239
381.000000	0.433254
382.000000	0.435675
383.000000	0.433857
384.000000	0.428645
385.000000	0.430388
386.000000	0.433625
387.000000	0.435494
388.000000	0.434845
389.000000	0.434003
390.000000	0.434909
391.000000	0.438158
392.000000	0.437200
393.000000	0.435291
394.000000	0.435679
395.000000	0.437227
396.000000	0.439182
397.000000	0.440598
398.000000	0.440013
399.000000	0.440530
400.000000	0.441540
401.000000	0.440800
402.000000	0.441729
403.000000	0.443182
404.000000	0.443866
405.000000	0.443838
406.000000	0.444123
407.000000	0.445122
408.000000	0.446193
409.000000	0.445821
410.000000	0.444953
411.000000	0.445925
412.000000	0.446252
413.000000	0.446522
414.000000	0.447616
415.000000	0.447617
416.000000	0.447666
417.000000	0.448427
418.000000	0.449200
419.000000	0.449255
420.000000	0.449015
421.000000	0.449971
422.000000	0.449890
423.000000	0.449765
424.000000	0.451342
425.000000	0.451735
426.000000	0.451882
427.000000	0.452609
428.000000	0.452973
429.000000	0.453568
430.000000	0.454444
431.000000	0.454890
432.000000	0.455148
433.000000	0.455355
434.000000	0.455822
435.000000	0.456237
436.000000	0.456662
437.000000	0.457134
438.000000	0.457505
439.000000	0.457719
440.000000	0.457972
441.000000	0.458341
442.000000	0.458589
443.000000	0.458681
444.000000	0.459039
445.000000	0.458787
446.000000	0.458866
447.000000	0.459983
448.000000	0.459927
449.000000	0.459935
450.000000	0.460801
451.000000	0.461040
452.000000	0.461423
453.000000	0.461929
454.000000	0.462027
455.000000	0.462331
456.000000	0.462952
457.000000	0.463453
458.000000	0.463847
459.000000	0.464104
460.000000	0.464299
461.000000	0.464318
462.000000	0.464842
463.000000	0.465677
464.000000	0.465990
465.000000	0.466332
466.000000	0.466649
467.000000	0.466793
468.000000	0.467165
469.000000	0.467586
470.000000	0.468006
471.000000	0.467881
472.000000	0.467797
473.000000	0.468122
474.000000	0.468207
475.000000	0.468093
476.000000	0.468171
477.000000	0.468632
478.000000	0.468740
479.000000	0.468829
480.000000	0.469002
481.000000	0.469125
482.000000	0.469528
483.000000	0.470009
484.000000	0.470128
485.000000	0.470319
486.000000	0.470939
487.000000	0.471090
488.000000	0.471163
489.000000	0.471311
490.000000	0.471530
491.000000	0.471973
492.000000	0.472566
493.000000	0.472934
494.000000	0.473203
495.000000	0.473528
496.000000	0.473924
497.000000	0.474384
498.000000	0.474748
499.000000	0.475131
500.000000	0.475654
501.000000	0.475989
502.000000	0.476240
503.000000	0.476545
504.000000	0.476991
505.000000	0.477344
506.000000	0.477454
507.000000	0.477789
508.000000	0.478278
509.000000	0.478748
510.000000	0.479121
511.000000	0.479479
512.000000	0.479869
513.000000	0.480213
514.000000	0.480594
515.000000	0.481008
516.000000	0.481301
517.000000	0.481473
518.000000	0.481705
519.000000	0.481974
520.000000	0.482271
521.000000	0.482563
522.000000	0.482862
523.000000	0.483221
524.000000	0.483515
525.000000	0.483732
526.000000	0.484002
527.000000	0.484329
528.000000	0.484666
529.000000	0.485030
530.000000	0.485211
531.000000	0.485468
532.000000	0.485792
533.000000	0.486099
534.000000	0.486284
535.000000	0.486397
536.000000	0.486729
537.000000	0.487105
538.000000	0.487475
539.000000	0.487805
540.000000	0.488095
541.000000	0.488380
542.000000	0.488744
543.000000	0.489101
544.000000	0.489425
545.000000	0.489651
546.000000	0.490090
547.000000	0.490432
548.000000	0.490732
549.000000	0.491124
550.000000	0.491598
551.000000	0.492049
552.000000	0.492285
553.000000	0.492568
554.000000	0.492933
555.000000	0.493367
556.000000	0.493791
557.000000	0.494078
558.000000	0.494424
559.000000	0.494800
560.000000	0.495055
561.000000	0.495341
562.000000	0.495688
563.000000	0.495972
564.000000	0.496305
565.000000	0.496614
566.000000	0.496846
567.000000	0.497110
568.000000	0.497436
569.000000	0.497814
570.000000	0.498176
571.000000	0.498467
572.000000	0.498689
573.000000	0.499073
574.000000	0.499442
575.000000	0.499607
576.000000	0.499779
577.000000	0.499934
578.000000	0.500148
579.000000	0.500449
580.000000	0.500751
581.000000	0.501012
582.000000	0.501266
583.000000	0.501519
584.000000	0.501775
585.000000	0.502041
586.000000	0.502268
587.000000	0.502484
588.000000	0.502738
589.000000	0.503022
590.000000	0.503344
591.000000	0.503678
592.000000	0.503918
593.000000	0.504157
594.000000	0.504403
595.000000	0.504588
596.000000	0.504817
597.000000	0.505112
598.000000	0.505293
599.000000	0.505412
600.000000	0.505634
601.000000	0.505917
602.000000	0.506069
603.000000	0.506244
604.000000	0.506517
605.000000	0.506755
606.000000	0.506902
607.000000	0.507007
608.000000	0.507197
609.000000	0.507439
610.000000	0.507660
611.000000	0.507799
612.000000	0.507959
613.000000	0.508097
614.000000	0.508235
615.000000	0.508318
616.000000	0.508461
617.000000	0.508631
618.000000	0.508818
619.000000	0.509016
620.000000	0.509177
621.000000	0.509347
622.000000	0.509495
623.000000	0.509581
624.000000	0.509606
625.000000	0.509753
626.000000	0.509859
627.000000	0.509871
628.000000	0.509884
629.000000	0.510075
630.000000	0.510193
631.000000	0.510239
632.000000	0.510286
633.000000	0.510384
634.000000	0.510529
635.000000	0.510663
636.000000	0.510851
637.000000	0.511077
638.000000	0.511276
639.000000	0.511427
640.000000	0.511596
641.000000	0.511639
642.000000	0.511699
643.000000	0.511779
644.000000	0.511848
645.000000	0.511912
646.000000	0.512056
647.000000	0.512260
648.000000	0.512378
649.000000	0.512459
650.000000	0.512523
651.000000	0.512668
652.000000	0.512772
653.000000	0.512897
654.000000	0.513030
655.000000	0.513171
656.000000	0.513282
657.000000	0.513271
658.000000	0.513393
659.000000	0.513554
660.000000	0.513660
661.000000	0.513725
662.000000	0.513734
663.000000	0.513842
664.000000	0.514126
665.000000	0.514370
666.000000	0.514581
667.000000	0.514753
668.000000	0.514855
669.000000	0.514953
670.000000	0.515094
671.000000	0.515236
672.000000	0.515397
673.000000	0.515559
674.000000	0.515706
675.000000	0.515820
676.000000	0.515949
677.000000	0.516167
678.000000	0.516336
679.000000	0.516454
680.000000	0.516549
681.000000	0.516608
682.000000	0.516747
683.000000	0.516865
684.000000	0.517033
685.000000	0.517149
686.000000	0.517267
687.000000	0.517389
688.000000	0.517479
689.000000	0.517603
690.000000	0.517831
691.000000	0.517961
692.000000	0.518070
693.000000	0.518287
694.000000	0.518503
695.000000	0.518673
696.000000	0.518837
697.000000	0.519067
698.000000	0.519257
699.000000	0.519433
700.000000	0.519626
701.000000	0.519747
702.000000	0.519876
703.000000	0.519990
704.000000	0.520008
705.000000	0.520077
706.000000	0.520164
707.000000	0.520319
708.000000	0.520439
709.000000	0.520559
710.000000	0.520745
711.000000	0.520893
712.000000	0.521012
713.000000	0.521157
714.000000	0.521363
715.000000	0.521525
716.000000	0.521665
717.000000	0.521809
718.000000	0.521896
719.000000	0.521903
720.000000	0.521869
721.000000	0.521923
722.000000	0.521941
723.000000	0.521977
724.000000	0.522012
725.000000	0.522063
726.000000	0.522232
727.000000	0.522366
728.000000	0.522442
729.000000	0.522518
730.000000	0.522564
731.000000	0.522633
732.000000	0.522698
733.000000	0.522797
734.000000	0.522849
735.000000	0.522860
736.000000	0.522993
737.000000	0.523034
738.000000	0.522987
739.000000	0.522993
740.000000	0.522900
741.000000	0.522959
742.000000	0.523028
743.000000	0.523049
744.000000	0.523209
745.000000	0.523292
746.000000	0.523344
747.000000	0.523330
748.000000	0.523350
749.000000	0.523447
750.000000	0.523563
751.000000	0.523649
752.000000	0.523671
753.000000	0.523665
754.000000	0.523686
755.000000	0.523780
756.000000	0.523925
757.000000	0.524009
758.000000	0.524126
759.000000	0.524224
760.000000	0.524201
761.000000	0.524343
762.000000	0.524479
763.000000	0.524536
764.000000	0.524625
765.000000	0.524657
766.000000	0.524753
767.000000	0.524993
768.000000	0.525175
769.000000	0.525239
770.000000	0.525224
771.000000	0.525296
772.000000	0.525428
773.000000	0.525451
774.000000	0.525392
775.000000	0.525506
776.000000	0.525610
777.000000	0.525548
778.000000	0.525551
779.000000	0.525629
780.000000	0.525750
781.000000	0.525795
782.000000	0.525865
783.000000	0.526014
784.000000	0.525995
785.000000	0.526014
786.000000	0.526032
787.000000	0.526023
788.000000	0.526063
789.000000	0.526081
790.000000	0.526036
791.000000	0.525986
792.000000	0.525979
793.000000	0.525973
794.000000	0.525941
795.000000	0.525920
796.000000	0.525914
797.000000	0.525906
798.000000	0.525870
799.000000	0.526022
800.000000	0.526184
801.000000	0.526134
802.000000	0.526156
803.000000	0.526220
804.000000	0.526298
805.000000	0.526178
806.000000	0.525944
807.000000	0.525811
808.000000	0.525789
809.000000	0.525714
810.000000	0.525642
811.000000	0.525621
812.000000	0.525664
813.000000	0.525732
814.000000	0.525794
815.000000	0.525863
816.000000	0.525919
817.000000	0.525992
818.000000	0.525978
819.000000	0.525977
820.000000	0.525979
821.000000	0.525904
822.000000	0.525835
823.000000	0.525840
824.000000	0.525794
825.000000	0.525725
826.000000	0.525702
827.000000	0.525621
828.000000	0.525535
829.000000	0.525608
830.000000	0.525556
831.000000	0.525456
832.000000	0.525293
833.000000	0.525198
834.000000	0.525150
835.000000	0.525151
836.000000	0.525116
837.000000	0.525023
838.000000	0.524910
839.000000	0.524791
840.000000	0.524757
841.000000	0.524809
842.000000	0.524837
843.000000	0.524789
844.000000	0.524692
845.000000	0.524565
846.000000	0.524554
847.000000	0.524632
848.000000	0.524659
849.000000	0.524564
850.000000	0.524432
851.000000	0.524342
852.000000	0.524393
853.000000	0.524527
854.000000	0.524505
855.000000	0.524468
856.000000	0.524343
857.000000	0.524099
858.000000	0.523938
859.000000	0.523796
860.000000	0.523575
861.000000	0.523440
862.000000	0.523464
863.000000	0.523501
864.000000	0.523278
865.000000	0.523099
866.000000	0.523124
867.000000	0.523010
868.000000	0.522961
869.000000	0.522910
870.000000	0.522877
871.000000	0.522760
872.000000	0.522754
873.000000	0.522826
874.000000	0.522820
875.000000	0.522779
876.000000	0.522685
877.000000	0.522413
878.000000	0.522259
879.000000	0.522253
880.000000	0.522134
881.000000	0.522016
882.000000	0.521752
883.000000	0.521462
884.000000	0.521233
885.000000	0.520960
886.000000	0.520638
887.000000	0.520341
888.000000	0.520119
889.000000	0.519993
890.000000	0.519812
891.000000	0.519735
892.000000	0.519576
893.000000	0.519361
894.000000	0.519318
895.000000	0.519297
896.000000	0.519056
897.000000	0.518699
898.000000	0.518453
899.000000	0.518377
900.000000	0.518249
901.000000	0.518000
902.000000	0.518022
903.000000	0.517877
904.000000	0.517632
905.000000	0.517348
906.000000	0.517413
907.000000	0.517327
908.000000	0.517122
909.000000	0.517125
910.000000	0.516988
911.000000	0.516782
912.000000	0.516662
913.000000	0.516554
914.000000	0.516449
915.000000	0.516397
916.000000	0.516216
917.000000	0.516122
918.000000	0.515992
919.000000	0.515684
920.000000	0.515289
921.000000	0.515010
922.000000	0.514920
923.000000	0.514938
924.000000	0.514876
925.000000	0.514684
926.000000	0.514395
927.000000	0.513946
928.000000	0.513513
929.000000	0.513207
930.000000	0.513060
931.000000	0.512874
932.000000	0.512584
933.000000	0.512307
934.000000	0.512147
935.000000	0.511659
936.000000	0.511239
937.000000	0.511060
938.000000	0.510740
939.000000	0.510605
940.000000	0.510453
941.000000	0.510075
942.000000	0.509629
943.000000	0.509251
944.000000	0.508756
945.000000	0.508137
946.000000	0.507335
947.000000	0.506677
948.000000	0.506396
949.000000	0.506321
950.000000	0.506300
951.000000	0.506213
952.000000	0.506179
953.000000	0.505968
954.000000	0.505869
955.000000	0.505889
956.000000	0.505540
957.000000	0.505309
958.000000	0.505058
959.000000	0.504683
960.000000	0.504548
961.000000	0.504446
962.000000	0.504266
963.000000	0.504165
964.000000	0.504130
965.000000	0.504021
966.000000	0.503564
967.000000	0.503020
968.000000	0.502817
969.000000	0.502688
970.000000	0.502310
971.000000	0.502029
972.000000	0.501821
973.000000	0.501581
974.000000	0.501465
975.000000	0.501422
976.000000	0.501295
977.000000	0.501044
978.000000	0.501076
979.000000	0.501038
980.000000	0.500685
981.000000	0.500612
982.000000	0.500434
983.000000	0.500156
984.000000	0.499934
985.000000	0.499785
986.000000	0.499638
987.000000	0.499450
988.000000	0.499074
989.000000	0.498831
990.000000	0.498412
991.000000	0.498048
992.000000	0.498111
993.000000	0.498292
994.000000	0.498122
995.000000	0.497850
996.000000	0.497592
997.000000	0.497620
998.000000	0.497771
999.000000	0.497976
1000.000000	0.497970
1001.000000	0.498194
1002.000000	0.497764
1003.000000	0.497759
1004.000000	0.497859
1005.000000	0.498153
1006.000000	0.498009
1007.000000	0.498077
1008.000000	0.497853
1009.000000	0.497025
1010.000000	0.496113
1011.000000	0.495731
1012.000000	0.495821
1013.000000	0.495981
1014.000000	0.496230
1015.000000	0.496045
1016.000000	0.495705
1017.000000	0.495494
1018.000000	0.495387
1019.000000	0.495666
1020.000000	0.497370
1021.000000	0.496891
1022.000000	0.495504
1023.000000	0.495368
1024.000000	0.494351
1025.000000	0.494432
1026.000000	0.495553
1027.000000	0.495410
1028.000000	0.495452
1029.000000	0.495283
1030.000000	0.494441
1031.000000	0.494634
1032.000000	0.494844
1033.000000	0.494565
1034.000000	0.494828
1035.000000	0.496125
1036.000000	0.496239
1037.000000	0.495584
1038.000000	0.495522
1039.000000	0.495484
1040.000000	0.495452
1041.000000	0.495889
1042.000000	0.496233
1043.000000	0.495544
1044.000000	0.495135
1045.000000	0.495244
1046.000000	0.495287
1047.000000	0.495677
1048.000000	0.496793
1049.000000	0.497014
1050.000000	0.496978
1051.000000	0.496925
1052.000000	0.496105
1053.000000	0.496010
1054.000000	0.496638
1055.000000	0.497064
1056.000000	0.497812
1057.000000	0.498599
1058.000000	0.498578
1059.000000	0.498308
1060.000000	0.498316
1061.000000	0.498550
1062.000000	0.499029
1063.000000	0.499539
1064.000000	0.499894
1065.000000	0.499982
1066.000000	0.500229
1067.000000	0.500481
1068.000000	0.500652
1069.000000	0.500673
1070.000000	0.500869
1071.000000	0.501297
1072.000000	0.501459
1073.000000	0.501574
1074.000000	0.502026
1075.000000	0.501875
1076.000000	0.501516
1077.000000	0.501314
1078.000000	0.501244
1079.000000	0.501210
1080.000000	0.501278
1081.000000	0.501462
1082.000000	0.502000
1083.000000	0.502206
1084.000000	0.502585
1085.000000	0.502769
1086.000000	0.502286
1087.000000	0.502447
1088.000000	0.502945
1089.000000	0.503166
1090.000000	0.503577
1091.000000	0.503835
1092.000000	0.503627
1093.000000	0.503475
1094.000000	0.503440
1095.000000	0.503208
1096.000000	0.503477
1097.000000	0.504162
1098.000000	0.504449
1099.000000	0.504773
1100.000000	0.505010
1101.000000	0.504659
1102.000000	0.504880
1103.000000	0.505577
1104.000000	0.505958
1105.000000	0.506522
1106.000000	0.506826
1107.000000	0.506653
1108.000000	0.506552
1109.000000	0.506409
1110.000000	0.506311
1111.000000	0.506524
1112.000000	0.506951
1113.000000	0.507224
1114.000000	0.507777
1115.000000	0.508014
1116.000000	0.508070
1117.000000	0.508032
1118.000000	0.507838
1119.000000	0.507628
1120.000000	0.507061
1121.000000	0.506942
1122.000000	0.507344
1123.000000	0.507729
1124.000000	0.507907
1125.000000	0.508164
1126.000000	0.508295
1127.000000	0.508298
1128.000000	0.508260
1129.000000	0.508317
1130.000000	0.508341
1131.000000	0.508229
1132.000000	0.508203
1133.000000	0.508482
1134.000000	0.508436
1135.000000	0.508004
1136.000000	0.507900
1137.000000	0.507936
1138.000000	0.507697
1139.000000	0.507644
1140.000000	0.507594
1141.000000	0.507050
1142.000000	0.506901
1143.000000	0.506967
1144.000000	0.507136
1145.000000	0.507342
1146.000000	0.507305
1147.000000	0.507084
1148.000000	0.506457
1149.000000	0.506263
1150.000000	0.505962
1151.000000	0.506017
1152.000000	0.506503
1153.000000	0.506589
1154.000000	0.506510
1155.000000	0.506482
1156.000000	0.506282
1157.000000	0.506233
1158.000000	0.506218
1159.000000	0.506243
1160.000000	0.506364
1161.000000	0.506374
1162.000000	0.506481
1163.000000	0.506663
1164.000000	0.506784
1165.000000	0.506694
1166.000000	0.506731
1167.000000	0.506748
1168.000000	0.506710
1169.000000	0.506664
1170.000000	0.506695
1171.000000	0.506828
1172.000000	0.506937
1173.000000	0.507058
1174.000000	0.507064
1175.000000	0.506906
1176.000000	0.506808
1177.000000	0.506765
1178.000000	0.506772
1179.000000	0.506923
1180.000000	0.506850
1181.000000	0.506831
1182.000000	0.506752
1183.000000	0.506630
1184.000000	0.506681
1185.000000	0.506584
1186.000000	0.506474
1187.000000	0.506351
1188.000000	0.506107
1189.000000	0.505943
1190.000000	0.505898
1191.000000	0.505857
1192.000000	0.506052
1193.000000	0.506209
1194.000000	0.506142
1195.000000	0.506194
1196.000000	0.506182
1197.000000	0.506145
1198.000000	0.506179
1199.000000	0.506217
1200.000000	0.506178
1201.000000	0.506175
1202.000000	0.506171
1203.000000	0.506282
1204.000000	0.506383
1205.000000	0.506455
1206.000000	0.506387
1207.000000	0.506339
1208.000000	0.506346
1209.000000	0.506407
1210.000000	0.506405
1211.000000	0.506532
1212.000000	0.506510
1213.000000	0.506342
1214.000000	0.506354
1215.000000	0.506368
1216.000000	0.506386
1217.000000	0.506466
1218.000000	0.506425
1219.000000	0.506254
1220.000000	0.506413
1221.000000	0.506473
1222.000000	0.506434
1223.000000	0.506374
1224.000000	0.506179
1225.000000	0.506045
1226.000000	0.506037
1227.000000	0.506060
1228.000000	0.506253
1229.000000	0.506329
1230.000000	0.506342
1231.000000	0.506256
1232.000000	0.506333
1233.000000	0.506440
1234.000000	0.506432
1235.000000	0.506451
1236.000000	0.506345
1237.000000	0.506428
1238.000000	0.506569
1239.000000	0.506558
1240.000000	0.506612
1241.000000	0.506547
1242.000000	0.506227
1243.000000	0.506005
1244.000000	0.505986
1245.000000	0.505995
1246.000000	0.506048
1247.000000	0.506341
1248.000000	0.506473
1249.000000	0.506346
1250.000000	0.506382
1251.000000	0.506502
1252.000000	0.506385
1253.000000	0.506221
1254.000000	0.506155
1255.000000	0.505847
1256.000000	0.505713
1257.000000	0.505903
1258.000000	0.505984
1259.000000	0.505925
1260.000000	0.506012
1261.000000	0.506038
1262.000000	0.506008
1263.000000	0.506093
1264.000000	0.505970
1265.000000	0.505832
1266.000000	0.505803
1267.000000	0.505659
1268.000000	0.505590
1269.000000	0.505437
1270.000000	0.505380
1271.000000	0.505322
1272.000000	0.505268
1273.000000	0.505360
1274.000000	0.505360
1275.000000	0.505330
1276.000000	0.505362
1277.000000	0.505442
1278.000000	0.505378
1279.000000	0.505272
1280.000000	0.505027
1281.000000	0.504847
1282.000000	0.504669
1283.000000	0.504661
1284.000000	0.504693
1285.000000	0.504711
1286.000000	0.504683
1287.000000	0.504791
1288.000000	0.504866
1289.000000	0.504873
1290.000000	0.504823
1291.000000	0.504714
1292.000000	0.504547
1293.000000	0.504425
1294.000000	0.504426
1295.000000	0.504303
1296.000000	0.504218
1297.000000	0.504247
1298.000000	0.504267
1299.000000	0.504209
1300.000000	0.504165
1301.000000	0.504041
1302.000000	0.503806
1303.000000	0.503634
1304.000000	0.503447
1305.000000	0.503294
1306.000000	0.503156
1307.000000	0.503130
1308.000000	0.503100
1309.000000	0.503069
1310.000000	0.503069
1311.000000	0.503201
1312.000000	0.503149
1313.000000	0.502983
1314.000000	0.502801
1315.000000	0.502498
1316.000000	0.502098
1317.000000	0.501890
1318.000000	0.501874
1319.000000	0.501673
1320.000000	0.501450
1321.000000	0.501105
1322.000000	0.500662
1323.000000	0.500392
1324.000000	0.500224
1325.000000	0.499929
1326.000000	0.499732
1327.000000	0.499630
1328.000000	0.499465
1329.000000	0.499159
1330.000000	0.498858
1331.000000	0.498552
1332.000000	0.498150
1333.000000	0.497831
1334.000000	0.497736
1335.000000	0.497536
1336.000000	0.497312
1337.000000	0.497026
1338.000000	0.496646
1339.000000	0.496129
1340.000000	0.495711
1341.000000	0.495325
1342.000000	0.495097
1343.000000	0.495046
1344.000000	0.494852
1345.000000	0.494458
1346.000000	0.494129
1347.000000	0.493616
1348.000000	0.493242
1349.000000	0.492806
1350.000000	0.492315
1351.000000	0.491990
1352.000000	0.491637
1353.000000	0.491248
1354.000000	0.491061
1355.000000	0.490616
1356.000000	0.490182
1357.000000	0.489922
1358.000000	0.489496
1359.000000	0.489143
1360.000000	0.488811
1361.000000	0.488592
1362.000000	0.488177
1363.000000	0.487646
1364.000000	0.487165
1365.000000	0.486644
1366.000000	0.486073
1367.000000	0.485467
1368.000000	0.484872
1369.000000	0.484298
1370.000000	0.483222
1371.000000	0.482228
1372.000000	0.481233
1373.000000	0.480039
1374.000000	0.478739
1375.000000	0.476969
1376.000000	0.474948
1377.000000	0.472462
1378.000000	0.469221
1379.000000	0.465544
1380.000000	0.461240
1381.000000	0.456241
1382.000000	0.451195
1383.000000	0.445801
1384.000000	0.440068
1385.000000	0.434675
1386.000000	0.429511
1387.000000	0.425109
1388.000000	0.421621
1389.000000	0.418703
1390.000000	0.416612
1391.000000	0.415291
1392.000000	0.414725
1393.000000	0.414622
1394.000000	0.415644
1395.000000	0.416289
1396.000000	0.417367
1397.000000	0.417896
1398.000000	0.418334
1399.000000	0.418298
1400.000000	0.417952
1401.000000	0.417166
1402.000000	0.415995
1403.000000	0.414644
1404.000000	0.413188
1405.000000	0.411640
1406.000000	0.410166
1407.000000	0.408779
1408.000000	0.407241
1409.000000	0.405843
1410.000000	0.404788
1411.000000	0.403793
1412.000000	0.402888
1413.000000	0.402280
1414.000000	0.401722
1415.000000	0.401204
1416.000000	0.401001
1417.000000	0.400862
1418.000000	0.400577
1419.000000	0.400501
1420.000000	0.400294
1421.000000	0.400229
1422.000000	0.400521
1423.000000	0.400824
1424.000000	0.400938
1425.000000	0.401166
1426.000000	0.401271
1427.000000	0.401396
1428.000000	0.401733
1429.000000	0.402014
1430.000000	0.402288
1431.000000	0.402535
1432.000000	0.402736
1433.000000	0.403002
1434.000000	0.403181
1435.000000	0.403367
1436.000000	0.403518
1437.000000	0.403608
1438.000000	0.403615
1439.000000	0.403621
1440.000000	0.403719
1441.000000	0.403883
1442.000000	0.403920
1443.000000	0.403862
1444.000000	0.403834
1445.000000	0.403693
1446.000000	0.403510
1447.000000	0.403446
1448.000000	0.403386
1449.000000	0.403231
1450.000000	0.403102
1451.000000	0.403086
1452.000000	0.402855
1453.000000	0.402614
1454.000000	0.402443
1455.000000	0.402113
1456.000000	0.401984
1457.000000	0.402013
1458.000000	0.401958
1459.000000	0.401946
1460.000000	0.401933
1461.000000	0.401858
1462.000000	0.401916
1463.000000	0.402048
1464.000000	0.402258
1465.000000	0.402568
1466.000000	0.402804
1467.000000	0.403185
1468.000000	0.403622
1469.000000	0.403969
1470.000000	0.404321
1471.000000	0.404791
1472.000000	0.405358
1473.000000	0.406141
1474.000000	0.406843
1475.000000	0.407471
1476.000000	0.408149
1477.000000	0.408818
1478.000000	0.409438
1479.000000	0.410001
1480.000000	0.410596
1481.000000	0.411196
1482.000000	0.411826
1483.000000	0.412501
1484.000000	0.413235
1485.000000	0.413899
1486.000000	0.414522
1487.000000	0.415183
1488.000000	0.415871
1489.000000	0.416616
1490.000000	0.417198
1491.000000	0.417921
1492.000000	0.418714
1493.000000	0.419427
1494.000000	0.420134
1495.000000	0.420751
1496.000000	0.421213
1497.000000	0.421777
1498.000000	0.422373
1499.000000	0.422989
1500.000000	0.423665
1501.000000	0.424369
1502.000000	0.424980
1503.000000	0.425546
1504.000000	0.426039
1505.000000	0.426521
1506.000000	0.427095
1507.000000	0.427667
1508.000000	0.428266
1509.000000	0.428838
1510.000000	0.429351
1511.000000	0.429838
1512.000000	0.430234
1513.000000	0.430669
1514.000000	0.431196
1515.000000	0.431557
1516.000000	0.431941
1517.000000	0.432343
1518.000000	0.432661
1519.000000	0.432955
1520.000000	0.433287
1521.000000	0.433544
1522.000000	0.433886
1523.000000	0.434281
1524.000000	0.434429
1525.000000	0.434790
1526.000000	0.435261
1527.000000	0.435466
1528.000000	0.435866
1529.000000	0.436245
1530.000000	0.436255
1531.000000	0.436469
1532.000000	0.436910
1533.000000	0.437138
1534.000000	0.437262
1535.000000	0.437533
1536.000000	0.437730
1537.000000	0.437977
1538.000000	0.438278
1539.000000	0.438540
1540.000000	0.438784
1541.000000	0.439062
1542.000000	0.439426
1543.000000	0.439685
1544.000000	0.439945
1545.000000	0.440320
1546.000000	0.440634
1547.000000	0.440915
1548.000000	0.441156
1549.000000	0.441201
1550.000000	0.441155
1551.000000	0.441266
1552.000000	0.441309
1553.000000	0.441356
1554.000000	0.441522
1555.000000	0.441608
1556.000000	0.441832
1557.000000	0.441970
1558.000000	0.442059
1559.000000	0.441968
1560.000000	0.442122
1561.000000	0.442353
1562.000000	0.442546
1563.000000	0.443023
1564.000000	0.443219
1565.000000	0.443217
1566.000000	0.443186
1567.000000	0.443148
1568.000000	0.443156
1569.000000	0.443257
1570.000000	0.443363
1571.000000	0.443465
1572.000000	0.443559
1573.000000	0.443711
1574.000000	0.443773
1575.000000	0.443823
1576.000000	0.443953
1577.000000	0.444030
1578.000000	0.444042
1579.000000	0.444155
1580.000000	0.444249
1581.000000	0.444352
1582.000000	0.444509
1583.000000	0.444809
1584.000000	0.444807
1585.000000	0.444750
1586.000000	0.444760
1587.000000	0.444602
1588.000000	0.444604
1589.000000	0.444808
1590.000000	0.444891
1591.000000	0.444921
1592.000000	0.445051
1593.000000	0.445294
1594.000000	0.445397
1595.000000	0.445586
1596.000000	0.445702
1597.000000	0.445717
1598.000000	0.445785
1599.000000	0.445937
1600.000000	0.446005
1601.000000	0.446169
1602.000000	0.446192
1603.000000	0.446135
1604.000000	0.446124
1605.000000	0.446116
1606.000000	0.446123
1607.000000	0.446207
1608.000000	0.446323
1609.000000	0.446550
1610.000000	0.446603
1611.000000	0.446702
1612.000000	0.446728
1613.000000	0.446703
1614.000000	0.446750
1615.000000	0.446908
1616.000000	0.447114
1617.000000	0.447297
1618.000000	0.447445
1619.000000	0.447570
1620.000000	0.447763
1621.000000	0.448006
1622.000000	0.448312
1623.000000	0.448676
1624.000000	0.448957
1625.000000	0.449016
1626.000000	0.449107
1627.000000	0.449189
1628.000000	0.449394
1629.000000	0.449646
1630.000000	0.449902
1631.000000	0.450130
1632.000000	0.450263
1633.000000	0.450341
1634.000000	0.450494
1635.000000	0.450760
1636.000000	0.450930
1637.000000	0.451109
1638.000000	0.451186
1639.000000	0.451193
1640.000000	0.451240
1641.000000	0.451383
1642.000000	0.451524
1643.000000	0.451729
1644.000000	0.451927
1645.000000	0.452190
1646.000000	0.452211
1647.000000	0.452129
1648.000000	0.452120
1649.000000	0.452102
1650.000000	0.452242
1651.000000	0.452596
1652.000000	0.452837
1653.000000	0.452995
1654.000000	0.453241
1655.000000	0.453482
1656.000000	0.453542
1657.000000	0.453620
1658.000000	0.453719
1659.000000	0.453866
1660.000000	0.454058
1661.000000	0.454198
1662.000000	0.454428
1663.000000	0.454663
1664.000000	0.454804
1665.000000	0.454977
1666.000000	0.455200
1667.000000	0.455180
1668.000000	0.455375
1669.000000	0.455709
1670.000000	0.455882
1671.000000	0.456212
1672.000000	0.456468
1673.000000	0.456652
1674.000000	0.456750
1675.000000	0.456811
1676.000000	0.456837
1677.000000	0.456827
1678.000000	0.456910
1679.000000	0.456979
1680.000000	0.456931
1681.000000	0.456958
1682.000000	0.457057
1683.000000	0.457134
1684.000000	0.457153
1685.000000	0.457234
1686.000000	0.457213
1687.000000	0.457113
1688.000000	0.457130
1689.000000	0.457254
1690.000000	0.457349
1691.000000	0.457637
1692.000000	0.457745
1693.000000	0.457641
1694.000000	0.457650
1695.000000	0.457712
1696.000000	0.457886
1697.000000	0.457848
1698.000000	0.457661
1699.000000	0.457604
1700.000000	0.457521
1701.000000	0.457551
1702.000000	0.457427
1703.000000	0.457299
1704.000000	0.457281
1705.000000	0.457262
1706.000000	0.457273
1707.000000	0.457405
1708.000000	0.457670
1709.000000	0.457678
1710.000000	0.457789
1711.000000	0.457873
1712.000000	0.457741
1713.000000	0.457753
1714.000000	0.458014
1715.000000	0.458135
1716.000000	0.458243
1717.000000	0.458276
1718.000000	0.458205
1719.000000	0.458084
1720.000000	0.457932
1721.000000	0.457836
1722.000000	0.457626
1723.000000	0.457682
1724.000000	0.458052
1725.000000	0.458173
1726.000000	0.458209
1727.000000	0.458237
1728.000000	0.458013
1729.000000	0.457822
1730.000000	0.457909
1731.000000	0.457838
1732.000000	0.457590
1733.000000	0.457614
1734.000000	0.457571
1735.000000	0.457549
1736.000000	0.457554
1737.000000	0.457619
1738.000000	0.457724
1739.000000	0.457828
1740.000000	0.458049
1741.000000	0.458015
1742.000000	0.457831
1743.000000	0.457850
1744.000000	0.457823
1745.000000	0.457748
1746.000000	0.457730
1747.000000	0.457772
1748.000000	0.457590
1749.000000	0.457336
1750.000000	0.457110
1751.000000	0.456829
1752.000000	0.456791
1753.000000	0.456912
1754.000000	0.456834
1755.000000	0.456521
1756.000000	0.456359
1757.000000	0.456114
1758.000000	0.456031
1759.000000	0.456190
1760.000000	0.456238
1761.000000	0.456267
1762.000000	0.456208
1763.000000	0.456113
1764.000000	0.456001
1765.000000	0.455744
1766.000000	0.455581
1767.000000	0.455337
1768.000000	0.455078
1769.000000	0.454922
1770.000000	0.454891
1771.000000	0.454900
1772.000000	0.454813
1773.000000	0.454662
1774.000000	0.454613
1775.000000	0.454645
1776.000000	0.454598
1777.000000	0.454504
1778.000000	0.454557
1779.000000	0.454583
1780.000000	0.454628
1781.000000	0.454882
1782.000000	0.454789
1783.000000	0.454464
1784.000000	0.454403
1785.000000	0.454205
1786.000000	0.454350
1787.000000	0.454732
1788.000000	0.454975
1789.000000	0.455124
1790.000000	0.454952
1791.000000	0.454773
1792.000000	0.454540
1793.000000	0.454451
1794.000000	0.454528
1795.000000	0.454558
1796.000000	0.454554
1797.000000	0.454641
1798.000000	0.454829
1799.000000	0.454858
1800.000000	0.454852
1801.000000	0.454957
1802.000000	0.455030
1803.000000	0.454552
1804.000000	0.454787
1805.000000	0.454443
1806.000000	0.454543
1807.000000	0.455955
1808.000000	0.456364
1809.000000	0.455841
1810.000000	0.455874
1811.000000	0.455636
1812.000000	0.455040
1813.000000	0.454686
1814.000000	0.454486
1815.000000	0.454360
1816.000000	0.454589
1817.000000	0.454241
1818.000000	0.453972
1819.000000	0.453146
1820.000000	0.452841
1821.000000	0.452110
1822.000000	0.451934
1823.000000	0.452303
1824.000000	0.452199
1825.000000	0.452035
1826.000000	0.451967
1827.000000	0.451592
1828.000000	0.451230
1829.000000	0.451424
1830.000000	0.451537
1831.000000	0.451492
1832.000000	0.451613
1833.000000	0.451270
1834.000000	0.450456
1835.000000	0.449940
1836.000000	0.449298
1837.000000	0.448799
1838.000000	0.448000
1839.000000	0.447527
1840.000000	0.447563
1841.000000	0.447525
1842.000000	0.447540
1843.000000	0.448162
1844.000000	0.448016
1845.000000	0.447097
1846.000000	0.446819
1847.000000	0.446767
1848.000000	0.445825
1849.000000	0.445485
1850.000000	0.444546
1851.000000	0.443675
1852.000000	0.442563
1853.000000	0.441409
1854.000000	0.439899
1855.000000	0.438605
1856.000000	0.436593
1857.000000	0.435640
1858.000000	0.435507
1859.000000	0.434215
1860.000000	0.433716
1861.000000	0.432370
1862.000000	0.430360
1863.000000	0.427270
1864.000000	0.425427
1865.000000	0.423933
1866.000000	0.421676
1867.000000	0.419737
1868.000000	0.417346
1869.000000	0.413561
1870.000000	0.409704
1871.000000	0.406326
1872.000000	0.402636
1873.000000	0.398970
1874.000000	0.395277
1875.000000	0.391539
1876.000000	0.387369
1877.000000	0.383314
1878.000000	0.379129
1879.000000	0.373974
1880.000000	0.368933
1881.000000	0.363234
1882.000000	0.356522
1883.000000	0.349838
1884.000000	0.343072
1885.000000	0.335221
1886.000000	0.328027
1887.000000	0.321106
1888.000000	0.313863
1889.000000	0.306695
1890.000000	0.300150
1891.000000	0.293226
1892.000000	0.285942
1893.000000	0.278723
1894.000000	0.271964
1895.000000	0.265562
1896.000000	0.259534
1897.000000	0.254180
1898.000000	0.249100
1899.000000	0.243854
1900.000000	0.239019
1901.000000	0.235098
1902.000000	0.232098
1903.000000	0.229642
1904.000000	0.227981
1905.000000	0.226439
1906.000000	0.224974
1907.000000	0.223582
1908.000000	0.223132
1909.000000	0.222428
1910.000000	0.221641
1911.000000	0.221141
1912.000000	0.220544
1913.000000	0.220650
1914.000000	0.220746
1915.000000	0.221441
1916.000000	0.222838
1917.000000	0.223373
1918.000000	0.223495
1919.000000	0.223969
1920.000000	0.223917
1921.000000	0.223349
1922.000000	0.223868
1923.000000	0.224681
1924.000000	0.225693
1925.000000	0.227285
1926.000000	0.228480
1927.000000	0.229442
1928.000000	0.230329
1929.000000	0.231329
1930.000000	0.231745
1931.000000	0.232501
1932.000000	0.233774
1933.000000	0.234715
1934.000000	0.235656
1935.000000	0.236411
1936.000000	0.236868
1937.000000	0.237792
1938.000000	0.238803
1939.000000	0.239589
1940.000000	0.240369
1941.000000	0.241003
1942.000000	0.241219
1943.000000	0.241308
1944.000000	0.241347
1945.000000	0.241172
1946.000000	0.241226
1947.000000	0.241602
1948.000000	0.241768
1949.000000	0.242122
1950.000000	0.242584
1951.000000	0.242695
1952.000000	0.242553
1953.000000	0.242627
1954.000000	0.242610
1955.000000	0.242072
1956.000000	0.242097
1957.000000	0.242410
1958.000000	0.242493
1959.000000	0.243594
1960.000000	0.244832
1961.000000	0.245539
1962.000000	0.246268
1963.000000	0.247240
1964.000000	0.247867
1965.000000	0.247777
1966.000000	0.247988
1967.000000	0.248794
1968.000000	0.249154
1969.000000	0.249334
1970.000000	0.249832
1971.000000	0.249792
1972.000000	0.249827
1973.000000	0.250183
1974.000000	0.250967
1975.000000	0.251663
1976.000000	0.252643
1977.000000	0.253712
1978.000000	0.253963
1979.000000	0.255099
1980.000000	0.255713
1981.000000	0.256057
1982.000000	0.257393
1983.000000	0.258485
1984.000000	0.259280
1985.000000	0.260105
1986.000000	0.260674
1987.000000	0.260695
1988.000000	0.261430
1989.000000	0.262158
1990.000000	0.263436
1991.000000	0.264746
1992.000000	0.265335
1993.000000	0.266718
1994.000000	0.268294
1995.000000	0.269583
1996.000000	0.271043
1997.000000	0.272104
1998.000000	0.272400
1999.000000	0.273040
2000.000000	0.273617
2001.000000	0.274574
2002.000000	0.275480
2003.000000	0.276903
2004.000000	0.278271
2005.000000	0.279645
2006.000000	0.281143
2007.000000	0.282533
2008.000000	0.283917
2009.000000	0.285283
2010.000000	0.286701
2011.000000	0.287919
2012.000000	0.289350
2013.000000	0.291006
2014.000000	0.292284
2015.000000	0.293644
2016.000000	0.294706
2017.000000	0.295967
2018.000000	0.297561
2019.000000	0.298955
2020.000000	0.300466
2021.000000	0.301704
2022.000000	0.302479
2023.000000	0.303414
2024.000000	0.304425
2025.000000	0.305417
2026.000000	0.306131
2027.000000	0.307034
2028.000000	0.308053
2029.000000	0.308972
2030.000000	0.310038
2031.000000	0.311259
2032.000000	0.312521
2033.000000	0.313683
2034.000000	0.314711
2035.000000	0.315674
2036.000000	0.316430
2037.000000	0.317046
2038.000000	0.318030
2039.000000	0.318997
2040.000000	0.320628
2041.000000	0.321900
2042.000000	0.322960
2043.000000	0.323873
2044.000000	0.324111
2045.000000	0.324383
2046.000000	0.324720
2047.000000	0.325284
2048.000000	0.325696
2049.000000	0.326615
2050.000000	0.327621
2051.000000	0.328571
2052.000000	0.329671
2053.000000	0.330519
2054.000000	0.331433
2055.000000	0.332699
2056.000000	0.333698
2057.000000	0.334461
2058.000000	0.335352
2059.000000	0.336596
2060.000000	0.337736
2061.000000	0.339244
2062.000000	0.339983
2063.000000	0.340558
2064.000000	0.340545
2065.000000	0.339698
2066.000000	0.339657
2067.000000	0.339900
2068.000000	0.340445
2069.000000	0.341738
2070.000000	0.343028
2071.000000	0.343820
2072.000000	0.344791
2073.000000	0.344888
2074.000000	0.344808
2075.000000	0.345172
2076.000000	0.345437
2077.000000	0.345868
2078.000000	0.346768
2079.000000	0.347347
2080.000000	0.347733
2081.000000	0.348515
2082.000000	0.349727
2083.000000	0.350497
2084.000000	0.350894
2085.000000	0.351602
2086.000000	0.352124
2087.000000	0.352771
2088.000000	0.353962
2089.000000	0.354792
2090.000000	0.355797
2091.000000	0.356778
2092.000000	0.357964
2093.000000	0.359809
2094.000000	0.360737
2095.000000	0.361384
2096.000000	0.361804
2097.000000	0.361410
2098.000000	0.361145
2099.000000	0.361207
2100.000000	0.361369
2101.000000	0.361916
2102.000000	0.362664
2103.000000	0.364303
2104.000000	0.365655
2105.000000	0.366627
2106.000000	0.367751
2107.000000	0.368333
2108.000000	0.368070
2109.000000	0.368344
2110.000000	0.367985
2111.000000	0.368436
2112.000000	0.369446
2113.000000	0.369990
2114.000000	0.370618
2115.000000	0.371958
2116.000000	0.372249
2117.000000	0.371967
2118.000000	0.372262
2119.000000	0.372258
2120.000000	0.372353
2121.000000	0.372582
2122.000000	0.372876
2123.000000	0.372831
2124.000000	0.373250
2125.000000	0.374305
2126.000000	0.374815
2127.000000	0.375440
2128.000000	0.376114
2129.000000	0.376756
2130.000000	0.376716
2131.000000	0.376575
2132.000000	0.375914
2133.000000	0.375540
2134.000000	0.375764
2135.000000	0.376421
2136.000000	0.378139
2137.000000	0.379376
2138.000000	0.381030
2139.000000	0.381836
2140.000000	0.382300
2141.000000	0.382589
2142.000000	0.382020
2143.000000	0.381782
2144.000000	0.382084
2145.000000	0.382030
2146.000000	0.381589
2147.000000	0.382191
2148.000000	0.382320
2149.000000	0.382272
2150.000000	0.382872
2151.000000	0.382921
2152.000000	0.382625
2153.000000	0.382234
2154.000000	0.381755
2155.000000	0.380699
2156.000000	0.380482
2157.000000	0.380843
2158.000000	0.380965
2159.000000	0.381523
2160.000000	0.381785
2161.000000	0.381538
2162.000000	0.381728
2163.000000	0.382172
2164.000000	0.382340
2165.000000	0.382542
2166.000000	0.382610
2167.000000	0.382732
2168.000000	0.382581
2169.000000	0.382885
2170.000000	0.383653
2171.000000	0.383954
2172.000000	0.384449
2173.000000	0.384501
2174.000000	0.383830
2175.000000	0.383495
2176.000000	0.382966
2177.000000	0.382964
2178.000000	0.383655
2179.000000	0.384140
2180.000000	0.384305
2181.000000	0.385280
2182.000000	0.386341
2183.000000	0.386564
2184.000000	0.387074
2185.000000	0.387405
2186.000000	0.384721
2187.000000	0.383028
2188.000000	0.381872
2189.000000	0.379198
2190.000000	0.378324
2191.000000	0.379003
2192.000000	0.378910
2193.000000	0.379049
2194.000000	0.378907
2195.000000	0.378898
2196.000000	0.378267
2197.000000	0.376769
2198.000000	0.376321
2199.000000	0.375472
2200.000000	0.375841
2201.000000	0.378582
2202.000000	0.379765
2203.000000	0.380481
2204.000000	0.381600
2205.000000	0.380790
2206.000000	0.380122
2207.000000	0.380028
2208.000000	0.378438
2209.000000	0.376441
2210.000000	0.373723
2211.000000	0.371840
2212.000000	0.371946
2213.000000	0.372977
2214.000000	0.377134
2215.000000	0.378929
2216.000000	0.381033
2217.000000	0.380701
2218.000000	0.377400
2219.000000	0.376322
2220.000000	0.375431
2221.000000	0.375716
2222.000000	0.377936
2223.000000	0.378267
2224.000000	0.379301
2225.000000	0.376008
2226.000000	0.374157
2227.000000	0.375171
2228.000000	0.374680
2229.000000	0.375851
2230.000000	0.378072
2231.000000	0.378249
2232.000000	0.378080
2233.000000	0.378145
2234.000000	0.375914
2235.000000	0.373693
2236.000000	0.371469
2237.000000	0.368813
2238.000000	0.366729
2239.000000	0.363899
2240.000000	0.363493
2241.000000	0.364923
2242.000000	0.365489
2243.000000	0.366864
2244.000000	0.368209
2245.000000	0.369697
2246.000000	0.370844
2247.000000	0.372526
2248.000000	0.373501
2249.000000	0.373332
2250.000000	0.373217
2251.000000	0.374719
2252.000000	0.375614
2253.000000	0.375011
2254.000000	0.373393
2255.000000	0.370724
2256.000000	0.368875
2257.000000	0.367055
2258.000000	0.364717
2259.000000	0.363721
2260.000000	0.362655
2261.000000	0.361720
2262.000000	0.362266
2263.000000	0.362435
2264.000000	0.361609
2265.000000	0.361800
2266.000000	0.363262
2267.000000	0.362713
2268.000000	0.361789
2269.000000	0.360839
2270.000000	0.358435
2271.000000	0.357529
2272.000000	0.358365
2273.000000	0.356838
2274.000000	0.354868
2275.000000	0.352176
2276.000000	0.347620
2277.000000	0.343415
2278.000000	0.338881
2279.000000	0.335654
2280.000000	0.333879
2281.000000	0.331056
2282.000000	0.331584
2283.000000	0.332235
2284.000000	0.330976
2285.000000	0.331115
2286.000000	0.329363
2287.000000	0.325711
2288.000000	0.322396
2289.000000	0.318615
2290.000000	0.314996
2291.000000	0.312199
2292.000000	0.309995
2293.000000	0.308318
2294.000000	0.306153
2295.000000	0.303675
2296.000000	0.301444
2297.000000	0.298390
2298.000000	0.296970
2299.000000	0.297133
2300.000000	0.296581
2301.000000	0.297401
2302.000000	0.296168
2303.000000	0.293309
2304.000000	0.290808
2305.000000	0.287060
2306.000000	0.284112
2307.000000	0.281876
2308.000000	0.278562
2309.000000	0.275421
2310.000000	0.273924
2311.000000	0.273576
2312.000000	0.272846
2313.000000	0.271467
2314.000000	0.271171
2315.000000	0.270520
2316.000000	0.271284
2317.000000	0.274118
2318.000000	0.276154
2319.000000	0.278636
2320.000000	0.279044
2321.000000	0.280572
2322.000000	0.283269
2323.000000	0.284569
2324.000000	0.291343
2325.000000	0.297492
2326.000000	0.300584
2327.000000	0.304921
2328.000000	0.305549
2329.000000	0.304769
2330.000000	0.307638
2331.000000	0.308865
2332.000000	0.306675
2333.000000	0.305906
2334.000000	0.302724
2335.000000	0.301153
2336.000000	0.300134
2337.000000	0.300405
2338.000000	0.302620
2339.000000	0.301654
2340.000000	0.298655
2341.000000	0.297344
2342.000000	0.294928
2343.000000	0.294217
2344.000000	0.296816
2345.000000	0.297156
2346.000000	0.294968
2347.000000	0.294531
2348.000000	0.295216
2349.000000	0.294654
2350.000000	0.294448
2351.000000	0.294662
2352.000000	0.291262
2353.000000	0.289805
2354.000000	0.288508
2355.000000	0.288686
2356.000000	0.291207
2357.000000	0.289669
2358.000000	0.286736
2359.000000	0.285740
2360.000000	0.284676
2361.000000	0.283036
2362.000000	0.282716
2363.000000	0.279651
2364.000000	0.272748
2365.000000	0.273223
2366.000000	0.276145
2367.000000	0.276330
2368.000000	0.279773
2369.000000	0.280921
2370.000000	0.279039
2371.000000	0.277484
2372.000000	0.274178
2373.000000	0.271442
2374.000000	0.270148
2375.000000	0.269427
2376.000000	0.270561
2377.000000	0.271190
2378.000000	0.267413
2379.000000	0.263040
2380.000000	0.261780
2381.000000	0.257071
2382.000000	0.251731
2383.000000	0.252568
2384.000000	0.251009
2385.000000	0.249878
2386.000000	0.249856
2387.000000	0.245274
2388.000000	0.242891
2389.000000	0.242651
2390.000000	0.242969
2391.000000	0.244709
2392.000000	0.244518
2393.000000	0.239559
2394.000000	0.238672
2395.000000	0.239897
2396.000000	0.240972
2397.000000	0.248533
2398.000000	0.250868
2399.000000	0.253732
2400.000000	0.259455
2401.000000	0.261753
2402.000000	0.268910
2403.000000	0.276172
2404.000000	0.278273
2405.000000	0.274940
2406.000000	0.266445
2407.000000	0.254887
2408.000000	0.244426
2409.000000	0.239228
2410.000000	0.239843
2411.000000	0.241295
2412.000000	0.243782
2413.000000	0.245046
2414.000000	0.241096
2415.000000	0.239606
2416.000000	0.241731
2417.000000	0.247401
2418.000000	0.246896
2419.000000	0.240144
2420.000000	0.240987
2421.000000	0.234286
2422.000000	0.228376
2423.000000	0.240899
2424.000000	0.239087
2425.000000	0.233739
2426.000000	0.237982
2427.000000	0.226490
2428.000000	0.224795
2429.000000	0.230492
2430.000000	0.232680
2431.000000	0.241201
2432.000000	0.244601
2433.000000	0.241115
2434.000000	0.236350
2435.000000	0.226789
2436.000000	0.219121
2437.000000	0.219070
2438.000000	0.215187
2439.000000	0.215650
2440.000000	0.211547
2441.000000	0.207021
2442.000000	0.214562
2443.000000	0.224016
2444.000000	0.240852
2445.000000	0.245833
2446.000000	0.245566
2447.000000	0.236763
2448.000000	0.210896
2449.000000	0.197533
2450.000000	0.178449
2451.000000	0.171944
2452.000000	0.191874
2453.000000	0.204991
2454.000000	0.227839
2455.000000	0.243007
2456.000000	0.235285
2457.000000	0.227148
2458.000000	0.217870
2459.000000	0.208028
2460.000000	0.207759
2461.000000	0.220980
2462.000000	0.222090
2463.000000	0.225711
2464.000000	0.240962
2465.000000	0.246945
2466.000000	0.264825
2467.000000	0.276628
2468.000000	0.267648
2469.000000	0.247941
2470.000000	0.227450
2471.000000	0.210311
2472.000000	0.206533
2473.000000	0.226744
2474.000000	0.222695
2475.000000	0.205331
2476.000000	0.208063
2477.000000	0.189595
2478.000000	0.191088
2479.000000	0.228375
2480.000000	0.240060
2481.000000	0.233154
2482.000000	0.235163
2483.000000	0.222793
2484.000000	0.173782
2485.000000	0.175877
2486.000000	0.189361
2487.000000	0.192302
2488.000000	0.241932
2489.000000	0.217906
2490.000000	0.175452
2491.000000	0.125271
2492.000000	0.115118
2493.000000	0.168334
2494.000000	0.198592
2495.000000	0.240095
2496.000000	0.260083
2497.000000	0.266426
2498.000000	0.276644
2499.000000	0.282159
2500.000000	0.282687
