# Wavelength	SM1200H-30_HEX-60_FV7-10_00002.asd.rts.txt
350.000000	0.420653
351.000000	0.420814
352.000000	0.420194
353.000000	0.418027
354.000000	0.417520
355.000000	0.411771
356.000000	0.417895
357.000000	0.430417
358.000000	0.420479
359.000000	0.416179
360.000000	0.418912
361.000000	0.422979
362.000000	0.431976
363.000000	0.431835
364.000000	0.419154
365.000000	0.421518
366.000000	0.424653
367.000000	0.423687
368.000000	0.422460
369.000000	0.430583
370.000000	0.438820
371.000000	0.434846
372.000000	0.430061
373.000000	0.431843
374.000000	0.440949
375.000000	0.439472
376.000000	0.438102
377.000000	0.438785
378.000000	0.435870
379.000000	0.434646
380.000000	0.435465
381.000000	0.438144
382.000000	0.437425
383.000000	0.435782
384.000000	0.436013
385.000000	0.437512
386.000000	0.440320
387.000000	0.443344
388.000000	0.443307
389.000000	0.443237
390.000000	0.443882
391.000000	0.444541
392.000000	0.443339
393.000000	0.442061
394.000000	0.442384
395.000000	0.444443
396.000000	0.445730
397.000000	0.445734
398.000000	0.446800
399.000000	0.447006
400.000000	0.446639
401.000000	0.446614
402.000000	0.447554
403.000000	0.448460
404.000000	0.448701
405.000000	0.448871
406.000000	0.449700
407.000000	0.451025
408.000000	0.450874
409.000000	0.450934
410.000000	0.451362
411.000000	0.451436
412.000000	0.451721
413.000000	0.452442
414.000000	0.453563
415.000000	0.453766
416.000000	0.453926
417.000000	0.454461
418.000000	0.454325
419.000000	0.454763
420.000000	0.455739
421.000000	0.456134
422.000000	0.456761
423.000000	0.456938
424.000000	0.456060
425.000000	0.456992
426.000000	0.458132
427.000000	0.458163
428.000000	0.458469
429.000000	0.459167
430.000000	0.459984
431.000000	0.459982
432.000000	0.460640
433.000000	0.461396
434.000000	0.461046
435.000000	0.461115
436.000000	0.461431
437.000000	0.461599
438.000000	0.462080
439.000000	0.462456
440.000000	0.462681
441.000000	0.462806
442.000000	0.463227
443.000000	0.463703
444.000000	0.463825
445.000000	0.464176
446.000000	0.464756
447.000000	0.465106
448.000000	0.465624
449.000000	0.466027
450.000000	0.466205
451.000000	0.466632
452.000000	0.466988
453.000000	0.467069
454.000000	0.467187
455.000000	0.467466
456.000000	0.467979
457.000000	0.468430
458.000000	0.469146
459.000000	0.469768
460.000000	0.470056
461.000000	0.470213
462.000000	0.470419
463.000000	0.470539
464.000000	0.470918
465.000000	0.471115
466.000000	0.471081
467.000000	0.471272
468.000000	0.471621
469.000000	0.471871
470.000000	0.472084
471.000000	0.472479
472.000000	0.472670
473.000000	0.472617
474.000000	0.473133
475.000000	0.473533
476.000000	0.473829
477.000000	0.474094
478.000000	0.474325
479.000000	0.474648
480.000000	0.474618
481.000000	0.474960
482.000000	0.475414
483.000000	0.475367
484.000000	0.475863
485.000000	0.476102
486.000000	0.476092
487.000000	0.476266
488.000000	0.476596
489.000000	0.477061
490.000000	0.477565
491.000000	0.477874
492.000000	0.478224
493.000000	0.478659
494.000000	0.478909
495.000000	0.479263
496.000000	0.479762
497.000000	0.479926
498.000000	0.480157
499.000000	0.480652
500.000000	0.481024
501.000000	0.481317
502.000000	0.481637
503.000000	0.481966
504.000000	0.482197
505.000000	0.482499
506.000000	0.482980
507.000000	0.483148
508.000000	0.483378
509.000000	0.483799
510.000000	0.484263
511.000000	0.484617
512.000000	0.484905
513.000000	0.485234
514.000000	0.485638
515.000000	0.486078
516.000000	0.486372
517.000000	0.486602
518.000000	0.486919
519.000000	0.487267
520.000000	0.487632
521.000000	0.488030
522.000000	0.488437
523.000000	0.488720
524.000000	0.489056
525.000000	0.489378
526.000000	0.489585
527.000000	0.489857
528.000000	0.490110
529.000000	0.490330
530.000000	0.490597
531.000000	0.490924
532.000000	0.491174
533.000000	0.491498
534.000000	0.491846
535.000000	0.492164
536.000000	0.492456
537.000000	0.492731
538.000000	0.493017
539.000000	0.493329
540.000000	0.493714
541.000000	0.494048
542.000000	0.494303
543.000000	0.494635
544.000000	0.495020
545.000000	0.495324
546.000000	0.495646
547.000000	0.495971
548.000000	0.496346
549.000000	0.496691
550.000000	0.497075
551.000000	0.497530
552.000000	0.497960
553.000000	0.498233
554.000000	0.498522
555.000000	0.498948
556.000000	0.499346
557.000000	0.499634
558.000000	0.500009
559.000000	0.500376
560.000000	0.500651
561.000000	0.500971
562.000000	0.501311
563.000000	0.501672
564.000000	0.502066
565.000000	0.502330
566.000000	0.502675
567.000000	0.503010
568.000000	0.503269
569.000000	0.503621
570.000000	0.503985
571.000000	0.504296
572.000000	0.504537
573.000000	0.504833
574.000000	0.505159
575.000000	0.505538
576.000000	0.505892
577.000000	0.506192
578.000000	0.506533
579.000000	0.506873
580.000000	0.507140
581.000000	0.507351
582.000000	0.507690
583.000000	0.507914
584.000000	0.508116
585.000000	0.508573
586.000000	0.508846
587.000000	0.509025
588.000000	0.509307
589.000000	0.509660
590.000000	0.510008
591.000000	0.510300
592.000000	0.510558
593.000000	0.510843
594.000000	0.511147
595.000000	0.511397
596.000000	0.511606
597.000000	0.511875
598.000000	0.512155
599.000000	0.512358
600.000000	0.512587
601.000000	0.512815
602.000000	0.513126
603.000000	0.513379
604.000000	0.513538
605.000000	0.513692
606.000000	0.513772
607.000000	0.513851
608.000000	0.514082
609.000000	0.514284
610.000000	0.514428
611.000000	0.514531
612.000000	0.514665
613.000000	0.514845
614.000000	0.515105
615.000000	0.515296
616.000000	0.515445
617.000000	0.515571
618.000000	0.515896
619.000000	0.516126
620.000000	0.516206
621.000000	0.516290
622.000000	0.516510
623.000000	0.516674
624.000000	0.516662
625.000000	0.516835
626.000000	0.517030
627.000000	0.517170
628.000000	0.517314
629.000000	0.517671
630.000000	0.517981
631.000000	0.518220
632.000000	0.518325
633.000000	0.518454
634.000000	0.518711
635.000000	0.518848
636.000000	0.518976
637.000000	0.519122
638.000000	0.519203
639.000000	0.519272
640.000000	0.519439
641.000000	0.519585
642.000000	0.519679
643.000000	0.519760
644.000000	0.519901
645.000000	0.520100
646.000000	0.520256
647.000000	0.520288
648.000000	0.520441
649.000000	0.520585
650.000000	0.520660
651.000000	0.520801
652.000000	0.520949
653.000000	0.521154
654.000000	0.521357
655.000000	0.521522
656.000000	0.521703
657.000000	0.521861
658.000000	0.522036
659.000000	0.522184
660.000000	0.522272
661.000000	0.522385
662.000000	0.522451
663.000000	0.522582
664.000000	0.522811
665.000000	0.522985
666.000000	0.523173
667.000000	0.523405
668.000000	0.523560
669.000000	0.523701
670.000000	0.523877
671.000000	0.524051
672.000000	0.524210
673.000000	0.524368
674.000000	0.524601
675.000000	0.524812
676.000000	0.524968
677.000000	0.525094
678.000000	0.525216
679.000000	0.525331
680.000000	0.525451
681.000000	0.525560
682.000000	0.525723
683.000000	0.525858
684.000000	0.526130
685.000000	0.526389
686.000000	0.526619
687.000000	0.526758
688.000000	0.526869
689.000000	0.527000
690.000000	0.527206
691.000000	0.527336
692.000000	0.527398
693.000000	0.527531
694.000000	0.527730
695.000000	0.527963
696.000000	0.528123
697.000000	0.528104
698.000000	0.528216
699.000000	0.528416
700.000000	0.528624
701.000000	0.528755
702.000000	0.528934
703.000000	0.529137
704.000000	0.529211
705.000000	0.529451
706.000000	0.529696
707.000000	0.529772
708.000000	0.529878
709.000000	0.529984
710.000000	0.530083
711.000000	0.530203
712.000000	0.530347
713.000000	0.530520
714.000000	0.530617
715.000000	0.530775
716.000000	0.530998
717.000000	0.531182
718.000000	0.531296
719.000000	0.531352
720.000000	0.531417
721.000000	0.531604
722.000000	0.531749
723.000000	0.531907
724.000000	0.532118
725.000000	0.532184
726.000000	0.532263
727.000000	0.532371
728.000000	0.532458
729.000000	0.532549
730.000000	0.532590
731.000000	0.532687
732.000000	0.532781
733.000000	0.532901
734.000000	0.532979
735.000000	0.533076
736.000000	0.533339
737.000000	0.533492
738.000000	0.533449
739.000000	0.533514
740.000000	0.533594
741.000000	0.533595
742.000000	0.533682
743.000000	0.533827
744.000000	0.533944
745.000000	0.533973
746.000000	0.534018
747.000000	0.534057
748.000000	0.534109
749.000000	0.534255
750.000000	0.534455
751.000000	0.534597
752.000000	0.534662
753.000000	0.534696
754.000000	0.534762
755.000000	0.534865
756.000000	0.534992
757.000000	0.535048
758.000000	0.535124
759.000000	0.535233
760.000000	0.535263
761.000000	0.535343
762.000000	0.535361
763.000000	0.535374
764.000000	0.535665
765.000000	0.535723
766.000000	0.535737
767.000000	0.535921
768.000000	0.535980
769.000000	0.536043
770.000000	0.536143
771.000000	0.536131
772.000000	0.536251
773.000000	0.536345
774.000000	0.536349
775.000000	0.536447
776.000000	0.536498
777.000000	0.536410
778.000000	0.536505
779.000000	0.536611
780.000000	0.536692
781.000000	0.536788
782.000000	0.536882
783.000000	0.537054
784.000000	0.537093
785.000000	0.537120
786.000000	0.537160
787.000000	0.537190
788.000000	0.537120
789.000000	0.537085
790.000000	0.537132
791.000000	0.537327
792.000000	0.537421
793.000000	0.537430
794.000000	0.537431
795.000000	0.537501
796.000000	0.537544
797.000000	0.537506
798.000000	0.537401
799.000000	0.537393
800.000000	0.537429
801.000000	0.537419
802.000000	0.537487
803.000000	0.537519
804.000000	0.537534
805.000000	0.537614
806.000000	0.537571
807.000000	0.537567
808.000000	0.537653
809.000000	0.537703
810.000000	0.537757
811.000000	0.537832
812.000000	0.537902
813.000000	0.537878
814.000000	0.537799
815.000000	0.537859
816.000000	0.537778
817.000000	0.537717
818.000000	0.537713
819.000000	0.537579
820.000000	0.537502
821.000000	0.537500
822.000000	0.537607
823.000000	0.537661
824.000000	0.537643
825.000000	0.537780
826.000000	0.537821
827.000000	0.537682
828.000000	0.537494
829.000000	0.537546
830.000000	0.537446
831.000000	0.537294
832.000000	0.537157
833.000000	0.537098
834.000000	0.537097
835.000000	0.537158
836.000000	0.537160
837.000000	0.537126
838.000000	0.537141
839.000000	0.537252
840.000000	0.537175
841.000000	0.537001
842.000000	0.536822
843.000000	0.536739
844.000000	0.536691
845.000000	0.536649
846.000000	0.536757
847.000000	0.536752
848.000000	0.536611
849.000000	0.536468
850.000000	0.536424
851.000000	0.536339
852.000000	0.536256
853.000000	0.536291
854.000000	0.536259
855.000000	0.536251
856.000000	0.536128
857.000000	0.536054
858.000000	0.536079
859.000000	0.536038
860.000000	0.535843
861.000000	0.535765
862.000000	0.535868
863.000000	0.535957
864.000000	0.535859
865.000000	0.535728
866.000000	0.535708
867.000000	0.535727
868.000000	0.535772
869.000000	0.535705
870.000000	0.535565
871.000000	0.535402
872.000000	0.535271
873.000000	0.535102
874.000000	0.534966
875.000000	0.534682
876.000000	0.534381
877.000000	0.534199
878.000000	0.534212
879.000000	0.534291
880.000000	0.534114
881.000000	0.533895
882.000000	0.533795
883.000000	0.533701
884.000000	0.533320
885.000000	0.533120
886.000000	0.532956
887.000000	0.532810
888.000000	0.532857
889.000000	0.532901
890.000000	0.532764
891.000000	0.532673
892.000000	0.532462
893.000000	0.532300
894.000000	0.532372
895.000000	0.532141
896.000000	0.531850
897.000000	0.531592
898.000000	0.531419
899.000000	0.531361
900.000000	0.531284
901.000000	0.531092
902.000000	0.530987
903.000000	0.530849
904.000000	0.530760
905.000000	0.530636
906.000000	0.530496
907.000000	0.530349
908.000000	0.530242
909.000000	0.529956
910.000000	0.529718
911.000000	0.529446
912.000000	0.529121
913.000000	0.529029
914.000000	0.528993
915.000000	0.528931
916.000000	0.528585
917.000000	0.528428
918.000000	0.528363
919.000000	0.528234
920.000000	0.528149
921.000000	0.528091
922.000000	0.527913
923.000000	0.527423
924.000000	0.527146
925.000000	0.526875
926.000000	0.526580
927.000000	0.526486
928.000000	0.526423
929.000000	0.526204
930.000000	0.525757
931.000000	0.525571
932.000000	0.525338
933.000000	0.525045
934.000000	0.524857
935.000000	0.524603
936.000000	0.524438
937.000000	0.524280
938.000000	0.523892
939.000000	0.523611
940.000000	0.523358
941.000000	0.523078
942.000000	0.522713
943.000000	0.522406
944.000000	0.522042
945.000000	0.521749
946.000000	0.521276
947.000000	0.520933
948.000000	0.520915
949.000000	0.520604
950.000000	0.520455
951.000000	0.520433
952.000000	0.520228
953.000000	0.520060
954.000000	0.519936
955.000000	0.519713
956.000000	0.519490
957.000000	0.519104
958.000000	0.518756
959.000000	0.518871
960.000000	0.518610
961.000000	0.518154
962.000000	0.517684
963.000000	0.517390
964.000000	0.517184
965.000000	0.516976
966.000000	0.516559
967.000000	0.516294
968.000000	0.516049
969.000000	0.515751
970.000000	0.515562
971.000000	0.515338
972.000000	0.515069
973.000000	0.514677
974.000000	0.514336
975.000000	0.514328
976.000000	0.514235
977.000000	0.513800
978.000000	0.513737
979.000000	0.513851
980.000000	0.513710
981.000000	0.513632
982.000000	0.513467
983.000000	0.513209
984.000000	0.512970
985.000000	0.512713
986.000000	0.512430
987.000000	0.512294
988.000000	0.512147
989.000000	0.511756
990.000000	0.511543
991.000000	0.511560
992.000000	0.511720
993.000000	0.511591
994.000000	0.511327
995.000000	0.511307
996.000000	0.511327
997.000000	0.511309
998.000000	0.511326
999.000000	0.511504
1000.000000	0.511574
1001.000000	0.511794
1002.000000	0.511335
1003.000000	0.511274
1004.000000	0.511287
1005.000000	0.511830
1006.000000	0.511569
1007.000000	0.511141
1008.000000	0.510453
1009.000000	0.509651
1010.000000	0.509080
1011.000000	0.509314
1012.000000	0.510286
1013.000000	0.510357
1014.000000	0.510260
1015.000000	0.510399
1016.000000	0.509965
1017.000000	0.510068
1018.000000	0.510648
1019.000000	0.510736
1020.000000	0.510520
1021.000000	0.510266
1022.000000	0.510168
1023.000000	0.510325
1024.000000	0.510394
1025.000000	0.510665
1026.000000	0.510501
1027.000000	0.510072
1028.000000	0.509896
1029.000000	0.510091
1030.000000	0.510275
1031.000000	0.510496
1032.000000	0.510550
1033.000000	0.510288
1034.000000	0.510286
1035.000000	0.510490
1036.000000	0.510672
1037.000000	0.511100
1038.000000	0.510972
1039.000000	0.510633
1040.000000	0.510497
1041.000000	0.510836
1042.000000	0.511263
1043.000000	0.511706
1044.000000	0.512408
1045.000000	0.512330
1046.000000	0.511692
1047.000000	0.511824
1048.000000	0.512363
1049.000000	0.512354
1050.000000	0.512620
1051.000000	0.512565
1052.000000	0.511781
1053.000000	0.511271
1054.000000	0.510653
1055.000000	0.510819
1056.000000	0.511226
1057.000000	0.512519
1058.000000	0.513711
1059.000000	0.513929
1060.000000	0.513495
1061.000000	0.513195
1062.000000	0.513002
1063.000000	0.513552
1064.000000	0.513856
1065.000000	0.514299
1066.000000	0.514536
1067.000000	0.514493
1068.000000	0.514687
1069.000000	0.514998
1070.000000	0.515292
1071.000000	0.515846
1072.000000	0.516107
1073.000000	0.516339
1074.000000	0.516505
1075.000000	0.516283
1076.000000	0.516292
1077.000000	0.516416
1078.000000	0.516600
1079.000000	0.516652
1080.000000	0.516791
1081.000000	0.516984
1082.000000	0.517211
1083.000000	0.517396
1084.000000	0.517883
1085.000000	0.518133
1086.000000	0.518142
1087.000000	0.518231
1088.000000	0.518082
1089.000000	0.518030
1090.000000	0.517987
1091.000000	0.517845
1092.000000	0.517530
1093.000000	0.517957
1094.000000	0.518218
1095.000000	0.518343
1096.000000	0.518853
1097.000000	0.519933
1098.000000	0.520324
1099.000000	0.520543
1100.000000	0.520735
1101.000000	0.520379
1102.000000	0.520277
1103.000000	0.520166
1104.000000	0.520332
1105.000000	0.520907
1106.000000	0.520971
1107.000000	0.520422
1108.000000	0.520535
1109.000000	0.520810
1110.000000	0.521158
1111.000000	0.521426
1112.000000	0.522344
1113.000000	0.522684
1114.000000	0.522446
1115.000000	0.522547
1116.000000	0.522870
1117.000000	0.523036
1118.000000	0.523185
1119.000000	0.523040
1120.000000	0.522480
1121.000000	0.522463
1122.000000	0.522658
1123.000000	0.523097
1124.000000	0.523929
1125.000000	0.524309
1126.000000	0.524041
1127.000000	0.524019
1128.000000	0.524000
1129.000000	0.523978
1130.000000	0.523956
1131.000000	0.524172
1132.000000	0.523989
1133.000000	0.523525
1134.000000	0.523426
1135.000000	0.523318
1136.000000	0.523148
1137.000000	0.523190
1138.000000	0.522951
1139.000000	0.522449
1140.000000	0.522375
1141.000000	0.522432
1142.000000	0.522393
1143.000000	0.522355
1144.000000	0.522515
1145.000000	0.522504
1146.000000	0.522271
1147.000000	0.521997
1148.000000	0.521514
1149.000000	0.521263
1150.000000	0.520899
1151.000000	0.520798
1152.000000	0.520943
1153.000000	0.520930
1154.000000	0.520917
1155.000000	0.520718
1156.000000	0.520312
1157.000000	0.520117
1158.000000	0.519849
1159.000000	0.519602
1160.000000	0.519488
1161.000000	0.519311
1162.000000	0.519238
1163.000000	0.519083
1164.000000	0.518905
1165.000000	0.518931
1166.000000	0.518934
1167.000000	0.518894
1168.000000	0.518845
1169.000000	0.518924
1170.000000	0.518881
1171.000000	0.518890
1172.000000	0.518806
1173.000000	0.518456
1174.000000	0.518351
1175.000000	0.518236
1176.000000	0.518115
1177.000000	0.518342
1178.000000	0.518384
1179.000000	0.518323
1180.000000	0.518153
1181.000000	0.518091
1182.000000	0.517768
1183.000000	0.517693
1184.000000	0.517793
1185.000000	0.517800
1186.000000	0.517968
1187.000000	0.517894
1188.000000	0.517651
1189.000000	0.517454
1190.000000	0.517268
1191.000000	0.517117
1192.000000	0.517118
1193.000000	0.517194
1194.000000	0.517191
1195.000000	0.517085
1196.000000	0.516766
1197.000000	0.516661
1198.000000	0.516633
1199.000000	0.516551
1200.000000	0.516559
1201.000000	0.516555
1202.000000	0.516384
1203.000000	0.516291
1204.000000	0.516368
1205.000000	0.516450
1206.000000	0.516309
1207.000000	0.516211
1208.000000	0.516110
1209.000000	0.515921
1210.000000	0.515845
1211.000000	0.515904
1212.000000	0.515888
1213.000000	0.515984
1214.000000	0.515947
1215.000000	0.515739
1216.000000	0.515671
1217.000000	0.515485
1218.000000	0.515383
1219.000000	0.515403
1220.000000	0.515626
1221.000000	0.515775
1222.000000	0.515910
1223.000000	0.515967
1224.000000	0.515851
1225.000000	0.515818
1226.000000	0.515733
1227.000000	0.515551
1228.000000	0.515681
1229.000000	0.515585
1230.000000	0.515266
1231.000000	0.515024
1232.000000	0.514947
1233.000000	0.515022
1234.000000	0.515202
1235.000000	0.515215
1236.000000	0.515100
1237.000000	0.515138
1238.000000	0.514964
1239.000000	0.514943
1240.000000	0.515118
1241.000000	0.515295
1242.000000	0.515326
1243.000000	0.515313
1244.000000	0.515273
1245.000000	0.515299
1246.000000	0.515186
1247.000000	0.515178
1248.000000	0.515256
1249.000000	0.515272
1250.000000	0.515276
1251.000000	0.515337
1252.000000	0.515341
1253.000000	0.515286
1254.000000	0.515272
1255.000000	0.515329
1256.000000	0.515329
1257.000000	0.515341
1258.000000	0.515399
1259.000000	0.515376
1260.000000	0.515349
1261.000000	0.515181
1262.000000	0.515101
1263.000000	0.515061
1264.000000	0.514942
1265.000000	0.515070
1266.000000	0.515174
1267.000000	0.515044
1268.000000	0.515004
1269.000000	0.515002
1270.000000	0.514943
1271.000000	0.514873
1272.000000	0.515016
1273.000000	0.515234
1274.000000	0.515325
1275.000000	0.515315
1276.000000	0.515384
1277.000000	0.515473
1278.000000	0.515220
1279.000000	0.515151
1280.000000	0.515191
1281.000000	0.515030
1282.000000	0.514781
1283.000000	0.514822
1284.000000	0.514833
1285.000000	0.514883
1286.000000	0.515106
1287.000000	0.515131
1288.000000	0.515094
1289.000000	0.514985
1290.000000	0.514708
1291.000000	0.514419
1292.000000	0.514232
1293.000000	0.514095
1294.000000	0.513913
1295.000000	0.513871
1296.000000	0.513707
1297.000000	0.513458
1298.000000	0.513461
1299.000000	0.513424
1300.000000	0.513355
1301.000000	0.513281
1302.000000	0.513099
1303.000000	0.512974
1304.000000	0.512809
1305.000000	0.512836
1306.000000	0.512693
1307.000000	0.512502
1308.000000	0.512380
1309.000000	0.512181
1310.000000	0.511972
1311.000000	0.511817
1312.000000	0.511687
1313.000000	0.511614
1314.000000	0.511391
1315.000000	0.511015
1316.000000	0.510810
1317.000000	0.510515
1318.000000	0.510342
1319.000000	0.510169
1320.000000	0.509890
1321.000000	0.509456
1322.000000	0.508899
1323.000000	0.508586
1324.000000	0.508247
1325.000000	0.507708
1326.000000	0.507336
1327.000000	0.506988
1328.000000	0.506746
1329.000000	0.506384
1330.000000	0.506099
1331.000000	0.505754
1332.000000	0.505441
1333.000000	0.504974
1334.000000	0.504555
1335.000000	0.504239
1336.000000	0.503750
1337.000000	0.503381
1338.000000	0.503139
1339.000000	0.502764
1340.000000	0.502322
1341.000000	0.501908
1342.000000	0.501400
1343.000000	0.500878
1344.000000	0.500270
1345.000000	0.499569
1346.000000	0.499097
1347.000000	0.498550
1348.000000	0.498056
1349.000000	0.497591
1350.000000	0.497210
1351.000000	0.496751
1352.000000	0.496187
1353.000000	0.495667
1354.000000	0.495195
1355.000000	0.494589
1356.000000	0.494086
1357.000000	0.493557
1358.000000	0.492876
1359.000000	0.492217
1360.000000	0.491601
1361.000000	0.491076
1362.000000	0.490511
1363.000000	0.489940
1364.000000	0.489388
1365.000000	0.488861
1366.000000	0.488255
1367.000000	0.487624
1368.000000	0.486804
1369.000000	0.486298
1370.000000	0.485497
1371.000000	0.484528
1372.000000	0.483685
1373.000000	0.482451
1374.000000	0.481149
1375.000000	0.479830
1376.000000	0.478469
1377.000000	0.477072
1378.000000	0.475298
1379.000000	0.473191
1380.000000	0.470705
1381.000000	0.467590
1382.000000	0.464328
1383.000000	0.461058
1384.000000	0.457378
1385.000000	0.453837
1386.000000	0.450595
1387.000000	0.447492
1388.000000	0.444863
1389.000000	0.442780
1390.000000	0.441119
1391.000000	0.439617
1392.000000	0.438467
1393.000000	0.437650
1394.000000	0.437366
1395.000000	0.436922
1396.000000	0.436932
1397.000000	0.436384
1398.000000	0.435613
1399.000000	0.434550
1400.000000	0.433117
1401.000000	0.431636
1402.000000	0.430053
1403.000000	0.428284
1404.000000	0.426453
1405.000000	0.424352
1406.000000	0.422126
1407.000000	0.419954
1408.000000	0.417798
1409.000000	0.415836
1410.000000	0.413870
1411.000000	0.411748
1412.000000	0.409632
1413.000000	0.407604
1414.000000	0.405569
1415.000000	0.403716
1416.000000	0.401905
1417.000000	0.400086
1418.000000	0.398395
1419.000000	0.396662
1420.000000	0.394875
1421.000000	0.393352
1422.000000	0.391742
1423.000000	0.390258
1424.000000	0.388822
1425.000000	0.387276
1426.000000	0.385711
1427.000000	0.384271
1428.000000	0.382952
1429.000000	0.381622
1430.000000	0.380423
1431.000000	0.379351
1432.000000	0.378146
1433.000000	0.376898
1434.000000	0.375681
1435.000000	0.374453
1436.000000	0.373303
1437.000000	0.372272
1438.000000	0.371123
1439.000000	0.369972
1440.000000	0.368977
1441.000000	0.367940
1442.000000	0.366999
1443.000000	0.366162
1444.000000	0.365344
1445.000000	0.364370
1446.000000	0.363536
1447.000000	0.362770
1448.000000	0.361978
1449.000000	0.361263
1450.000000	0.360582
1451.000000	0.359870
1452.000000	0.359209
1453.000000	0.358617
1454.000000	0.358035
1455.000000	0.357525
1456.000000	0.357098
1457.000000	0.356737
1458.000000	0.356418
1459.000000	0.356152
1460.000000	0.355880
1461.000000	0.355505
1462.000000	0.355185
1463.000000	0.354838
1464.000000	0.354481
1465.000000	0.354362
1466.000000	0.354210
1467.000000	0.354035
1468.000000	0.353984
1469.000000	0.354031
1470.000000	0.354106
1471.000000	0.354253
1472.000000	0.354429
1473.000000	0.354685
1474.000000	0.354957
1475.000000	0.355466
1476.000000	0.356141
1477.000000	0.356704
1478.000000	0.357249
1479.000000	0.357873
1480.000000	0.358464
1481.000000	0.359027
1482.000000	0.359676
1483.000000	0.360444
1484.000000	0.361209
1485.000000	0.361985
1486.000000	0.362899
1487.000000	0.363704
1488.000000	0.364404
1489.000000	0.365221
1490.000000	0.365937
1491.000000	0.366800
1492.000000	0.367774
1493.000000	0.368577
1494.000000	0.369345
1495.000000	0.370079
1496.000000	0.370627
1497.000000	0.371254
1498.000000	0.371979
1499.000000	0.372589
1500.000000	0.373155
1501.000000	0.373862
1502.000000	0.374535
1503.000000	0.375209
1504.000000	0.375769
1505.000000	0.376254
1506.000000	0.376846
1507.000000	0.377329
1508.000000	0.377972
1509.000000	0.378714
1510.000000	0.379243
1511.000000	0.379787
1512.000000	0.380226
1513.000000	0.380589
1514.000000	0.381019
1515.000000	0.381357
1516.000000	0.381757
1517.000000	0.382104
1518.000000	0.382358
1519.000000	0.382603
1520.000000	0.382836
1521.000000	0.382996
1522.000000	0.383334
1523.000000	0.383718
1524.000000	0.384015
1525.000000	0.384493
1526.000000	0.384876
1527.000000	0.385175
1528.000000	0.385543
1529.000000	0.385824
1530.000000	0.385948
1531.000000	0.386093
1532.000000	0.386355
1533.000000	0.386629
1534.000000	0.386875
1535.000000	0.387176
1536.000000	0.387399
1537.000000	0.387620
1538.000000	0.387913
1539.000000	0.388104
1540.000000	0.388276
1541.000000	0.388516
1542.000000	0.388671
1543.000000	0.388816
1544.000000	0.388852
1545.000000	0.388855
1546.000000	0.388889
1547.000000	0.388969
1548.000000	0.389207
1549.000000	0.389297
1550.000000	0.389302
1551.000000	0.389325
1552.000000	0.389324
1553.000000	0.389381
1554.000000	0.389445
1555.000000	0.389632
1556.000000	0.389843
1557.000000	0.389888
1558.000000	0.389939
1559.000000	0.389896
1560.000000	0.389835
1561.000000	0.389731
1562.000000	0.389709
1563.000000	0.389806
1564.000000	0.389819
1565.000000	0.389818
1566.000000	0.389703
1567.000000	0.389567
1568.000000	0.389529
1569.000000	0.389613
1570.000000	0.389651
1571.000000	0.389710
1572.000000	0.389745
1573.000000	0.389732
1574.000000	0.389741
1575.000000	0.389814
1576.000000	0.389926
1577.000000	0.390052
1578.000000	0.390100
1579.000000	0.390245
1580.000000	0.390296
1581.000000	0.390353
1582.000000	0.390302
1583.000000	0.390118
1584.000000	0.390009
1585.000000	0.389954
1586.000000	0.389943
1587.000000	0.390036
1588.000000	0.390055
1589.000000	0.390028
1590.000000	0.390028
1591.000000	0.390076
1592.000000	0.390157
1593.000000	0.390306
1594.000000	0.390302
1595.000000	0.390303
1596.000000	0.390349
1597.000000	0.390339
1598.000000	0.390405
1599.000000	0.390663
1600.000000	0.390673
1601.000000	0.390610
1602.000000	0.390650
1603.000000	0.390717
1604.000000	0.390770
1605.000000	0.390891
1606.000000	0.390989
1607.000000	0.391083
1608.000000	0.391156
1609.000000	0.391387
1610.000000	0.391484
1611.000000	0.391466
1612.000000	0.391621
1613.000000	0.391915
1614.000000	0.392100
1615.000000	0.392444
1616.000000	0.392729
1617.000000	0.392883
1618.000000	0.393081
1619.000000	0.393226
1620.000000	0.393441
1621.000000	0.393699
1622.000000	0.394050
1623.000000	0.394482
1624.000000	0.394864
1625.000000	0.395116
1626.000000	0.395290
1627.000000	0.395389
1628.000000	0.395669
1629.000000	0.395925
1630.000000	0.396267
1631.000000	0.396718
1632.000000	0.397076
1633.000000	0.397348
1634.000000	0.397768
1635.000000	0.398369
1636.000000	0.398793
1637.000000	0.399300
1638.000000	0.399626
1639.000000	0.399809
1640.000000	0.400016
1641.000000	0.400174
1642.000000	0.400507
1643.000000	0.400985
1644.000000	0.401358
1645.000000	0.401819
1646.000000	0.402138
1647.000000	0.402343
1648.000000	0.402617
1649.000000	0.402999
1650.000000	0.403446
1651.000000	0.404023
1652.000000	0.404455
1653.000000	0.404837
1654.000000	0.405194
1655.000000	0.405329
1656.000000	0.405563
1657.000000	0.405929
1658.000000	0.406264
1659.000000	0.406748
1660.000000	0.407168
1661.000000	0.407475
1662.000000	0.407843
1663.000000	0.408167
1664.000000	0.408552
1665.000000	0.408973
1666.000000	0.409471
1667.000000	0.409944
1668.000000	0.410315
1669.000000	0.410646
1670.000000	0.410912
1671.000000	0.411223
1672.000000	0.411556
1673.000000	0.411815
1674.000000	0.412263
1675.000000	0.412641
1676.000000	0.413060
1677.000000	0.413551
1678.000000	0.413720
1679.000000	0.413856
1680.000000	0.414057
1681.000000	0.414196
1682.000000	0.414377
1683.000000	0.414612
1684.000000	0.414765
1685.000000	0.414937
1686.000000	0.415177
1687.000000	0.415334
1688.000000	0.415375
1689.000000	0.415479
1690.000000	0.415532
1691.000000	0.415744
1692.000000	0.415987
1693.000000	0.416315
1694.000000	0.416727
1695.000000	0.417056
1696.000000	0.417212
1697.000000	0.417264
1698.000000	0.417109
1699.000000	0.417188
1700.000000	0.417353
1701.000000	0.417633
1702.000000	0.417973
1703.000000	0.418065
1704.000000	0.418125
1705.000000	0.418193
1706.000000	0.418075
1707.000000	0.418164
1708.000000	0.418381
1709.000000	0.418499
1710.000000	0.418879
1711.000000	0.419101
1712.000000	0.419083
1713.000000	0.419346
1714.000000	0.419816
1715.000000	0.420174
1716.000000	0.420812
1717.000000	0.421115
1718.000000	0.420970
1719.000000	0.421107
1720.000000	0.421331
1721.000000	0.421550
1722.000000	0.421953
1723.000000	0.422215
1724.000000	0.422361
1725.000000	0.422642
1726.000000	0.422862
1727.000000	0.423087
1728.000000	0.423276
1729.000000	0.423428
1730.000000	0.423755
1731.000000	0.423918
1732.000000	0.424007
1733.000000	0.424277
1734.000000	0.424313
1735.000000	0.424552
1736.000000	0.425003
1737.000000	0.425220
1738.000000	0.425368
1739.000000	0.425593
1740.000000	0.425752
1741.000000	0.425921
1742.000000	0.426162
1743.000000	0.426423
1744.000000	0.426611
1745.000000	0.426845
1746.000000	0.427175
1747.000000	0.427225
1748.000000	0.427270
1749.000000	0.427208
1750.000000	0.427176
1751.000000	0.427380
1752.000000	0.427653
1753.000000	0.427804
1754.000000	0.427936
1755.000000	0.428024
1756.000000	0.428068
1757.000000	0.427986
1758.000000	0.428057
1759.000000	0.428152
1760.000000	0.428293
1761.000000	0.428480
1762.000000	0.428688
1763.000000	0.429024
1764.000000	0.429227
1765.000000	0.429337
1766.000000	0.429509
1767.000000	0.429463
1768.000000	0.429532
1769.000000	0.429969
1770.000000	0.430105
1771.000000	0.429939
1772.000000	0.430079
1773.000000	0.430099
1774.000000	0.430294
1775.000000	0.430970
1776.000000	0.431201
1777.000000	0.431157
1778.000000	0.431259
1779.000000	0.431265
1780.000000	0.431328
1781.000000	0.431389
1782.000000	0.431544
1783.000000	0.431761
1784.000000	0.432107
1785.000000	0.432258
1786.000000	0.432326
1787.000000	0.432735
1788.000000	0.432963
1789.000000	0.433023
1790.000000	0.433008
1791.000000	0.433040
1792.000000	0.433303
1793.000000	0.433509
1794.000000	0.433808
1795.000000	0.434030
1796.000000	0.434091
1797.000000	0.434267
1798.000000	0.434407
1799.000000	0.434603
1800.000000	0.435058
1801.000000	0.433586
1802.000000	0.434373
1803.000000	0.436109
1804.000000	0.436624
1805.000000	0.436871
1806.000000	0.436940
1807.000000	0.435952
1808.000000	0.435634
1809.000000	0.435193
1810.000000	0.435683
1811.000000	0.435800
1812.000000	0.436183
1813.000000	0.436390
1814.000000	0.436590
1815.000000	0.436752
1816.000000	0.436681
1817.000000	0.436675
1818.000000	0.436464
1819.000000	0.437252
1820.000000	0.437760
1821.000000	0.438050
1822.000000	0.438201
1823.000000	0.438408
1824.000000	0.437849
1825.000000	0.436123
1826.000000	0.435676
1827.000000	0.435133
1828.000000	0.434816
1829.000000	0.435397
1830.000000	0.435646
1831.000000	0.435769
1832.000000	0.435777
1833.000000	0.435348
1834.000000	0.434613
1835.000000	0.434318
1836.000000	0.433484
1837.000000	0.433142
1838.000000	0.433263
1839.000000	0.433261
1840.000000	0.433157
1841.000000	0.432459
1842.000000	0.432152
1843.000000	0.431910
1844.000000	0.431538
1845.000000	0.431392
1846.000000	0.430887
1847.000000	0.430006
1848.000000	0.428354
1849.000000	0.427668
1850.000000	0.427228
1851.000000	0.426321
1852.000000	0.425519
1853.000000	0.424700
1854.000000	0.423031
1855.000000	0.421723
1856.000000	0.420509
1857.000000	0.419653
1858.000000	0.418672
1859.000000	0.417302
1860.000000	0.415694
1861.000000	0.413821
1862.000000	0.411212
1863.000000	0.407419
1864.000000	0.404657
1865.000000	0.402094
1866.000000	0.399219
1867.000000	0.396685
1868.000000	0.393733
1869.000000	0.390067
1870.000000	0.385881
1871.000000	0.382277
1872.000000	0.379205
1873.000000	0.375516
1874.000000	0.371682
1875.000000	0.367835
1876.000000	0.363721
1877.000000	0.358540
1878.000000	0.353739
1879.000000	0.349396
1880.000000	0.344159
1881.000000	0.339126
1882.000000	0.333944
1883.000000	0.328298
1884.000000	0.322643
1885.000000	0.316581
1886.000000	0.310320
1887.000000	0.303983
1888.000000	0.296967
1889.000000	0.289476
1890.000000	0.283168
1891.000000	0.276721
1892.000000	0.270129
1893.000000	0.264195
1894.000000	0.258077
1895.000000	0.252010
1896.000000	0.246016
1897.000000	0.240415
1898.000000	0.234739
1899.000000	0.229401
1900.000000	0.224350
1901.000000	0.219727
1902.000000	0.215394
1903.000000	0.211343
1904.000000	0.207969
1905.000000	0.204388
1906.000000	0.200772
1907.000000	0.197369
1908.000000	0.194324
1909.000000	0.190161
1910.000000	0.186500
1911.000000	0.184192
1912.000000	0.181230
1913.000000	0.179160
1914.000000	0.177921
1915.000000	0.175663
1916.000000	0.173410
1917.000000	0.171613
1918.000000	0.170261
1919.000000	0.168440
1920.000000	0.166534
1921.000000	0.165883
1922.000000	0.165064
1923.000000	0.164189
1924.000000	0.164244
1925.000000	0.164048
1926.000000	0.163225
1927.000000	0.162424
1928.000000	0.161820
1929.000000	0.161183
1930.000000	0.160725
1931.000000	0.160641
1932.000000	0.160940
1933.000000	0.161372
1934.000000	0.161536
1935.000000	0.161939
1936.000000	0.162010
1937.000000	0.161990
1938.000000	0.162197
1939.000000	0.162096
1940.000000	0.161650
1941.000000	0.161324
1942.000000	0.161535
1943.000000	0.161575
1944.000000	0.161409
1945.000000	0.161990
1946.000000	0.161732
1947.000000	0.160800
1948.000000	0.160739
1949.000000	0.160267
1950.000000	0.159931
1951.000000	0.159668
1952.000000	0.159970
1953.000000	0.159235
1954.000000	0.158485
1955.000000	0.158249
1956.000000	0.157578
1957.000000	0.157234
1958.000000	0.157106
1959.000000	0.156588
1960.000000	0.156211
1961.000000	0.155659
1962.000000	0.155578
1963.000000	0.155846
1964.000000	0.156389
1965.000000	0.156334
1966.000000	0.156795
1967.000000	0.156811
1968.000000	0.156193
1969.000000	0.156134
1970.000000	0.156044
1971.000000	0.156190
1972.000000	0.156346
1973.000000	0.156557
1974.000000	0.157288
1975.000000	0.157554
1976.000000	0.157439
1977.000000	0.157724
1978.000000	0.158099
1979.000000	0.158475
1980.000000	0.159406
1981.000000	0.159838
1982.000000	0.159892
1983.000000	0.160197
1984.000000	0.160612
1985.000000	0.161146
1986.000000	0.161728
1987.000000	0.162688
1988.000000	0.163098
1989.000000	0.163531
1990.000000	0.164372
1991.000000	0.164968
1992.000000	0.166003
1993.000000	0.167308
1994.000000	0.168200
1995.000000	0.169796
1996.000000	0.171423
1997.000000	0.172498
1998.000000	0.173324
1999.000000	0.174266
2000.000000	0.174860
2001.000000	0.175260
2002.000000	0.176421
2003.000000	0.177887
2004.000000	0.178999
2005.000000	0.180120
2006.000000	0.181698
2007.000000	0.182627
2008.000000	0.183799
2009.000000	0.185297
2010.000000	0.186774
2011.000000	0.187970
2012.000000	0.189485
2013.000000	0.191410
2014.000000	0.192594
2015.000000	0.194016
2016.000000	0.195630
2017.000000	0.196788
2018.000000	0.197729
2019.000000	0.198738
2020.000000	0.199580
2021.000000	0.200786
2022.000000	0.202223
2023.000000	0.203785
2024.000000	0.205902
2025.000000	0.207465
2026.000000	0.208875
2027.000000	0.209954
2028.000000	0.210674
2029.000000	0.211619
2030.000000	0.212719
2031.000000	0.213942
2032.000000	0.215312
2033.000000	0.216592
2034.000000	0.218046
2035.000000	0.219606
2036.000000	0.220942
2037.000000	0.222716
2038.000000	0.224113
2039.000000	0.225002
2040.000000	0.226474
2041.000000	0.227693
2042.000000	0.228958
2043.000000	0.230298
2044.000000	0.231320
2045.000000	0.232683
2046.000000	0.233577
2047.000000	0.234576
2048.000000	0.235512
2049.000000	0.236552
2050.000000	0.237215
2051.000000	0.238146
2052.000000	0.239010
2053.000000	0.239907
2054.000000	0.241229
2055.000000	0.242454
2056.000000	0.243469
2057.000000	0.244826
2058.000000	0.245535
2059.000000	0.246237
2060.000000	0.246955
2061.000000	0.247391
2062.000000	0.248049
2063.000000	0.248691
2064.000000	0.249592
2065.000000	0.251046
2066.000000	0.252071
2067.000000	0.253243
2068.000000	0.254794
2069.000000	0.255962
2070.000000	0.256985
2071.000000	0.258021
2072.000000	0.259248
2073.000000	0.260588
2074.000000	0.262045
2075.000000	0.263524
2076.000000	0.265391
2077.000000	0.266802
2078.000000	0.267915
2079.000000	0.269137
2080.000000	0.270495
2081.000000	0.271646
2082.000000	0.272934
2083.000000	0.273631
2084.000000	0.273910
2085.000000	0.274208
2086.000000	0.275229
2087.000000	0.276513
2088.000000	0.278187
2089.000000	0.280198
2090.000000	0.281495
2091.000000	0.282211
2092.000000	0.283246
2093.000000	0.284240
2094.000000	0.284953
2095.000000	0.285353
2096.000000	0.286306
2097.000000	0.287221
2098.000000	0.288256
2099.000000	0.289617
2100.000000	0.290860
2101.000000	0.291611
2102.000000	0.292553
2103.000000	0.293755
2104.000000	0.294807
2105.000000	0.295790
2106.000000	0.296713
2107.000000	0.297647
2108.000000	0.298292
2109.000000	0.299293
2110.000000	0.300635
2111.000000	0.301497
2112.000000	0.302168
2113.000000	0.302649
2114.000000	0.302732
2115.000000	0.302688
2116.000000	0.303135
2117.000000	0.304270
2118.000000	0.305532
2119.000000	0.306610
2120.000000	0.307847
2121.000000	0.309131
2122.000000	0.310082
2123.000000	0.311178
2124.000000	0.312124
2125.000000	0.312604
2126.000000	0.313223
2127.000000	0.314240
2128.000000	0.314683
2129.000000	0.314366
2130.000000	0.314756
2131.000000	0.314555
2132.000000	0.313747
2133.000000	0.313997
2134.000000	0.314599
2135.000000	0.314997
2136.000000	0.315698
2137.000000	0.316188
2138.000000	0.316332
2139.000000	0.316660
2140.000000	0.317044
2141.000000	0.317592
2142.000000	0.318442
2143.000000	0.318556
2144.000000	0.318562
2145.000000	0.319027
2146.000000	0.319221
2147.000000	0.319859
2148.000000	0.321686
2149.000000	0.322542
2150.000000	0.323226
2151.000000	0.324190
2152.000000	0.323964
2153.000000	0.323595
2154.000000	0.323145
2155.000000	0.322198
2156.000000	0.321492
2157.000000	0.320861
2158.000000	0.320239
2159.000000	0.319192
2160.000000	0.319164
2161.000000	0.319843
2162.000000	0.320309
2163.000000	0.321296
2164.000000	0.322111
2165.000000	0.322395
2166.000000	0.323311
2167.000000	0.325004
2168.000000	0.325686
2169.000000	0.326250
2170.000000	0.326100
2171.000000	0.325644
2172.000000	0.324013
2173.000000	0.323651
2174.000000	0.323456
2175.000000	0.323549
2176.000000	0.324894
2177.000000	0.324876
2178.000000	0.324283
2179.000000	0.323949
2180.000000	0.322388
2181.000000	0.322217
2182.000000	0.322630
2183.000000	0.322597
2184.000000	0.322254
2185.000000	0.321833
2186.000000	0.321705
2187.000000	0.322120
2188.000000	0.323114
2189.000000	0.323576
2190.000000	0.322892
2191.000000	0.322503
2192.000000	0.321679
2193.000000	0.319915
2194.000000	0.319736
2195.000000	0.320304
2196.000000	0.320227
2197.000000	0.320151
2198.000000	0.321141
2199.000000	0.322978
2200.000000	0.324326
2201.000000	0.327914
2202.000000	0.329530
2203.000000	0.328888
2204.000000	0.327437
2205.000000	0.327087
2206.000000	0.327019
2207.000000	0.327491
2208.000000	0.326683
2209.000000	0.326622
2210.000000	0.324772
2211.000000	0.319816
2212.000000	0.318756
2213.000000	0.319293
2214.000000	0.320897
2215.000000	0.322363
2216.000000	0.328317
2217.000000	0.329094
2218.000000	0.325571
2219.000000	0.324578
2220.000000	0.322756
2221.000000	0.322600
2222.000000	0.324834
2223.000000	0.325733
2224.000000	0.326486
2225.000000	0.326709
2226.000000	0.328568
2227.000000	0.328238
2228.000000	0.329163
2229.000000	0.328094
2230.000000	0.324978
2231.000000	0.324766
2232.000000	0.322741
2233.000000	0.322872
2234.000000	0.324941
2235.000000	0.324459
2236.000000	0.324687
2237.000000	0.325489
2238.000000	0.325890
2239.000000	0.326312
2240.000000	0.325428
2241.000000	0.323753
2242.000000	0.323529
2243.000000	0.321891
2244.000000	0.321626
2245.000000	0.323659
2246.000000	0.323964
2247.000000	0.323619
2248.000000	0.324242
2249.000000	0.324705
2250.000000	0.325968
2251.000000	0.328846
2252.000000	0.328693
2253.000000	0.327123
2254.000000	0.326178
2255.000000	0.323325
2256.000000	0.320832
2257.000000	0.320578
2258.000000	0.320635
2259.000000	0.321439
2260.000000	0.323698
2261.000000	0.324684
2262.000000	0.326487
2263.000000	0.325278
2264.000000	0.321238
2265.000000	0.319960
2266.000000	0.317960
2267.000000	0.317194
2268.000000	0.319783
2269.000000	0.319056
2270.000000	0.316571
2271.000000	0.314177
2272.000000	0.309444
2273.000000	0.307551
2274.000000	0.306481
2275.000000	0.306658
2276.000000	0.309919
2277.000000	0.310379
2278.000000	0.311697
2279.000000	0.310876
2280.000000	0.305920
2281.000000	0.303597
2282.000000	0.300898
2283.000000	0.297203
2284.000000	0.296058
2285.000000	0.295154
2286.000000	0.294138
2287.000000	0.294371
2288.000000	0.293810
2289.000000	0.291758
2290.000000	0.289583
2291.000000	0.289061
2292.000000	0.290318
2293.000000	0.292179
2294.000000	0.292598
2295.000000	0.293227
2296.000000	0.291138
2297.000000	0.286814
2298.000000	0.283560
2299.000000	0.279163
2300.000000	0.276078
2301.000000	0.273178
2302.000000	0.270250
2303.000000	0.268252
2304.000000	0.265320
2305.000000	0.261237
2306.000000	0.258629
2307.000000	0.256528
2308.000000	0.254028
2309.000000	0.252378
2310.000000	0.252565
2311.000000	0.251289
2312.000000	0.248834
2313.000000	0.245975
2314.000000	0.243897
2315.000000	0.243267
2316.000000	0.245205
2317.000000	0.248264
2318.000000	0.251188
2319.000000	0.254741
2320.000000	0.255191
2321.000000	0.256875
2322.000000	0.260361
2323.000000	0.259486
2324.000000	0.257467
2325.000000	0.253210
2326.000000	0.248723
2327.000000	0.247617
2328.000000	0.246558
2329.000000	0.246699
2330.000000	0.245503
2331.000000	0.242923
2332.000000	0.243404
2333.000000	0.243558
2334.000000	0.242165
2335.000000	0.241850
2336.000000	0.240710
2337.000000	0.239757
2338.000000	0.240089
2339.000000	0.239242
2340.000000	0.237740
2341.000000	0.236019
2342.000000	0.233099
2343.000000	0.232463
2344.000000	0.233139
2345.000000	0.231756
2346.000000	0.229929
2347.000000	0.228086
2348.000000	0.224691
2349.000000	0.222998
2350.000000	0.223123
2351.000000	0.224966
2352.000000	0.223352
2353.000000	0.221460
2354.000000	0.218431
2355.000000	0.214835
2356.000000	0.215332
2357.000000	0.213211
2358.000000	0.210257
2359.000000	0.208001
2360.000000	0.202056
2361.000000	0.199916
2362.000000	0.199166
2363.000000	0.197102
2364.000000	0.194314
2365.000000	0.190604
2366.000000	0.186419
2367.000000	0.181344
2368.000000	0.183389
2369.000000	0.187964
2370.000000	0.190083
2371.000000	0.192480
2372.000000	0.190339
2373.000000	0.185601
2374.000000	0.184841
2375.000000	0.184212
2376.000000	0.185321
2377.000000	0.188746
2378.000000	0.182568
2379.000000	0.177447
2380.000000	0.172423
2381.000000	0.161028
2382.000000	0.157153
2383.000000	0.156656
2384.000000	0.158330
2385.000000	0.162638
2386.000000	0.167230
2387.000000	0.168120
2388.000000	0.165617
2389.000000	0.168117
2390.000000	0.162597
2391.000000	0.158644
2392.000000	0.162801
2393.000000	0.158651
2394.000000	0.159676
2395.000000	0.165774
2396.000000	0.161575
2397.000000	0.158956
2398.000000	0.164130
2399.000000	0.165932
2400.000000	0.169400
2401.000000	0.174555
2402.000000	0.164740
2403.000000	0.154150
2404.000000	0.150097
2405.000000	0.137714
2406.000000	0.141367
2407.000000	0.148570
2408.000000	0.142330
2409.000000	0.153310
2410.000000	0.158777
2411.000000	0.152226
2412.000000	0.156145
2413.000000	0.145731
2414.000000	0.132883
2415.000000	0.138162
2416.000000	0.139068
2417.000000	0.140362
2418.000000	0.142848
2419.000000	0.141047
2420.000000	0.145337
2421.000000	0.150681
2422.000000	0.155634
2423.000000	0.161014
2424.000000	0.151871
2425.000000	0.142591
2426.000000	0.141908
2427.000000	0.130378
2428.000000	0.126424
2429.000000	0.122867
2430.000000	0.112265
2431.000000	0.109124
2432.000000	0.108686
2433.000000	0.118330
2434.000000	0.127060
2435.000000	0.132130
2436.000000	0.132617
2437.000000	0.125619
2438.000000	0.123711
2439.000000	0.132599
2440.000000	0.143157
2441.000000	0.137921
2442.000000	0.120462
2443.000000	0.100203
2444.000000	0.084781
2445.000000	0.080336
2446.000000	0.090325
2447.000000	0.109076
2448.000000	0.121433
2449.000000	0.124610
2450.000000	0.130188
2451.000000	0.129237
2452.000000	0.107972
2453.000000	0.102572
2454.000000	0.099108
2455.000000	0.072225
2456.000000	0.060180
2457.000000	0.043448
2458.000000	0.028249
2459.000000	0.031888
2460.000000	0.047355
2461.000000	0.073894
2462.000000	0.090839
2463.000000	0.105870
2464.000000	0.105025
2465.000000	0.099924
2466.000000	0.104821
2467.000000	0.109716
2468.000000	0.126659
2469.000000	0.127667
2470.000000	0.114532
2471.000000	0.112535
2472.000000	0.106501
2473.000000	0.100417
2474.000000	0.097647
2475.000000	0.072391
2476.000000	0.057208
2477.000000	0.064587
2478.000000	0.073581
2479.000000	0.092704
2480.000000	0.115713
2481.000000	0.134669
2482.000000	0.160169
2483.000000	0.172532
2484.000000	0.115555
2485.000000	0.056133
2486.000000	0.013935
2487.000000	-0.032288
2488.000000	-0.008435
2489.000000	0.047604
2490.000000	0.075635
2491.000000	0.108216
2492.000000	0.136388
2493.000000	0.143651
2494.000000	0.160540
2495.000000	0.216440
2496.000000	0.218572
2497.000000	0.171487
2498.000000	0.126499
2499.000000	0.019397
2500.000000	-0.005097
