# Wavelength	SM1200H-40_HEX-20_FV7-40_00002.asd.rts.txt
350.000000	0.281096
351.000000	0.252054
352.000000	0.259210
353.000000	0.269517
354.000000	0.268209
355.000000	0.271423
356.000000	0.273186
357.000000	0.272862
358.000000	0.267965
359.000000	0.269708
360.000000	0.272355
361.000000	0.267896
362.000000	0.268286
363.000000	0.271232
364.000000	0.272455
365.000000	0.267406
366.000000	0.265929
367.000000	0.267512
368.000000	0.263334
369.000000	0.264627
370.000000	0.268846
371.000000	0.270090
372.000000	0.270353
373.000000	0.271414
374.000000	0.274350
375.000000	0.276518
376.000000	0.276595
377.000000	0.275928
378.000000	0.279251
379.000000	0.275732
380.000000	0.270974
381.000000	0.274930
382.000000	0.277153
383.000000	0.277829
384.000000	0.278342
385.000000	0.278232
386.000000	0.278722
387.000000	0.280043
388.000000	0.281059
389.000000	0.281210
390.000000	0.281096
391.000000	0.281383
392.000000	0.281838
393.000000	0.282219
394.000000	0.282543
395.000000	0.283904
396.000000	0.284510
397.000000	0.284029
398.000000	0.284207
399.000000	0.283839
400.000000	0.283413
401.000000	0.283871
402.000000	0.284978
403.000000	0.285736
404.000000	0.285633
405.000000	0.285551
406.000000	0.286062
407.000000	0.287076
408.000000	0.287319
409.000000	0.287162
410.000000	0.287113
411.000000	0.287779
412.000000	0.288148
413.000000	0.288377
414.000000	0.288828
415.000000	0.289177
416.000000	0.289350
417.000000	0.289432
418.000000	0.289822
419.000000	0.290152
420.000000	0.290349
421.000000	0.290538
422.000000	0.291150
423.000000	0.291681
424.000000	0.291600
425.000000	0.292220
426.000000	0.292802
427.000000	0.292770
428.000000	0.292898
429.000000	0.293138
430.000000	0.293462
431.000000	0.293873
432.000000	0.294106
433.000000	0.294067
434.000000	0.293907
435.000000	0.294114
436.000000	0.294491
437.000000	0.294743
438.000000	0.295005
439.000000	0.295176
440.000000	0.295385
441.000000	0.295891
442.000000	0.296177
443.000000	0.296238
444.000000	0.296635
445.000000	0.296746
446.000000	0.296966
447.000000	0.297588
448.000000	0.297812
449.000000	0.297814
450.000000	0.297872
451.000000	0.298194
452.000000	0.298655
453.000000	0.299055
454.000000	0.299369
455.000000	0.299545
456.000000	0.299707
457.000000	0.299832
458.000000	0.299871
459.000000	0.300085
460.000000	0.300660
461.000000	0.300935
462.000000	0.301305
463.000000	0.301712
464.000000	0.301854
465.000000	0.301909
466.000000	0.301978
467.000000	0.302293
468.000000	0.302587
469.000000	0.302690
470.000000	0.302749
471.000000	0.303298
472.000000	0.303634
473.000000	0.303475
474.000000	0.303783
475.000000	0.304017
476.000000	0.304169
477.000000	0.304364
478.000000	0.304523
479.000000	0.304767
480.000000	0.304879
481.000000	0.305143
482.000000	0.305486
483.000000	0.305593
484.000000	0.305935
485.000000	0.306085
486.000000	0.306108
487.000000	0.306248
488.000000	0.306673
489.000000	0.307201
490.000000	0.307352
491.000000	0.307558
492.000000	0.307878
493.000000	0.308103
494.000000	0.308235
495.000000	0.308481
496.000000	0.308893
497.000000	0.309303
498.000000	0.309487
499.000000	0.309595
500.000000	0.310042
501.000000	0.310301
502.000000	0.310452
503.000000	0.310718
504.000000	0.310930
505.000000	0.311155
506.000000	0.311458
507.000000	0.311624
508.000000	0.311892
509.000000	0.312289
510.000000	0.312524
511.000000	0.312861
512.000000	0.313289
513.000000	0.313506
514.000000	0.313842
515.000000	0.314260
516.000000	0.314550
517.000000	0.314827
518.000000	0.315185
519.000000	0.315548
520.000000	0.315761
521.000000	0.315984
522.000000	0.316312
523.000000	0.316759
524.000000	0.316967
525.000000	0.317065
526.000000	0.317505
527.000000	0.317889
528.000000	0.318197
529.000000	0.318520
530.000000	0.318580
531.000000	0.318696
532.000000	0.318969
533.000000	0.319324
534.000000	0.319617
535.000000	0.319827
536.000000	0.320116
537.000000	0.320396
538.000000	0.320651
539.000000	0.320878
540.000000	0.321157
541.000000	0.321447
542.000000	0.321736
543.000000	0.322031
544.000000	0.322299
545.000000	0.322476
546.000000	0.322719
547.000000	0.323023
548.000000	0.323375
549.000000	0.323634
550.000000	0.323842
551.000000	0.324149
552.000000	0.324615
553.000000	0.324844
554.000000	0.325065
555.000000	0.325459
556.000000	0.325852
557.000000	0.326113
558.000000	0.326389
559.000000	0.326774
560.000000	0.327034
561.000000	0.327270
562.000000	0.327565
563.000000	0.327858
564.000000	0.328181
565.000000	0.328455
566.000000	0.328800
567.000000	0.329148
568.000000	0.329429
569.000000	0.329662
570.000000	0.329935
571.000000	0.330265
572.000000	0.330640
573.000000	0.330996
574.000000	0.331278
575.000000	0.331517
576.000000	0.331815
577.000000	0.332147
578.000000	0.332520
579.000000	0.332776
580.000000	0.333021
581.000000	0.333321
582.000000	0.333714
583.000000	0.333938
584.000000	0.334075
585.000000	0.334407
586.000000	0.334690
587.000000	0.334929
588.000000	0.335190
589.000000	0.335509
590.000000	0.335813
591.000000	0.336066
592.000000	0.336327
593.000000	0.336606
594.000000	0.336884
595.000000	0.337112
596.000000	0.337405
597.000000	0.337728
598.000000	0.337881
599.000000	0.338004
600.000000	0.338206
601.000000	0.338450
602.000000	0.338656
603.000000	0.338790
604.000000	0.338904
605.000000	0.339177
606.000000	0.339335
607.000000	0.339405
608.000000	0.339601
609.000000	0.339774
610.000000	0.339951
611.000000	0.340172
612.000000	0.340267
613.000000	0.340359
614.000000	0.340553
615.000000	0.340678
616.000000	0.340765
617.000000	0.340846
618.000000	0.341084
619.000000	0.341289
620.000000	0.341387
621.000000	0.341432
622.000000	0.341577
623.000000	0.341752
624.000000	0.341880
625.000000	0.342014
626.000000	0.342130
627.000000	0.342245
628.000000	0.342471
629.000000	0.342726
630.000000	0.342835
631.000000	0.342907
632.000000	0.343096
633.000000	0.343333
634.000000	0.343489
635.000000	0.343602
636.000000	0.343719
637.000000	0.343842
638.000000	0.343940
639.000000	0.344106
640.000000	0.344338
641.000000	0.344365
642.000000	0.344497
643.000000	0.344698
644.000000	0.344836
645.000000	0.344943
646.000000	0.345029
647.000000	0.345096
648.000000	0.345279
649.000000	0.345485
650.000000	0.345665
651.000000	0.345903
652.000000	0.346039
653.000000	0.346146
654.000000	0.346294
655.000000	0.346384
656.000000	0.346503
657.000000	0.346668
658.000000	0.346827
659.000000	0.347002
660.000000	0.347166
661.000000	0.347264
662.000000	0.347312
663.000000	0.347402
664.000000	0.347552
665.000000	0.347721
666.000000	0.347893
667.000000	0.348031
668.000000	0.348186
669.000000	0.348357
670.000000	0.348539
671.000000	0.348689
672.000000	0.348878
673.000000	0.349070
674.000000	0.349166
675.000000	0.349318
676.000000	0.349501
677.000000	0.349663
678.000000	0.349805
679.000000	0.349978
680.000000	0.350192
681.000000	0.350289
682.000000	0.350411
683.000000	0.350522
684.000000	0.350676
685.000000	0.350773
686.000000	0.350858
687.000000	0.350960
688.000000	0.351148
689.000000	0.351306
690.000000	0.351422
691.000000	0.351696
692.000000	0.351895
693.000000	0.352034
694.000000	0.352211
695.000000	0.352443
696.000000	0.352650
697.000000	0.352721
698.000000	0.352789
699.000000	0.352898
700.000000	0.353062
701.000000	0.353206
702.000000	0.353345
703.000000	0.353469
704.000000	0.353605
705.000000	0.353775
706.000000	0.353922
707.000000	0.354066
708.000000	0.354220
709.000000	0.354368
710.000000	0.354528
711.000000	0.354733
712.000000	0.354918
713.000000	0.355079
714.000000	0.355211
715.000000	0.355388
716.000000	0.355545
717.000000	0.355548
718.000000	0.355738
719.000000	0.355950
720.000000	0.356048
721.000000	0.356262
722.000000	0.356398
723.000000	0.356466
724.000000	0.356548
725.000000	0.356610
726.000000	0.356737
727.000000	0.356856
728.000000	0.356954
729.000000	0.357073
730.000000	0.357177
731.000000	0.357255
732.000000	0.357333
733.000000	0.357442
734.000000	0.357489
735.000000	0.357488
736.000000	0.357567
737.000000	0.357602
738.000000	0.357661
739.000000	0.357788
740.000000	0.357817
741.000000	0.357871
742.000000	0.357990
743.000000	0.358119
744.000000	0.358190
745.000000	0.358241
746.000000	0.358344
747.000000	0.358452
748.000000	0.358483
749.000000	0.358557
750.000000	0.358702
751.000000	0.358827
752.000000	0.358992
753.000000	0.359161
754.000000	0.359180
755.000000	0.359241
756.000000	0.359334
757.000000	0.359351
758.000000	0.359369
759.000000	0.359441
760.000000	0.359514
761.000000	0.359639
762.000000	0.359819
763.000000	0.359961
764.000000	0.360003
765.000000	0.360016
766.000000	0.360060
767.000000	0.360152
768.000000	0.360201
769.000000	0.360246
770.000000	0.360293
771.000000	0.360267
772.000000	0.360364
773.000000	0.360440
774.000000	0.360399
775.000000	0.360465
776.000000	0.360539
777.000000	0.360513
778.000000	0.360473
779.000000	0.360471
780.000000	0.360537
781.000000	0.360652
782.000000	0.360705
783.000000	0.360777
784.000000	0.360790
785.000000	0.360830
786.000000	0.360865
787.000000	0.360875
788.000000	0.360899
789.000000	0.360906
790.000000	0.360923
791.000000	0.361050
792.000000	0.361143
793.000000	0.361152
794.000000	0.361090
795.000000	0.361082
796.000000	0.361109
797.000000	0.361144
798.000000	0.361155
799.000000	0.361159
800.000000	0.361182
801.000000	0.361252
802.000000	0.361347
803.000000	0.361360
804.000000	0.361310
805.000000	0.361304
806.000000	0.361277
807.000000	0.361290
808.000000	0.361279
809.000000	0.361257
810.000000	0.361247
811.000000	0.361261
812.000000	0.361343
813.000000	0.361338
814.000000	0.361292
815.000000	0.361449
816.000000	0.361467
817.000000	0.361408
818.000000	0.361334
819.000000	0.361419
820.000000	0.361484
821.000000	0.361413
822.000000	0.361365
823.000000	0.361378
824.000000	0.361343
825.000000	0.361265
826.000000	0.361251
827.000000	0.361226
828.000000	0.361211
829.000000	0.361281
830.000000	0.361284
831.000000	0.361209
832.000000	0.360950
833.000000	0.360861
834.000000	0.360900
835.000000	0.360972
836.000000	0.360871
837.000000	0.360752
838.000000	0.360701
839.000000	0.360698
840.000000	0.360713
841.000000	0.360710
842.000000	0.360628
843.000000	0.360555
844.000000	0.360507
845.000000	0.360439
846.000000	0.360340
847.000000	0.360209
848.000000	0.360103
849.000000	0.360102
850.000000	0.360072
851.000000	0.360009
852.000000	0.359974
853.000000	0.359977
854.000000	0.360024
855.000000	0.360156
856.000000	0.360190
857.000000	0.360064
858.000000	0.359988
859.000000	0.359937
860.000000	0.359762
861.000000	0.359623
862.000000	0.359545
863.000000	0.359416
864.000000	0.359257
865.000000	0.359187
866.000000	0.359247
867.000000	0.359231
868.000000	0.359186
869.000000	0.359075
870.000000	0.358968
871.000000	0.358782
872.000000	0.358529
873.000000	0.358229
874.000000	0.358154
875.000000	0.358095
876.000000	0.357993
877.000000	0.357779
878.000000	0.357541
879.000000	0.357355
880.000000	0.357162
881.000000	0.357278
882.000000	0.357199
883.000000	0.356949
884.000000	0.356711
885.000000	0.356605
886.000000	0.356494
887.000000	0.356307
888.000000	0.356039
889.000000	0.355791
890.000000	0.355521
891.000000	0.355374
892.000000	0.355087
893.000000	0.354820
894.000000	0.354726
895.000000	0.354423
896.000000	0.354328
897.000000	0.354313
898.000000	0.354132
899.000000	0.354052
900.000000	0.354014
901.000000	0.353914
902.000000	0.353762
903.000000	0.353521
904.000000	0.353292
905.000000	0.353066
906.000000	0.352899
907.000000	0.352718
908.000000	0.352561
909.000000	0.352384
910.000000	0.352181
911.000000	0.351974
912.000000	0.351814
913.000000	0.351740
914.000000	0.351434
915.000000	0.351082
916.000000	0.351037
917.000000	0.350899
918.000000	0.350623
919.000000	0.350278
920.000000	0.350183
921.000000	0.350054
922.000000	0.349879
923.000000	0.349726
924.000000	0.349370
925.000000	0.349060
926.000000	0.348927
927.000000	0.348674
928.000000	0.348356
929.000000	0.348094
930.000000	0.347986
931.000000	0.347822
932.000000	0.347497
933.000000	0.347127
934.000000	0.346927
935.000000	0.346688
936.000000	0.346392
937.000000	0.346011
938.000000	0.345909
939.000000	0.345805
940.000000	0.345518
941.000000	0.345147
942.000000	0.344794
943.000000	0.344601
944.000000	0.344430
945.000000	0.344139
946.000000	0.343716
947.000000	0.343338
948.000000	0.343085
949.000000	0.342684
950.000000	0.342335
951.000000	0.342160
952.000000	0.342296
953.000000	0.342265
954.000000	0.342018
955.000000	0.341603
956.000000	0.341368
957.000000	0.341288
958.000000	0.341144
959.000000	0.340839
960.000000	0.340620
961.000000	0.340367
962.000000	0.340094
963.000000	0.340055
964.000000	0.339728
965.000000	0.339518
966.000000	0.339560
967.000000	0.339163
968.000000	0.338940
969.000000	0.338804
970.000000	0.338521
971.000000	0.338258
972.000000	0.337958
973.000000	0.337594
974.000000	0.337400
975.000000	0.337093
976.000000	0.336976
977.000000	0.337125
978.000000	0.336595
979.000000	0.336530
980.000000	0.336510
981.000000	0.336121
982.000000	0.335951
983.000000	0.335610
984.000000	0.335258
985.000000	0.335455
986.000000	0.335235
987.000000	0.334987
988.000000	0.334917
989.000000	0.334718
990.000000	0.334518
991.000000	0.334230
992.000000	0.333887
993.000000	0.334102
994.000000	0.334088
995.000000	0.333879
996.000000	0.333684
997.000000	0.333428
998.000000	0.333224
999.000000	0.333231
1000.000000	0.333349
1001.000000	0.333818
1002.000000	0.333355
1003.000000	0.332631
1004.000000	0.332285
1005.000000	0.332262
1006.000000	0.332197
1007.000000	0.332409
1008.000000	0.332261
1009.000000	0.332180
1010.000000	0.332031
1011.000000	0.331220
1012.000000	0.331108
1013.000000	0.331462
1014.000000	0.331407
1015.000000	0.332170
1016.000000	0.332884
1017.000000	0.332128
1018.000000	0.331616
1019.000000	0.331342
1020.000000	0.330956
1021.000000	0.330386
1022.000000	0.330177
1023.000000	0.330214
1024.000000	0.329918
1025.000000	0.330144
1026.000000	0.330774
1027.000000	0.331264
1028.000000	0.331519
1029.000000	0.331754
1030.000000	0.331511
1031.000000	0.331427
1032.000000	0.331711
1033.000000	0.331564
1034.000000	0.331484
1035.000000	0.331555
1036.000000	0.331375
1037.000000	0.330781
1038.000000	0.330588
1039.000000	0.330597
1040.000000	0.330715
1041.000000	0.330794
1042.000000	0.331098
1043.000000	0.331349
1044.000000	0.331270
1045.000000	0.331129
1046.000000	0.330703
1047.000000	0.330694
1048.000000	0.330550
1049.000000	0.330768
1050.000000	0.331474
1051.000000	0.331923
1052.000000	0.332506
1053.000000	0.332646
1054.000000	0.332663
1055.000000	0.332918
1056.000000	0.333395
1057.000000	0.333114
1058.000000	0.332830
1059.000000	0.332631
1060.000000	0.332684
1061.000000	0.333015
1062.000000	0.333153
1063.000000	0.333714
1064.000000	0.334133
1065.000000	0.334171
1066.000000	0.334318
1067.000000	0.334694
1068.000000	0.334864
1069.000000	0.334659
1070.000000	0.334747
1071.000000	0.335192
1072.000000	0.335428
1073.000000	0.335774
1074.000000	0.335793
1075.000000	0.335675
1076.000000	0.335978
1077.000000	0.336314
1078.000000	0.336520
1079.000000	0.336584
1080.000000	0.336447
1081.000000	0.336700
1082.000000	0.337159
1083.000000	0.337394
1084.000000	0.337919
1085.000000	0.338338
1086.000000	0.338312
1087.000000	0.338599
1088.000000	0.339440
1089.000000	0.339582
1090.000000	0.339322
1091.000000	0.338943
1092.000000	0.338686
1093.000000	0.338456
1094.000000	0.338634
1095.000000	0.339321
1096.000000	0.339754
1097.000000	0.340311
1098.000000	0.340609
1099.000000	0.340609
1100.000000	0.340952
1101.000000	0.341568
1102.000000	0.341627
1103.000000	0.341200
1104.000000	0.341424
1105.000000	0.341517
1106.000000	0.341767
1107.000000	0.343037
1108.000000	0.343499
1109.000000	0.343561
1110.000000	0.343204
1111.000000	0.343215
1112.000000	0.343031
1113.000000	0.343101
1114.000000	0.343461
1115.000000	0.343652
1116.000000	0.343850
1117.000000	0.343944
1118.000000	0.343900
1119.000000	0.343985
1120.000000	0.344098
1121.000000	0.344149
1122.000000	0.344497
1123.000000	0.344743
1124.000000	0.344322
1125.000000	0.344388
1126.000000	0.344645
1127.000000	0.344757
1128.000000	0.344908
1129.000000	0.345395
1130.000000	0.345492
1131.000000	0.345335
1132.000000	0.345268
1133.000000	0.345018
1134.000000	0.345243
1135.000000	0.345715
1136.000000	0.345945
1137.000000	0.346488
1138.000000	0.346623
1139.000000	0.346354
1140.000000	0.346411
1141.000000	0.346525
1142.000000	0.346551
1143.000000	0.346506
1144.000000	0.346653
1145.000000	0.346805
1146.000000	0.346512
1147.000000	0.346554
1148.000000	0.346626
1149.000000	0.346720
1150.000000	0.346957
1151.000000	0.346998
1152.000000	0.346930
1153.000000	0.346879
1154.000000	0.346570
1155.000000	0.346506
1156.000000	0.346592
1157.000000	0.346657
1158.000000	0.346797
1159.000000	0.346860
1160.000000	0.346935
1161.000000	0.346882
1162.000000	0.346675
1163.000000	0.346737
1164.000000	0.346867
1165.000000	0.346915
1166.000000	0.347080
1167.000000	0.347449
1168.000000	0.347530
1169.000000	0.347509
1170.000000	0.347542
1171.000000	0.347539
1172.000000	0.347577
1173.000000	0.347636
1174.000000	0.347604
1175.000000	0.347440
1176.000000	0.347378
1177.000000	0.347389
1178.000000	0.347406
1179.000000	0.347543
1180.000000	0.347521
1181.000000	0.347504
1182.000000	0.347451
1183.000000	0.347423
1184.000000	0.347437
1185.000000	0.347393
1186.000000	0.347360
1187.000000	0.347276
1188.000000	0.347088
1189.000000	0.347027
1190.000000	0.347045
1191.000000	0.347050
1192.000000	0.347278
1193.000000	0.347412
1194.000000	0.347361
1195.000000	0.347360
1196.000000	0.347212
1197.000000	0.347189
1198.000000	0.347297
1199.000000	0.347318
1200.000000	0.347299
1201.000000	0.347368
1202.000000	0.347349
1203.000000	0.347322
1204.000000	0.347319
1205.000000	0.347221
1206.000000	0.347126
1207.000000	0.347032
1208.000000	0.347016
1209.000000	0.347176
1210.000000	0.347158
1211.000000	0.347065
1212.000000	0.347042
1213.000000	0.347023
1214.000000	0.347019
1215.000000	0.347079
1216.000000	0.347094
1217.000000	0.347020
1218.000000	0.346923
1219.000000	0.346766
1220.000000	0.346826
1221.000000	0.346956
1222.000000	0.346878
1223.000000	0.346904
1224.000000	0.346973
1225.000000	0.346824
1226.000000	0.346843
1227.000000	0.346877
1228.000000	0.346909
1229.000000	0.346928
1230.000000	0.346904
1231.000000	0.346901
1232.000000	0.347056
1233.000000	0.347199
1234.000000	0.347414
1235.000000	0.347450
1236.000000	0.347307
1237.000000	0.347232
1238.000000	0.346882
1239.000000	0.346775
1240.000000	0.346827
1241.000000	0.346872
1242.000000	0.346845
1243.000000	0.346755
1244.000000	0.346652
1245.000000	0.346690
1246.000000	0.346656
1247.000000	0.346804
1248.000000	0.346941
1249.000000	0.346825
1250.000000	0.346779
1251.000000	0.346807
1252.000000	0.346772
1253.000000	0.346693
1254.000000	0.346606
1255.000000	0.346514
1256.000000	0.346446
1257.000000	0.346328
1258.000000	0.346369
1259.000000	0.346491
1260.000000	0.346600
1261.000000	0.346711
1262.000000	0.346739
1263.000000	0.346795
1264.000000	0.346688
1265.000000	0.346482
1266.000000	0.346594
1267.000000	0.346688
1268.000000	0.346570
1269.000000	0.346529
1270.000000	0.346585
1271.000000	0.346466
1272.000000	0.346400
1273.000000	0.346541
1274.000000	0.346441
1275.000000	0.346301
1276.000000	0.346161
1277.000000	0.346168
1278.000000	0.345986
1279.000000	0.345942
1280.000000	0.346000
1281.000000	0.345943
1282.000000	0.345894
1283.000000	0.345936
1284.000000	0.346003
1285.000000	0.346034
1286.000000	0.346062
1287.000000	0.345950
1288.000000	0.345978
1289.000000	0.346000
1290.000000	0.345879
1291.000000	0.345837
1292.000000	0.345880
1293.000000	0.345696
1294.000000	0.345458
1295.000000	0.345457
1296.000000	0.345522
1297.000000	0.345533
1298.000000	0.345593
1299.000000	0.345639
1300.000000	0.345499
1301.000000	0.345324
1302.000000	0.345264
1303.000000	0.345518
1304.000000	0.345487
1305.000000	0.345512
1306.000000	0.345478
1307.000000	0.345315
1308.000000	0.345324
1309.000000	0.345411
1310.000000	0.345438
1311.000000	0.345562
1312.000000	0.345567
1313.000000	0.345364
1314.000000	0.345310
1315.000000	0.345089
1316.000000	0.344875
1317.000000	0.344949
1318.000000	0.344932
1319.000000	0.344890
1320.000000	0.345000
1321.000000	0.344977
1322.000000	0.344899
1323.000000	0.344932
1324.000000	0.344791
1325.000000	0.344575
1326.000000	0.344542
1327.000000	0.344388
1328.000000	0.344361
1329.000000	0.344276
1330.000000	0.344161
1331.000000	0.344075
1332.000000	0.344116
1333.000000	0.343982
1334.000000	0.343847
1335.000000	0.343784
1336.000000	0.343561
1337.000000	0.343507
1338.000000	0.343594
1339.000000	0.343551
1340.000000	0.343390
1341.000000	0.343407
1342.000000	0.343266
1343.000000	0.343027
1344.000000	0.342881
1345.000000	0.342675
1346.000000	0.342637
1347.000000	0.342597
1348.000000	0.342595
1349.000000	0.342442
1350.000000	0.342149
1351.000000	0.341832
1352.000000	0.341458
1353.000000	0.341251
1354.000000	0.341315
1355.000000	0.341246
1356.000000	0.341262
1357.000000	0.341338
1358.000000	0.341259
1359.000000	0.341295
1360.000000	0.341238
1361.000000	0.341169
1362.000000	0.341042
1363.000000	0.340787
1364.000000	0.340616
1365.000000	0.340530
1366.000000	0.340331
1367.000000	0.340064
1368.000000	0.339778
1369.000000	0.339689
1370.000000	0.339430
1371.000000	0.339227
1372.000000	0.339201
1373.000000	0.338969
1374.000000	0.338590
1375.000000	0.338168
1376.000000	0.337622
1377.000000	0.336901
1378.000000	0.336093
1379.000000	0.335214
1380.000000	0.334158
1381.000000	0.332875
1382.000000	0.331487
1383.000000	0.329985
1384.000000	0.328356
1385.000000	0.326776
1386.000000	0.325322
1387.000000	0.323967
1388.000000	0.322788
1389.000000	0.322046
1390.000000	0.321564
1391.000000	0.321109
1392.000000	0.320937
1393.000000	0.320890
1394.000000	0.321023
1395.000000	0.321129
1396.000000	0.321543
1397.000000	0.321634
1398.000000	0.321528
1399.000000	0.321405
1400.000000	0.321167
1401.000000	0.320800
1402.000000	0.320419
1403.000000	0.319874
1404.000000	0.319255
1405.000000	0.318759
1406.000000	0.318219
1407.000000	0.317648
1408.000000	0.317049
1409.000000	0.316574
1410.000000	0.316119
1411.000000	0.315679
1412.000000	0.315306
1413.000000	0.314878
1414.000000	0.314569
1415.000000	0.314262
1416.000000	0.314053
1417.000000	0.314054
1418.000000	0.313835
1419.000000	0.313682
1420.000000	0.313463
1421.000000	0.313122
1422.000000	0.312933
1423.000000	0.312886
1424.000000	0.312752
1425.000000	0.312693
1426.000000	0.312644
1427.000000	0.312636
1428.000000	0.312650
1429.000000	0.312613
1430.000000	0.312574
1431.000000	0.312432
1432.000000	0.312360
1433.000000	0.312399
1434.000000	0.312409
1435.000000	0.312532
1436.000000	0.312558
1437.000000	0.312555
1438.000000	0.312436
1439.000000	0.312205
1440.000000	0.312120
1441.000000	0.312103
1442.000000	0.312054
1443.000000	0.311989
1444.000000	0.311951
1445.000000	0.311799
1446.000000	0.311549
1447.000000	0.311475
1448.000000	0.311356
1449.000000	0.311271
1450.000000	0.311334
1451.000000	0.311152
1452.000000	0.310914
1453.000000	0.310807
1454.000000	0.310523
1455.000000	0.310337
1456.000000	0.310460
1457.000000	0.310555
1458.000000	0.310533
1459.000000	0.310521
1460.000000	0.310442
1461.000000	0.310252
1462.000000	0.310199
1463.000000	0.310203
1464.000000	0.310274
1465.000000	0.310445
1466.000000	0.310495
1467.000000	0.310575
1468.000000	0.310723
1469.000000	0.310865
1470.000000	0.310951
1471.000000	0.311151
1472.000000	0.311267
1473.000000	0.311346
1474.000000	0.311532
1475.000000	0.311734
1476.000000	0.311906
1477.000000	0.312106
1478.000000	0.312247
1479.000000	0.312334
1480.000000	0.312519
1481.000000	0.312727
1482.000000	0.313024
1483.000000	0.313356
1484.000000	0.313777
1485.000000	0.314121
1486.000000	0.314483
1487.000000	0.314759
1488.000000	0.314990
1489.000000	0.315239
1490.000000	0.315256
1491.000000	0.315478
1492.000000	0.315783
1493.000000	0.316015
1494.000000	0.316268
1495.000000	0.316513
1496.000000	0.316674
1497.000000	0.316836
1498.000000	0.317003
1499.000000	0.317265
1500.000000	0.317482
1501.000000	0.317772
1502.000000	0.318018
1503.000000	0.318083
1504.000000	0.318187
1505.000000	0.318368
1506.000000	0.318549
1507.000000	0.318811
1508.000000	0.319089
1509.000000	0.319273
1510.000000	0.319453
1511.000000	0.319612
1512.000000	0.319763
1513.000000	0.319923
1514.000000	0.320173
1515.000000	0.320433
1516.000000	0.320545
1517.000000	0.320602
1518.000000	0.320622
1519.000000	0.320581
1520.000000	0.320726
1521.000000	0.320842
1522.000000	0.320946
1523.000000	0.321157
1524.000000	0.321240
1525.000000	0.321293
1526.000000	0.321407
1527.000000	0.321542
1528.000000	0.321596
1529.000000	0.321597
1530.000000	0.321604
1531.000000	0.321628
1532.000000	0.321672
1533.000000	0.321759
1534.000000	0.321871
1535.000000	0.321968
1536.000000	0.322027
1537.000000	0.322199
1538.000000	0.322325
1539.000000	0.322364
1540.000000	0.322532
1541.000000	0.322646
1542.000000	0.322664
1543.000000	0.322712
1544.000000	0.322670
1545.000000	0.322695
1546.000000	0.322743
1547.000000	0.322686
1548.000000	0.322769
1549.000000	0.322807
1550.000000	0.322736
1551.000000	0.322847
1552.000000	0.322887
1553.000000	0.322861
1554.000000	0.322957
1555.000000	0.322968
1556.000000	0.323035
1557.000000	0.323178
1558.000000	0.323238
1559.000000	0.323227
1560.000000	0.323224
1561.000000	0.323193
1562.000000	0.323184
1563.000000	0.323227
1564.000000	0.323266
1565.000000	0.323294
1566.000000	0.323273
1567.000000	0.323365
1568.000000	0.323392
1569.000000	0.323404
1570.000000	0.323472
1571.000000	0.323574
1572.000000	0.323597
1573.000000	0.323659
1574.000000	0.323651
1575.000000	0.323508
1576.000000	0.323539
1577.000000	0.323619
1578.000000	0.323663
1579.000000	0.323885
1580.000000	0.323913
1581.000000	0.323868
1582.000000	0.323870
1583.000000	0.323824
1584.000000	0.323704
1585.000000	0.323664
1586.000000	0.323641
1587.000000	0.323479
1588.000000	0.323525
1589.000000	0.323781
1590.000000	0.323839
1591.000000	0.323887
1592.000000	0.323986
1593.000000	0.324088
1594.000000	0.324126
1595.000000	0.324318
1596.000000	0.324350
1597.000000	0.324182
1598.000000	0.324134
1599.000000	0.324130
1600.000000	0.324104
1601.000000	0.324204
1602.000000	0.324176
1603.000000	0.324076
1604.000000	0.324102
1605.000000	0.324182
1606.000000	0.324210
1607.000000	0.324401
1608.000000	0.324411
1609.000000	0.324292
1610.000000	0.324247
1611.000000	0.324233
1612.000000	0.324208
1613.000000	0.324277
1614.000000	0.324286
1615.000000	0.324321
1616.000000	0.324376
1617.000000	0.324414
1618.000000	0.324412
1619.000000	0.324332
1620.000000	0.324323
1621.000000	0.324366
1622.000000	0.324432
1623.000000	0.324496
1624.000000	0.324591
1625.000000	0.324601
1626.000000	0.324497
1627.000000	0.324342
1628.000000	0.324398
1629.000000	0.324435
1630.000000	0.324486
1631.000000	0.324695
1632.000000	0.324680
1633.000000	0.324433
1634.000000	0.324436
1635.000000	0.324605
1636.000000	0.324653
1637.000000	0.324749
1638.000000	0.324797
1639.000000	0.324749
1640.000000	0.324825
1641.000000	0.325119
1642.000000	0.325244
1643.000000	0.325390
1644.000000	0.325477
1645.000000	0.325465
1646.000000	0.325451
1647.000000	0.325418
1648.000000	0.325408
1649.000000	0.325464
1650.000000	0.325528
1651.000000	0.325700
1652.000000	0.325861
1653.000000	0.325933
1654.000000	0.326115
1655.000000	0.326336
1656.000000	0.326347
1657.000000	0.326381
1658.000000	0.326389
1659.000000	0.326386
1660.000000	0.326451
1661.000000	0.326514
1662.000000	0.326497
1663.000000	0.326325
1664.000000	0.326351
1665.000000	0.326458
1666.000000	0.326582
1667.000000	0.326717
1668.000000	0.326878
1669.000000	0.326998
1670.000000	0.327024
1671.000000	0.327239
1672.000000	0.327316
1673.000000	0.327209
1674.000000	0.327169
1675.000000	0.327155
1676.000000	0.327240
1677.000000	0.327195
1678.000000	0.327277
1679.000000	0.327445
1680.000000	0.327312
1681.000000	0.327253
1682.000000	0.327223
1683.000000	0.327055
1684.000000	0.327104
1685.000000	0.327241
1686.000000	0.327272
1687.000000	0.327330
1688.000000	0.327324
1689.000000	0.327350
1690.000000	0.327323
1691.000000	0.327363
1692.000000	0.327361
1693.000000	0.327212
1694.000000	0.327059
1695.000000	0.327010
1696.000000	0.326969
1697.000000	0.326884
1698.000000	0.326862
1699.000000	0.326923
1700.000000	0.327048
1701.000000	0.327180
1702.000000	0.327229
1703.000000	0.327195
1704.000000	0.327065
1705.000000	0.327061
1706.000000	0.327162
1707.000000	0.327265
1708.000000	0.327461
1709.000000	0.327505
1710.000000	0.327582
1711.000000	0.327630
1712.000000	0.327607
1713.000000	0.327584
1714.000000	0.327567
1715.000000	0.327591
1716.000000	0.327681
1717.000000	0.327682
1718.000000	0.327650
1719.000000	0.327567
1720.000000	0.327398
1721.000000	0.327341
1722.000000	0.327293
1723.000000	0.327350
1724.000000	0.327582
1725.000000	0.327702
1726.000000	0.327814
1727.000000	0.327765
1728.000000	0.327461
1729.000000	0.327278
1730.000000	0.327105
1731.000000	0.327167
1732.000000	0.327505
1733.000000	0.327633
1734.000000	0.327646
1735.000000	0.327706
1736.000000	0.327646
1737.000000	0.327586
1738.000000	0.327629
1739.000000	0.327556
1740.000000	0.327284
1741.000000	0.327181
1742.000000	0.327145
1743.000000	0.327208
1744.000000	0.327358
1745.000000	0.327337
1746.000000	0.327312
1747.000000	0.327198
1748.000000	0.327096
1749.000000	0.327146
1750.000000	0.327080
1751.000000	0.327015
1752.000000	0.327095
1753.000000	0.327000
1754.000000	0.327051
1755.000000	0.327268
1756.000000	0.327371
1757.000000	0.327522
1758.000000	0.327606
1759.000000	0.327563
1760.000000	0.327547
1761.000000	0.327426
1762.000000	0.327400
1763.000000	0.327445
1764.000000	0.327467
1765.000000	0.327542
1766.000000	0.327547
1767.000000	0.327333
1768.000000	0.327293
1769.000000	0.327469
1770.000000	0.327520
1771.000000	0.327550
1772.000000	0.327579
1773.000000	0.327470
1774.000000	0.327395
1775.000000	0.327425
1776.000000	0.327456
1777.000000	0.327409
1778.000000	0.327329
1779.000000	0.327295
1780.000000	0.327233
1781.000000	0.327010
1782.000000	0.326962
1783.000000	0.327066
1784.000000	0.327120
1785.000000	0.327125
1786.000000	0.327294
1787.000000	0.327508
1788.000000	0.327528
1789.000000	0.327630
1790.000000	0.327503
1791.000000	0.327383
1792.000000	0.327329
1793.000000	0.327326
1794.000000	0.327401
1795.000000	0.327460
1796.000000	0.327559
1797.000000	0.327641
1798.000000	0.327726
1799.000000	0.327701
1800.000000	0.327636
1801.000000	0.328074
1802.000000	0.327741
1803.000000	0.327247
1804.000000	0.327634
1805.000000	0.329177
1806.000000	0.330099
1807.000000	0.331577
1808.000000	0.332278
1809.000000	0.332799
1810.000000	0.332644
1811.000000	0.332252
1812.000000	0.331266
1813.000000	0.330658
1814.000000	0.329300
1815.000000	0.329280
1816.000000	0.330147
1817.000000	0.330524
1818.000000	0.331756
1819.000000	0.332430
1820.000000	0.332613
1821.000000	0.332725
1822.000000	0.332683
1823.000000	0.332720
1824.000000	0.332066
1825.000000	0.330099
1826.000000	0.329753
1827.000000	0.330055
1828.000000	0.329387
1829.000000	0.330134
1830.000000	0.330607
1831.000000	0.330916
1832.000000	0.330895
1833.000000	0.330809
1834.000000	0.330832
1835.000000	0.330766
1836.000000	0.330260
1837.000000	0.329903
1838.000000	0.329645
1839.000000	0.329043
1840.000000	0.328657
1841.000000	0.327973
1842.000000	0.327856
1843.000000	0.328304
1844.000000	0.328476
1845.000000	0.328849
1846.000000	0.328936
1847.000000	0.329129
1848.000000	0.328286
1849.000000	0.326936
1850.000000	0.326166
1851.000000	0.325772
1852.000000	0.325370
1853.000000	0.325159
1854.000000	0.325565
1855.000000	0.325361
1856.000000	0.324672
1857.000000	0.324020
1858.000000	0.323625
1859.000000	0.322970
1860.000000	0.322796
1861.000000	0.322974
1862.000000	0.322675
1863.000000	0.322738
1864.000000	0.322138
1865.000000	0.320743
1866.000000	0.319699
1867.000000	0.318304
1868.000000	0.317605
1869.000000	0.316459
1870.000000	0.314963
1871.000000	0.314376
1872.000000	0.313644
1873.000000	0.312673
1874.000000	0.311891
1875.000000	0.311080
1876.000000	0.310046
1877.000000	0.308128
1878.000000	0.306277
1879.000000	0.304487
1880.000000	0.302388
1881.000000	0.299915
1882.000000	0.297713
1883.000000	0.295274
1884.000000	0.292693
1885.000000	0.289492
1886.000000	0.286827
1887.000000	0.284286
1888.000000	0.281614
1889.000000	0.278632
1890.000000	0.275251
1891.000000	0.271752
1892.000000	0.267784
1893.000000	0.265181
1894.000000	0.262573
1895.000000	0.259618
1896.000000	0.256727
1897.000000	0.254308
1898.000000	0.250759
1899.000000	0.247795
1900.000000	0.245134
1901.000000	0.242906
1902.000000	0.241478
1903.000000	0.239960
1904.000000	0.238769
1905.000000	0.237619
1906.000000	0.236370
1907.000000	0.235094
1908.000000	0.233933
1909.000000	0.233103
1910.000000	0.232286
1911.000000	0.231904
1912.000000	0.231830
1913.000000	0.231424
1914.000000	0.231204
1915.000000	0.230548
1916.000000	0.229806
1917.000000	0.229316
1918.000000	0.229085
1919.000000	0.228709
1920.000000	0.228468
1921.000000	0.228775
1922.000000	0.228975
1923.000000	0.229669
1924.000000	0.230448
1925.000000	0.230703
1926.000000	0.231631
1927.000000	0.231917
1928.000000	0.231982
1929.000000	0.231912
1930.000000	0.232005
1931.000000	0.231788
1932.000000	0.232258
1933.000000	0.232814
1934.000000	0.233931
1935.000000	0.234582
1936.000000	0.234563
1937.000000	0.234731
1938.000000	0.234059
1939.000000	0.233862
1940.000000	0.233651
1941.000000	0.234060
1942.000000	0.234477
1943.000000	0.235226
1944.000000	0.235324
1945.000000	0.234681
1946.000000	0.233846
1947.000000	0.233257
1948.000000	0.233648
1949.000000	0.234107
1950.000000	0.234748
1951.000000	0.235376
1952.000000	0.236279
1953.000000	0.236304
1954.000000	0.236924
1955.000000	0.237615
1956.000000	0.237359
1957.000000	0.236998
1958.000000	0.236355
1959.000000	0.235642
1960.000000	0.234934
1961.000000	0.234593
1962.000000	0.234583
1963.000000	0.234832
1964.000000	0.235352
1965.000000	0.236422
1966.000000	0.236977
1967.000000	0.237682
1968.000000	0.238250
1969.000000	0.237935
1970.000000	0.238175
1971.000000	0.238271
1972.000000	0.237946
1973.000000	0.237976
1974.000000	0.238452
1975.000000	0.238800
1976.000000	0.239218
1977.000000	0.239696
1978.000000	0.240337
1979.000000	0.241210
1980.000000	0.241892
1981.000000	0.242829
1982.000000	0.243432
1983.000000	0.243946
1984.000000	0.244238
1985.000000	0.244076
1986.000000	0.244410
1987.000000	0.245079
1988.000000	0.245209
1989.000000	0.245502
1990.000000	0.246463
1991.000000	0.246659
1992.000000	0.246567
1993.000000	0.246952
1994.000000	0.247212
1995.000000	0.247397
1996.000000	0.248376
1997.000000	0.248957
1998.000000	0.249401
1999.000000	0.250009
2000.000000	0.250645
2001.000000	0.251085
2002.000000	0.252112
2003.000000	0.253840
2004.000000	0.254808
2005.000000	0.255483
2006.000000	0.256256
2007.000000	0.256052
2008.000000	0.256252
2009.000000	0.256573
2010.000000	0.256936
2011.000000	0.257039
2012.000000	0.257560
2013.000000	0.258466
2014.000000	0.258870
2015.000000	0.259258
2016.000000	0.259530
2017.000000	0.259210
2018.000000	0.259194
2019.000000	0.259520
2020.000000	0.259602
2021.000000	0.260191
2022.000000	0.261325
2023.000000	0.262150
2024.000000	0.263216
2025.000000	0.264262
2026.000000	0.265323
2027.000000	0.265714
2028.000000	0.266294
2029.000000	0.266513
2030.000000	0.267028
2031.000000	0.267780
2032.000000	0.268678
2033.000000	0.270172
2034.000000	0.270927
2035.000000	0.271321
2036.000000	0.271730
2037.000000	0.271891
2038.000000	0.272363
2039.000000	0.273040
2040.000000	0.273462
2041.000000	0.274966
2042.000000	0.275278
2043.000000	0.275170
2044.000000	0.275985
2045.000000	0.275510
2046.000000	0.275431
2047.000000	0.275874
2048.000000	0.276782
2049.000000	0.277482
2050.000000	0.278341
2051.000000	0.278794
2052.000000	0.278870
2053.000000	0.278851
2054.000000	0.278823
2055.000000	0.278831
2056.000000	0.278982
2057.000000	0.279160
2058.000000	0.279608
2059.000000	0.280573
2060.000000	0.281015
2061.000000	0.281459
2062.000000	0.281670
2063.000000	0.281401
2064.000000	0.281287
2065.000000	0.281567
2066.000000	0.281503
2067.000000	0.281331
2068.000000	0.281531
2069.000000	0.281819
2070.000000	0.282355
2071.000000	0.283397
2072.000000	0.284608
2073.000000	0.285471
2074.000000	0.285520
2075.000000	0.285642
2076.000000	0.285192
2077.000000	0.284931
2078.000000	0.284457
2079.000000	0.284580
2080.000000	0.285189
2081.000000	0.285538
2082.000000	0.286085
2083.000000	0.286606
2084.000000	0.287037
2085.000000	0.287156
2086.000000	0.288030
2087.000000	0.288614
2088.000000	0.289160
2089.000000	0.289850
2090.000000	0.290311
2091.000000	0.290894
2092.000000	0.291217
2093.000000	0.291289
2094.000000	0.291285
2095.000000	0.291084
2096.000000	0.290972
2097.000000	0.290525
2098.000000	0.290373
2099.000000	0.290691
2100.000000	0.291062
2101.000000	0.292090
2102.000000	0.292928
2103.000000	0.293011
2104.000000	0.293155
2105.000000	0.293411
2106.000000	0.293365
2107.000000	0.293537
2108.000000	0.293994
2109.000000	0.294387
2110.000000	0.294544
2111.000000	0.294799
2112.000000	0.295153
2113.000000	0.295177
2114.000000	0.295519
2115.000000	0.295733
2116.000000	0.296528
2117.000000	0.297225
2118.000000	0.298070
2119.000000	0.298551
2120.000000	0.298533
2121.000000	0.297814
2122.000000	0.297877
2123.000000	0.297724
2124.000000	0.297757
2125.000000	0.298261
2126.000000	0.298641
2127.000000	0.299337
2128.000000	0.299507
2129.000000	0.299464
2130.000000	0.299291
2131.000000	0.298625
2132.000000	0.297975
2133.000000	0.298420
2134.000000	0.299203
2135.000000	0.299775
2136.000000	0.300305
2137.000000	0.300201
2138.000000	0.299230
2139.000000	0.298919
2140.000000	0.298259
2141.000000	0.298189
2142.000000	0.298604
2143.000000	0.299054
2144.000000	0.300277
2145.000000	0.300922
2146.000000	0.301754
2147.000000	0.302644
2148.000000	0.302011
2149.000000	0.301346
2150.000000	0.300434
2151.000000	0.299177
2152.000000	0.299090
2153.000000	0.299497
2154.000000	0.299066
2155.000000	0.298682
2156.000000	0.298142
2157.000000	0.296354
2158.000000	0.295972
2159.000000	0.296389
2160.000000	0.297044
2161.000000	0.298987
2162.000000	0.300016
2163.000000	0.300989
2164.000000	0.301355
2165.000000	0.301171
2166.000000	0.300193
2167.000000	0.299590
2168.000000	0.299243
2169.000000	0.298946
2170.000000	0.299163
2171.000000	0.299390
2172.000000	0.299768
2173.000000	0.300439
2174.000000	0.301624
2175.000000	0.302194
2176.000000	0.302842
2177.000000	0.303005
2178.000000	0.302773
2179.000000	0.302539
2180.000000	0.301742
2181.000000	0.301734
2182.000000	0.301624
2183.000000	0.300838
2184.000000	0.301036
2185.000000	0.301519
2186.000000	0.301002
2187.000000	0.301122
2188.000000	0.300729
2189.000000	0.298948
2190.000000	0.299340
2191.000000	0.300291
2192.000000	0.300394
2193.000000	0.301324
2194.000000	0.301462
2195.000000	0.300102
2196.000000	0.299751
2197.000000	0.299742
2198.000000	0.299109
2199.000000	0.297832
2200.000000	0.297945
2201.000000	0.299139
2202.000000	0.300020
2203.000000	0.302017
2204.000000	0.302801
2205.000000	0.302197
2206.000000	0.302672
2207.000000	0.305468
2208.000000	0.306845
2209.000000	0.308412
2210.000000	0.310097
2211.000000	0.309829
2212.000000	0.308421
2213.000000	0.306471
2214.000000	0.302811
2215.000000	0.300572
2216.000000	0.297444
2217.000000	0.297252
2218.000000	0.300023
2219.000000	0.300369
2220.000000	0.301533
2221.000000	0.301230
2222.000000	0.297743
2223.000000	0.296766
2224.000000	0.296820
2225.000000	0.296907
2226.000000	0.298534
2227.000000	0.299756
2228.000000	0.299522
2229.000000	0.298446
2230.000000	0.295144
2231.000000	0.293697
2232.000000	0.292995
2233.000000	0.293069
2234.000000	0.293827
2235.000000	0.292416
2236.000000	0.291551
2237.000000	0.288859
2238.000000	0.289204
2239.000000	0.291492
2240.000000	0.292566
2241.000000	0.295523
2242.000000	0.296428
2243.000000	0.295279
2244.000000	0.295449
2245.000000	0.295593
2246.000000	0.295815
2247.000000	0.295828
2248.000000	0.296119
2249.000000	0.297932
2250.000000	0.297194
2251.000000	0.294758
2252.000000	0.293058
2253.000000	0.289659
2254.000000	0.287136
2255.000000	0.288101
2256.000000	0.289381
2257.000000	0.291859
2258.000000	0.294627
2259.000000	0.293904
2260.000000	0.293792
2261.000000	0.294241
2262.000000	0.294212
2263.000000	0.293912
2264.000000	0.294479
2265.000000	0.294165
2266.000000	0.292107
2267.000000	0.291305
2268.000000	0.291905
2269.000000	0.292033
2270.000000	0.291251
2271.000000	0.291238
2272.000000	0.291956
2273.000000	0.292073
2274.000000	0.292905
2275.000000	0.292764
2276.000000	0.292543
2277.000000	0.290424
2278.000000	0.286728
2279.000000	0.284891
2280.000000	0.282630
2281.000000	0.281351
2282.000000	0.284437
2283.000000	0.285474
2284.000000	0.285744
2285.000000	0.286878
2286.000000	0.284468
2287.000000	0.281809
2288.000000	0.281131
2289.000000	0.279825
2290.000000	0.277350
2291.000000	0.277867
2292.000000	0.280531
2293.000000	0.281485
2294.000000	0.281631
2295.000000	0.282923
2296.000000	0.281459
2297.000000	0.276687
2298.000000	0.273756
2299.000000	0.270201
2300.000000	0.268320
2301.000000	0.266762
2302.000000	0.266004
2303.000000	0.266780
2304.000000	0.267619
2305.000000	0.270122
2306.000000	0.270408
2307.000000	0.271143
2308.000000	0.268640
2309.000000	0.264232
2310.000000	0.260651
2311.000000	0.255899
2312.000000	0.254772
2313.000000	0.255803
2314.000000	0.255315
2315.000000	0.257237
2316.000000	0.259912
2317.000000	0.260257
2318.000000	0.261263
2319.000000	0.262871
2320.000000	0.262860
2321.000000	0.263670
2322.000000	0.263895
2323.000000	0.262404
2324.000000	0.260418
2325.000000	0.258290
2326.000000	0.259767
2327.000000	0.262416
2328.000000	0.266598
2329.000000	0.271950
2330.000000	0.272431
2331.000000	0.272764
2332.000000	0.272366
2333.000000	0.268761
2334.000000	0.267730
2335.000000	0.266602
2336.000000	0.263135
2337.000000	0.262924
2338.000000	0.265994
2339.000000	0.266071
2340.000000	0.267271
2341.000000	0.268504
2342.000000	0.266919
2343.000000	0.267796
2344.000000	0.271680
2345.000000	0.272498
2346.000000	0.272160
2347.000000	0.272990
2348.000000	0.274174
2349.000000	0.272447
2350.000000	0.271043
2351.000000	0.268815
2352.000000	0.263722
2353.000000	0.260135
2354.000000	0.257202
2355.000000	0.254171
2356.000000	0.253052
2357.000000	0.252132
2358.000000	0.253039
2359.000000	0.254850
2360.000000	0.254374
2361.000000	0.256596
2362.000000	0.255637
2363.000000	0.254629
2364.000000	0.253680
2365.000000	0.245821
2366.000000	0.242118
2367.000000	0.239311
2368.000000	0.240878
2369.000000	0.248623
2370.000000	0.250146
2371.000000	0.253677
2372.000000	0.256680
2373.000000	0.254296
2374.000000	0.255239
2375.000000	0.254257
2376.000000	0.248414
2377.000000	0.244204
2378.000000	0.245210
2379.000000	0.246183
2380.000000	0.248201
2381.000000	0.253967
2382.000000	0.250510
2383.000000	0.247110
2384.000000	0.244791
2385.000000	0.237982
2386.000000	0.238323
2387.000000	0.239320
2388.000000	0.240114
2389.000000	0.241080
2390.000000	0.237060
2391.000000	0.235568
2392.000000	0.237220
2393.000000	0.235981
2394.000000	0.238562
2395.000000	0.236043
2396.000000	0.227554
2397.000000	0.225881
2398.000000	0.221726
2399.000000	0.217356
2400.000000	0.215020
2401.000000	0.210908
2402.000000	0.210106
2403.000000	0.220074
2404.000000	0.232724
2405.000000	0.238815
2406.000000	0.242004
2407.000000	0.232891
2408.000000	0.224573
2409.000000	0.224308
2410.000000	0.222260
2411.000000	0.227989
2412.000000	0.228629
2413.000000	0.222620
2414.000000	0.222307
2415.000000	0.215453
2416.000000	0.214875
2417.000000	0.222516
2418.000000	0.226843
2419.000000	0.239842
2420.000000	0.240595
2421.000000	0.233745
2422.000000	0.241642
2423.000000	0.242545
2424.000000	0.242539
2425.000000	0.251088
2426.000000	0.246933
2427.000000	0.235368
2428.000000	0.228837
2429.000000	0.228753
2430.000000	0.232337
2431.000000	0.233070
2432.000000	0.236176
2433.000000	0.231810
2434.000000	0.218024
2435.000000	0.216138
2436.000000	0.214110
2437.000000	0.212254
2438.000000	0.219825
2439.000000	0.209603
2440.000000	0.201318
2441.000000	0.203393
2442.000000	0.197672
2443.000000	0.198821
2444.000000	0.209313
2445.000000	0.215539
2446.000000	0.220124
2447.000000	0.230500
2448.000000	0.223189
2449.000000	0.222234
2450.000000	0.230096
2451.000000	0.231421
2452.000000	0.246790
2453.000000	0.244674
2454.000000	0.225992
2455.000000	0.199616
2456.000000	0.174954
2457.000000	0.181728
2458.000000	0.187530
2459.000000	0.198629
2460.000000	0.222697
2461.000000	0.221951
2462.000000	0.221378
2463.000000	0.228789
2464.000000	0.246886
2465.000000	0.251697
2466.000000	0.237020
2467.000000	0.228632
2468.000000	0.190912
2469.000000	0.159277
2470.000000	0.147203
2471.000000	0.137094
2472.000000	0.146096
2473.000000	0.154869
2474.000000	0.178044
2475.000000	0.215214
2476.000000	0.218923
2477.000000	0.201388
2478.000000	0.208956
2479.000000	0.222978
2480.000000	0.232804
2481.000000	0.282044
2482.000000	0.307898
2483.000000	0.282843
2484.000000	0.266140
2485.000000	0.268192
2486.000000	0.286197
2487.000000	0.311892
2488.000000	0.340949
2489.000000	0.318431
2490.000000	0.245950
2491.000000	0.173269
2492.000000	0.130659
2493.000000	0.093546
2494.000000	0.067972
2495.000000	0.055431
2496.000000	0.052416
2497.000000	0.069400
2498.000000	0.090000
2499.000000	0.122925
2500.000000	0.170776
