# Wavelength	SM1200H-20_HEX-70_FV7-10_00002.asd.rts.txt
350.000000	0.427253
351.000000	0.434602
352.000000	0.412268
353.000000	0.401803
354.000000	0.417624
355.000000	0.404815
356.000000	0.399891
357.000000	0.408957
358.000000	0.411468
359.000000	0.406229
360.000000	0.400874
361.000000	0.403057
362.000000	0.409837
363.000000	0.412318
364.000000	0.407375
365.000000	0.409324
366.000000	0.408931
367.000000	0.405157
368.000000	0.404683
369.000000	0.403031
370.000000	0.404200
371.000000	0.412032
372.000000	0.409866
373.000000	0.406014
374.000000	0.408342
375.000000	0.414442
376.000000	0.416758
377.000000	0.414395
378.000000	0.412925
379.000000	0.414246
380.000000	0.416444
381.000000	0.417673
382.000000	0.415988
383.000000	0.416021
384.000000	0.419803
385.000000	0.419111
386.000000	0.418164
387.000000	0.418455
388.000000	0.417886
389.000000	0.419184
390.000000	0.421510
391.000000	0.422347
392.000000	0.421592
393.000000	0.420184
394.000000	0.419629
395.000000	0.423465
396.000000	0.425533
397.000000	0.424348
398.000000	0.424447
399.000000	0.424969
400.000000	0.425716
401.000000	0.426303
402.000000	0.426226
403.000000	0.426489
404.000000	0.427915
405.000000	0.428314
406.000000	0.428516
407.000000	0.428912
408.000000	0.428627
409.000000	0.428954
410.000000	0.429617
411.000000	0.429402
412.000000	0.430378
413.000000	0.431439
414.000000	0.431341
415.000000	0.432155
416.000000	0.432759
417.000000	0.432691
418.000000	0.433479
419.000000	0.433794
420.000000	0.433648
421.000000	0.434159
422.000000	0.434518
423.000000	0.434694
424.000000	0.434997
425.000000	0.435184
426.000000	0.435341
427.000000	0.435653
428.000000	0.436775
429.000000	0.437294
430.000000	0.437024
431.000000	0.437300
432.000000	0.438090
433.000000	0.438866
434.000000	0.439016
435.000000	0.439118
436.000000	0.439263
437.000000	0.439319
438.000000	0.438657
439.000000	0.438607
440.000000	0.439673
441.000000	0.440084
442.000000	0.440570
443.000000	0.441042
444.000000	0.441203
445.000000	0.441137
446.000000	0.441526
447.000000	0.442591
448.000000	0.442592
449.000000	0.442455
450.000000	0.442906
451.000000	0.443292
452.000000	0.443690
453.000000	0.443963
454.000000	0.444092
455.000000	0.444576
456.000000	0.445425
457.000000	0.446090
458.000000	0.446403
459.000000	0.446494
460.000000	0.446618
461.000000	0.446691
462.000000	0.447000
463.000000	0.447377
464.000000	0.447781
465.000000	0.448157
466.000000	0.448396
467.000000	0.448606
468.000000	0.448690
469.000000	0.448772
470.000000	0.449218
471.000000	0.449203
472.000000	0.449228
473.000000	0.449665
474.000000	0.450098
475.000000	0.450141
476.000000	0.450105
477.000000	0.450483
478.000000	0.450817
479.000000	0.451201
480.000000	0.451324
481.000000	0.451360
482.000000	0.451592
483.000000	0.451852
484.000000	0.452245
485.000000	0.452606
486.000000	0.453086
487.000000	0.453383
488.000000	0.453431
489.000000	0.453508
490.000000	0.454115
491.000000	0.454558
492.000000	0.454949
493.000000	0.455339
494.000000	0.455667
495.000000	0.455968
496.000000	0.456229
497.000000	0.456625
498.000000	0.456887
499.000000	0.457151
500.000000	0.457764
501.000000	0.458044
502.000000	0.458138
503.000000	0.458400
504.000000	0.458700
505.000000	0.458942
506.000000	0.459100
507.000000	0.459406
508.000000	0.459843
509.000000	0.460285
510.000000	0.460667
511.000000	0.460965
512.000000	0.461220
513.000000	0.461422
514.000000	0.461791
515.000000	0.462249
516.000000	0.462525
517.000000	0.462707
518.000000	0.463052
519.000000	0.463536
520.000000	0.463905
521.000000	0.464182
522.000000	0.464429
523.000000	0.464728
524.000000	0.465040
525.000000	0.465318
526.000000	0.465587
527.000000	0.465871
528.000000	0.466176
529.000000	0.466573
530.000000	0.466900
531.000000	0.467215
532.000000	0.467452
533.000000	0.467814
534.000000	0.468137
535.000000	0.468394
536.000000	0.468777
537.000000	0.469078
538.000000	0.469313
539.000000	0.469558
540.000000	0.469829
541.000000	0.470088
542.000000	0.470360
543.000000	0.470645
544.000000	0.470967
545.000000	0.471238
546.000000	0.471574
547.000000	0.471994
548.000000	0.472472
549.000000	0.472779
550.000000	0.473037
551.000000	0.473366
552.000000	0.473762
553.000000	0.473966
554.000000	0.474197
555.000000	0.474617
556.000000	0.475064
557.000000	0.475301
558.000000	0.475523
559.000000	0.475877
560.000000	0.476167
561.000000	0.476507
562.000000	0.476898
563.000000	0.477308
564.000000	0.477727
565.000000	0.477982
566.000000	0.478264
567.000000	0.478584
568.000000	0.478890
569.000000	0.479138
570.000000	0.479409
571.000000	0.479681
572.000000	0.479881
573.000000	0.480189
574.000000	0.480523
575.000000	0.480824
576.000000	0.481173
577.000000	0.481513
578.000000	0.481887
579.000000	0.482260
580.000000	0.482580
581.000000	0.482844
582.000000	0.483138
583.000000	0.483456
584.000000	0.483788
585.000000	0.484115
586.000000	0.484382
587.000000	0.484634
588.000000	0.484931
589.000000	0.485275
590.000000	0.485611
591.000000	0.485891
592.000000	0.486064
593.000000	0.486281
594.000000	0.486589
595.000000	0.486967
596.000000	0.487178
597.000000	0.487348
598.000000	0.487569
599.000000	0.487703
600.000000	0.487889
601.000000	0.488126
602.000000	0.488421
603.000000	0.488628
604.000000	0.488748
605.000000	0.489001
606.000000	0.489224
607.000000	0.489409
608.000000	0.489635
609.000000	0.489849
610.000000	0.490042
611.000000	0.490226
612.000000	0.490452
613.000000	0.490662
614.000000	0.490856
615.000000	0.490940
616.000000	0.491045
617.000000	0.491178
618.000000	0.491408
619.000000	0.491652
620.000000	0.491793
621.000000	0.491828
622.000000	0.491985
623.000000	0.492161
624.000000	0.492246
625.000000	0.492327
626.000000	0.492441
627.000000	0.492589
628.000000	0.492703
629.000000	0.492866
630.000000	0.492948
631.000000	0.493181
632.000000	0.493369
633.000000	0.493520
634.000000	0.493659
635.000000	0.493855
636.000000	0.494088
637.000000	0.494297
638.000000	0.494442
639.000000	0.494641
640.000000	0.494913
641.000000	0.494911
642.000000	0.494938
643.000000	0.495054
644.000000	0.495239
645.000000	0.495397
646.000000	0.495555
647.000000	0.495700
648.000000	0.495821
649.000000	0.495976
650.000000	0.496139
651.000000	0.496272
652.000000	0.496375
653.000000	0.496495
654.000000	0.496561
655.000000	0.496660
656.000000	0.496835
657.000000	0.497018
658.000000	0.497254
659.000000	0.497442
660.000000	0.497553
661.000000	0.497787
662.000000	0.497936
663.000000	0.498062
664.000000	0.498204
665.000000	0.498348
666.000000	0.498494
667.000000	0.498604
668.000000	0.498763
669.000000	0.498916
670.000000	0.499042
671.000000	0.499186
672.000000	0.499346
673.000000	0.499508
674.000000	0.499678
675.000000	0.499861
676.000000	0.500044
677.000000	0.500240
678.000000	0.500429
679.000000	0.500559
680.000000	0.500629
681.000000	0.500707
682.000000	0.500868
683.000000	0.501019
684.000000	0.501280
685.000000	0.501459
686.000000	0.501613
687.000000	0.501787
688.000000	0.501932
689.000000	0.502070
690.000000	0.502269
691.000000	0.502478
692.000000	0.502635
693.000000	0.502831
694.000000	0.503037
695.000000	0.503216
696.000000	0.503375
697.000000	0.503545
698.000000	0.503718
699.000000	0.503886
700.000000	0.504051
701.000000	0.504206
702.000000	0.504359
703.000000	0.504475
704.000000	0.504549
705.000000	0.504679
706.000000	0.504817
707.000000	0.505000
708.000000	0.505173
709.000000	0.505319
710.000000	0.505457
711.000000	0.505552
712.000000	0.505659
713.000000	0.505816
714.000000	0.505920
715.000000	0.506043
716.000000	0.506197
717.000000	0.506333
718.000000	0.506498
719.000000	0.506651
720.000000	0.506781
721.000000	0.506935
722.000000	0.507023
723.000000	0.507127
724.000000	0.507266
725.000000	0.507391
726.000000	0.507560
727.000000	0.507606
728.000000	0.507661
729.000000	0.507766
730.000000	0.507857
731.000000	0.508020
732.000000	0.508185
733.000000	0.508362
734.000000	0.508464
735.000000	0.508486
736.000000	0.508613
737.000000	0.508681
738.000000	0.508692
739.000000	0.508789
740.000000	0.508808
741.000000	0.508914
742.000000	0.509026
743.000000	0.509096
744.000000	0.509258
745.000000	0.509330
746.000000	0.509416
747.000000	0.509537
748.000000	0.509669
749.000000	0.509840
750.000000	0.509996
751.000000	0.510093
752.000000	0.510175
753.000000	0.510251
754.000000	0.510258
755.000000	0.510295
756.000000	0.510365
757.000000	0.510377
758.000000	0.510466
759.000000	0.510631
760.000000	0.510744
761.000000	0.510911
762.000000	0.510972
763.000000	0.510956
764.000000	0.511134
765.000000	0.511244
766.000000	0.511281
767.000000	0.511284
768.000000	0.511310
769.000000	0.511343
770.000000	0.511382
771.000000	0.511428
772.000000	0.511570
773.000000	0.511649
774.000000	0.511643
775.000000	0.511655
776.000000	0.511746
777.000000	0.511895
778.000000	0.511991
779.000000	0.512045
780.000000	0.512084
781.000000	0.512119
782.000000	0.512117
783.000000	0.512211
784.000000	0.512253
785.000000	0.512266
786.000000	0.512247
787.000000	0.512198
788.000000	0.512164
789.000000	0.512190
790.000000	0.512258
791.000000	0.512381
792.000000	0.512414
793.000000	0.512436
794.000000	0.512516
795.000000	0.512499
796.000000	0.512471
797.000000	0.512469
798.000000	0.512505
799.000000	0.512614
800.000000	0.512715
801.000000	0.512717
802.000000	0.512662
803.000000	0.512684
804.000000	0.512838
805.000000	0.512785
806.000000	0.512740
807.000000	0.512805
808.000000	0.512784
809.000000	0.512736
810.000000	0.512768
811.000000	0.512880
812.000000	0.512830
813.000000	0.512823
814.000000	0.512865
815.000000	0.512824
816.000000	0.512816
817.000000	0.512841
818.000000	0.512757
819.000000	0.512791
820.000000	0.512832
821.000000	0.512758
822.000000	0.512695
823.000000	0.512766
824.000000	0.512828
825.000000	0.512865
826.000000	0.513000
827.000000	0.513046
828.000000	0.512980
829.000000	0.512927
830.000000	0.512814
831.000000	0.512735
832.000000	0.512598
833.000000	0.512482
834.000000	0.512439
835.000000	0.512517
836.000000	0.512555
837.000000	0.512479
838.000000	0.512378
839.000000	0.512389
840.000000	0.512370
841.000000	0.512365
842.000000	0.512368
843.000000	0.512377
844.000000	0.512393
845.000000	0.512379
846.000000	0.512386
847.000000	0.512377
848.000000	0.512311
849.000000	0.512209
850.000000	0.512004
851.000000	0.511872
852.000000	0.511951
853.000000	0.512136
854.000000	0.512122
855.000000	0.512124
856.000000	0.512151
857.000000	0.511942
858.000000	0.511854
859.000000	0.511855
860.000000	0.511615
861.000000	0.511446
862.000000	0.511429
863.000000	0.511409
864.000000	0.511309
865.000000	0.511248
866.000000	0.511290
867.000000	0.511203
868.000000	0.511210
869.000000	0.511130
870.000000	0.510874
871.000000	0.510786
872.000000	0.510789
873.000000	0.510705
874.000000	0.510594
875.000000	0.510490
876.000000	0.510368
877.000000	0.510080
878.000000	0.509742
879.000000	0.509539
880.000000	0.509334
881.000000	0.509207
882.000000	0.509142
883.000000	0.509063
884.000000	0.508804
885.000000	0.508764
886.000000	0.508587
887.000000	0.508213
888.000000	0.508109
889.000000	0.508128
890.000000	0.508056
891.000000	0.508012
892.000000	0.507749
893.000000	0.507506
894.000000	0.507532
895.000000	0.507359
896.000000	0.507175
897.000000	0.507062
898.000000	0.507048
899.000000	0.506997
900.000000	0.506869
901.000000	0.506654
902.000000	0.506600
903.000000	0.506291
904.000000	0.505904
905.000000	0.505596
906.000000	0.505610
907.000000	0.505587
908.000000	0.505456
909.000000	0.505188
910.000000	0.504867
911.000000	0.504601
912.000000	0.504458
913.000000	0.504229
914.000000	0.504004
915.000000	0.503897
916.000000	0.503754
917.000000	0.503556
918.000000	0.503394
919.000000	0.503281
920.000000	0.503113
921.000000	0.503019
922.000000	0.502941
923.000000	0.502696
924.000000	0.502444
925.000000	0.502121
926.000000	0.501797
927.000000	0.501629
928.000000	0.501337
929.000000	0.501035
930.000000	0.500886
931.000000	0.500532
932.000000	0.500203
933.000000	0.500027
934.000000	0.499810
935.000000	0.499550
936.000000	0.499331
937.000000	0.499053
938.000000	0.498734
939.000000	0.498567
940.000000	0.498422
941.000000	0.498234
942.000000	0.497849
943.000000	0.497616
944.000000	0.497463
945.000000	0.497169
946.000000	0.496787
947.000000	0.496487
948.000000	0.496297
949.000000	0.496036
950.000000	0.495871
951.000000	0.495721
952.000000	0.495475
953.000000	0.495318
954.000000	0.495149
955.000000	0.494755
956.000000	0.494207
957.000000	0.493904
958.000000	0.493604
959.000000	0.493108
960.000000	0.492910
961.000000	0.492768
962.000000	0.492539
963.000000	0.492361
964.000000	0.492161
965.000000	0.491968
966.000000	0.491671
967.000000	0.491578
968.000000	0.491230
969.000000	0.490659
970.000000	0.490308
971.000000	0.489863
972.000000	0.489569
973.000000	0.489401
974.000000	0.489264
975.000000	0.489036
976.000000	0.488884
977.000000	0.488866
978.000000	0.488571
979.000000	0.488401
980.000000	0.488137
981.000000	0.488064
982.000000	0.487881
983.000000	0.487593
984.000000	0.487461
985.000000	0.487677
986.000000	0.487482
987.000000	0.487147
988.000000	0.486829
989.000000	0.486661
990.000000	0.486412
991.000000	0.486146
992.000000	0.486088
993.000000	0.486263
994.000000	0.485943
995.000000	0.485439
996.000000	0.485206
997.000000	0.485641
998.000000	0.486087
999.000000	0.486193
1000.000000	0.485870
1001.000000	0.486383
1002.000000	0.485968
1003.000000	0.485800
1004.000000	0.485825
1005.000000	0.485857
1006.000000	0.485614
1007.000000	0.485720
1008.000000	0.485571
1009.000000	0.484453
1010.000000	0.483395
1011.000000	0.483012
1012.000000	0.483055
1013.000000	0.482607
1014.000000	0.482593
1015.000000	0.483312
1016.000000	0.483456
1017.000000	0.483655
1018.000000	0.484510
1019.000000	0.485193
1020.000000	0.486049
1021.000000	0.485676
1022.000000	0.485280
1023.000000	0.485235
1024.000000	0.484256
1025.000000	0.483329
1026.000000	0.483696
1027.000000	0.483946
1028.000000	0.483688
1029.000000	0.483914
1030.000000	0.484460
1031.000000	0.484590
1032.000000	0.484173
1033.000000	0.484416
1034.000000	0.484595
1035.000000	0.484522
1036.000000	0.484487
1037.000000	0.484870
1038.000000	0.484713
1039.000000	0.483979
1040.000000	0.484283
1041.000000	0.484498
1042.000000	0.484756
1043.000000	0.485070
1044.000000	0.485322
1045.000000	0.485622
1046.000000	0.485429
1047.000000	0.485679
1048.000000	0.486203
1049.000000	0.486236
1050.000000	0.486163
1051.000000	0.486307
1052.000000	0.486157
1053.000000	0.486062
1054.000000	0.486512
1055.000000	0.486786
1056.000000	0.486895
1057.000000	0.487081
1058.000000	0.487740
1059.000000	0.487730
1060.000000	0.487464
1061.000000	0.487619
1062.000000	0.487495
1063.000000	0.487900
1064.000000	0.488242
1065.000000	0.488901
1066.000000	0.489264
1067.000000	0.489236
1068.000000	0.489465
1069.000000	0.490058
1070.000000	0.490216
1071.000000	0.490196
1072.000000	0.490414
1073.000000	0.490799
1074.000000	0.490601
1075.000000	0.490699
1076.000000	0.491173
1077.000000	0.491235
1078.000000	0.491322
1079.000000	0.491387
1080.000000	0.491439
1081.000000	0.491616
1082.000000	0.492020
1083.000000	0.492282
1084.000000	0.492819
1085.000000	0.493105
1086.000000	0.493052
1087.000000	0.493114
1088.000000	0.492800
1089.000000	0.492832
1090.000000	0.492968
1091.000000	0.493281
1092.000000	0.493267
1093.000000	0.494027
1094.000000	0.494401
1095.000000	0.494596
1096.000000	0.494680
1097.000000	0.494781
1098.000000	0.494893
1099.000000	0.494717
1100.000000	0.494783
1101.000000	0.494786
1102.000000	0.495027
1103.000000	0.495387
1104.000000	0.495768
1105.000000	0.496759
1106.000000	0.497049
1107.000000	0.496579
1108.000000	0.496465
1109.000000	0.496175
1110.000000	0.496107
1111.000000	0.496153
1112.000000	0.496597
1113.000000	0.496813
1114.000000	0.496990
1115.000000	0.497115
1116.000000	0.497294
1117.000000	0.497360
1118.000000	0.497366
1119.000000	0.497170
1120.000000	0.496483
1121.000000	0.496496
1122.000000	0.497031
1123.000000	0.497508
1124.000000	0.498138
1125.000000	0.498574
1126.000000	0.498671
1127.000000	0.498557
1128.000000	0.498314
1129.000000	0.497899
1130.000000	0.498008
1131.000000	0.498242
1132.000000	0.498190
1133.000000	0.498487
1134.000000	0.498637
1135.000000	0.498404
1136.000000	0.498159
1137.000000	0.498032
1138.000000	0.497820
1139.000000	0.497298
1140.000000	0.497229
1141.000000	0.497547
1142.000000	0.497621
1143.000000	0.497519
1144.000000	0.497678
1145.000000	0.497625
1146.000000	0.497490
1147.000000	0.497361
1148.000000	0.497136
1149.000000	0.497005
1150.000000	0.496870
1151.000000	0.496747
1152.000000	0.496565
1153.000000	0.496511
1154.000000	0.496446
1155.000000	0.496293
1156.000000	0.496291
1157.000000	0.496130
1158.000000	0.495634
1159.000000	0.495336
1160.000000	0.494983
1161.000000	0.494764
1162.000000	0.494731
1163.000000	0.494963
1164.000000	0.495035
1165.000000	0.494927
1166.000000	0.494894
1167.000000	0.494688
1168.000000	0.494548
1169.000000	0.494494
1170.000000	0.494490
1171.000000	0.494606
1172.000000	0.494605
1173.000000	0.494566
1174.000000	0.494460
1175.000000	0.494136
1176.000000	0.493915
1177.000000	0.493835
1178.000000	0.493762
1179.000000	0.493729
1180.000000	0.493589
1181.000000	0.493544
1182.000000	0.493543
1183.000000	0.493358
1184.000000	0.493351
1185.000000	0.493253
1186.000000	0.493103
1187.000000	0.492925
1188.000000	0.492707
1189.000000	0.492517
1190.000000	0.492410
1191.000000	0.492260
1192.000000	0.492287
1193.000000	0.492349
1194.000000	0.492085
1195.000000	0.492078
1196.000000	0.492286
1197.000000	0.492238
1198.000000	0.492207
1199.000000	0.492165
1200.000000	0.491909
1201.000000	0.491676
1202.000000	0.491700
1203.000000	0.491550
1204.000000	0.491474
1205.000000	0.491488
1206.000000	0.491342
1207.000000	0.491303
1208.000000	0.491198
1209.000000	0.491028
1210.000000	0.490955
1211.000000	0.491008
1212.000000	0.490918
1213.000000	0.490799
1214.000000	0.490828
1215.000000	0.490857
1216.000000	0.490829
1217.000000	0.490883
1218.000000	0.490811
1219.000000	0.490637
1220.000000	0.490519
1221.000000	0.490393
1222.000000	0.490247
1223.000000	0.490208
1224.000000	0.490147
1225.000000	0.490057
1226.000000	0.490095
1227.000000	0.490023
1228.000000	0.490014
1229.000000	0.489993
1230.000000	0.489986
1231.000000	0.489859
1232.000000	0.489875
1233.000000	0.489998
1234.000000	0.490049
1235.000000	0.490163
1236.000000	0.490305
1237.000000	0.490372
1238.000000	0.490351
1239.000000	0.490310
1240.000000	0.490194
1241.000000	0.490068
1242.000000	0.490065
1243.000000	0.490055
1244.000000	0.490058
1245.000000	0.490173
1246.000000	0.490071
1247.000000	0.490087
1248.000000	0.490171
1249.000000	0.490286
1250.000000	0.490466
1251.000000	0.490549
1252.000000	0.490643
1253.000000	0.490795
1254.000000	0.490777
1255.000000	0.490737
1256.000000	0.490605
1257.000000	0.490234
1258.000000	0.490182
1259.000000	0.490101
1260.000000	0.490152
1261.000000	0.490331
1262.000000	0.490443
1263.000000	0.490670
1264.000000	0.490702
1265.000000	0.490661
1266.000000	0.490661
1267.000000	0.490562
1268.000000	0.490509
1269.000000	0.490471
1270.000000	0.490551
1271.000000	0.490505
1272.000000	0.490507
1273.000000	0.490732
1274.000000	0.490658
1275.000000	0.490533
1276.000000	0.490392
1277.000000	0.490358
1278.000000	0.490039
1279.000000	0.489944
1280.000000	0.489877
1281.000000	0.489819
1282.000000	0.489944
1283.000000	0.490120
1284.000000	0.490327
1285.000000	0.490401
1286.000000	0.490367
1287.000000	0.490315
1288.000000	0.490316
1289.000000	0.490312
1290.000000	0.490292
1291.000000	0.490158
1292.000000	0.490019
1293.000000	0.489892
1294.000000	0.489810
1295.000000	0.489831
1296.000000	0.489720
1297.000000	0.489644
1298.000000	0.489712
1299.000000	0.489674
1300.000000	0.489676
1301.000000	0.489578
1302.000000	0.489355
1303.000000	0.489106
1304.000000	0.488940
1305.000000	0.488930
1306.000000	0.488796
1307.000000	0.488791
1308.000000	0.488673
1309.000000	0.488444
1310.000000	0.488185
1311.000000	0.487878
1312.000000	0.487519
1313.000000	0.487387
1314.000000	0.487211
1315.000000	0.487118
1316.000000	0.487114
1317.000000	0.486865
1318.000000	0.486664
1319.000000	0.486484
1320.000000	0.486258
1321.000000	0.485878
1322.000000	0.485403
1323.000000	0.485131
1324.000000	0.484900
1325.000000	0.484564
1326.000000	0.484282
1327.000000	0.483809
1328.000000	0.483314
1329.000000	0.482805
1330.000000	0.482294
1331.000000	0.481905
1332.000000	0.481643
1333.000000	0.481326
1334.000000	0.481291
1335.000000	0.481046
1336.000000	0.480579
1337.000000	0.480209
1338.000000	0.479777
1339.000000	0.479217
1340.000000	0.478822
1341.000000	0.478466
1342.000000	0.477806
1343.000000	0.477249
1344.000000	0.476768
1345.000000	0.476272
1346.000000	0.476069
1347.000000	0.475662
1348.000000	0.475149
1349.000000	0.474404
1350.000000	0.473637
1351.000000	0.473109
1352.000000	0.472681
1353.000000	0.472273
1354.000000	0.472036
1355.000000	0.471720
1356.000000	0.471282
1357.000000	0.470679
1358.000000	0.470025
1359.000000	0.469584
1360.000000	0.469123
1361.000000	0.468809
1362.000000	0.468329
1363.000000	0.467780
1364.000000	0.467232
1365.000000	0.466540
1366.000000	0.466027
1367.000000	0.465655
1368.000000	0.465073
1369.000000	0.464615
1370.000000	0.464018
1371.000000	0.463218
1372.000000	0.462441
1373.000000	0.461687
1374.000000	0.460814
1375.000000	0.459896
1376.000000	0.458959
1377.000000	0.457742
1378.000000	0.456419
1379.000000	0.454988
1380.000000	0.453330
1381.000000	0.451352
1382.000000	0.449144
1383.000000	0.446930
1384.000000	0.444608
1385.000000	0.442336
1386.000000	0.440262
1387.000000	0.438157
1388.000000	0.436107
1389.000000	0.434410
1390.000000	0.432907
1391.000000	0.431649
1392.000000	0.430686
1393.000000	0.429734
1394.000000	0.429109
1395.000000	0.428372
1396.000000	0.427737
1397.000000	0.426734
1398.000000	0.425546
1399.000000	0.424190
1400.000000	0.422605
1401.000000	0.420958
1402.000000	0.419305
1403.000000	0.417405
1404.000000	0.415427
1405.000000	0.413337
1406.000000	0.411306
1407.000000	0.409277
1408.000000	0.407093
1409.000000	0.405021
1410.000000	0.402934
1411.000000	0.400785
1412.000000	0.398727
1413.000000	0.396678
1414.000000	0.394529
1415.000000	0.392485
1416.000000	0.390592
1417.000000	0.388693
1418.000000	0.386739
1419.000000	0.384855
1420.000000	0.382844
1421.000000	0.380990
1422.000000	0.379262
1423.000000	0.377544
1424.000000	0.375797
1425.000000	0.374103
1426.000000	0.372383
1427.000000	0.370738
1428.000000	0.369196
1429.000000	0.367724
1430.000000	0.366299
1431.000000	0.364839
1432.000000	0.363483
1433.000000	0.362306
1434.000000	0.361033
1435.000000	0.359861
1436.000000	0.358665
1437.000000	0.357397
1438.000000	0.356108
1439.000000	0.354864
1440.000000	0.353728
1441.000000	0.352622
1442.000000	0.351591
1443.000000	0.350610
1444.000000	0.349595
1445.000000	0.348568
1446.000000	0.347606
1447.000000	0.346619
1448.000000	0.345684
1449.000000	0.344884
1450.000000	0.344047
1451.000000	0.343291
1452.000000	0.342613
1453.000000	0.341908
1454.000000	0.341272
1455.000000	0.340787
1456.000000	0.340373
1457.000000	0.339928
1458.000000	0.339471
1459.000000	0.338970
1460.000000	0.338469
1461.000000	0.338070
1462.000000	0.337802
1463.000000	0.337552
1464.000000	0.337361
1465.000000	0.337303
1466.000000	0.337151
1467.000000	0.336971
1468.000000	0.336889
1469.000000	0.336838
1470.000000	0.336710
1471.000000	0.336720
1472.000000	0.336855
1473.000000	0.337140
1474.000000	0.337451
1475.000000	0.337769
1476.000000	0.338169
1477.000000	0.338574
1478.000000	0.339027
1479.000000	0.339632
1480.000000	0.340221
1481.000000	0.340804
1482.000000	0.341500
1483.000000	0.342178
1484.000000	0.342807
1485.000000	0.343461
1486.000000	0.344083
1487.000000	0.344700
1488.000000	0.345376
1489.000000	0.346091
1490.000000	0.346653
1491.000000	0.347397
1492.000000	0.348230
1493.000000	0.348961
1494.000000	0.349671
1495.000000	0.350358
1496.000000	0.350975
1497.000000	0.351596
1498.000000	0.352269
1499.000000	0.352850
1500.000000	0.353428
1501.000000	0.354075
1502.000000	0.354688
1503.000000	0.355320
1504.000000	0.355971
1505.000000	0.356511
1506.000000	0.356986
1507.000000	0.357546
1508.000000	0.358192
1509.000000	0.358687
1510.000000	0.359150
1511.000000	0.359670
1512.000000	0.359957
1513.000000	0.360315
1514.000000	0.360802
1515.000000	0.361204
1516.000000	0.361769
1517.000000	0.362136
1518.000000	0.362398
1519.000000	0.362697
1520.000000	0.362867
1521.000000	0.363042
1522.000000	0.363371
1523.000000	0.363713
1524.000000	0.363911
1525.000000	0.364135
1526.000000	0.364360
1527.000000	0.364569
1528.000000	0.364774
1529.000000	0.365009
1530.000000	0.365284
1531.000000	0.365449
1532.000000	0.365608
1533.000000	0.365845
1534.000000	0.365935
1535.000000	0.366013
1536.000000	0.366178
1537.000000	0.366394
1538.000000	0.366520
1539.000000	0.366572
1540.000000	0.366720
1541.000000	0.366858
1542.000000	0.366937
1543.000000	0.367090
1544.000000	0.367256
1545.000000	0.367424
1546.000000	0.367536
1547.000000	0.367634
1548.000000	0.367729
1549.000000	0.367686
1550.000000	0.367758
1551.000000	0.367907
1552.000000	0.367953
1553.000000	0.368093
1554.000000	0.368218
1555.000000	0.368300
1556.000000	0.368399
1557.000000	0.368409
1558.000000	0.368415
1559.000000	0.368294
1560.000000	0.368203
1561.000000	0.368124
1562.000000	0.368032
1563.000000	0.367991
1564.000000	0.367949
1565.000000	0.367916
1566.000000	0.367834
1567.000000	0.367840
1568.000000	0.367801
1569.000000	0.367802
1570.000000	0.367777
1571.000000	0.367674
1572.000000	0.367657
1573.000000	0.367731
1574.000000	0.367762
1575.000000	0.367885
1576.000000	0.367890
1577.000000	0.367740
1578.000000	0.367697
1579.000000	0.367726
1580.000000	0.367738
1581.000000	0.367868
1582.000000	0.367951
1583.000000	0.368066
1584.000000	0.367984
1585.000000	0.367871
1586.000000	0.367885
1587.000000	0.367785
1588.000000	0.367742
1589.000000	0.367859
1590.000000	0.367958
1591.000000	0.368060
1592.000000	0.368140
1593.000000	0.368352
1594.000000	0.368422
1595.000000	0.368398
1596.000000	0.368461
1597.000000	0.368577
1598.000000	0.368594
1599.000000	0.368655
1600.000000	0.368606
1601.000000	0.368468
1602.000000	0.368518
1603.000000	0.368680
1604.000000	0.368737
1605.000000	0.368895
1606.000000	0.369032
1607.000000	0.369162
1608.000000	0.369259
1609.000000	0.369461
1610.000000	0.369513
1611.000000	0.369405
1612.000000	0.369418
1613.000000	0.369601
1614.000000	0.369717
1615.000000	0.369903
1616.000000	0.370120
1617.000000	0.370243
1618.000000	0.370436
1619.000000	0.370652
1620.000000	0.370912
1621.000000	0.371264
1622.000000	0.371639
1623.000000	0.372060
1624.000000	0.372434
1625.000000	0.372641
1626.000000	0.372858
1627.000000	0.372985
1628.000000	0.373276
1629.000000	0.373657
1630.000000	0.374044
1631.000000	0.374496
1632.000000	0.374847
1633.000000	0.375109
1634.000000	0.375463
1635.000000	0.375885
1636.000000	0.376242
1637.000000	0.376656
1638.000000	0.376968
1639.000000	0.377272
1640.000000	0.377558
1641.000000	0.377825
1642.000000	0.378221
1643.000000	0.378718
1644.000000	0.379129
1645.000000	0.379663
1646.000000	0.379977
1647.000000	0.380134
1648.000000	0.380317
1649.000000	0.380522
1650.000000	0.380835
1651.000000	0.381212
1652.000000	0.381654
1653.000000	0.382148
1654.000000	0.382615
1655.000000	0.383052
1656.000000	0.383352
1657.000000	0.383706
1658.000000	0.383940
1659.000000	0.384129
1660.000000	0.384470
1661.000000	0.384729
1662.000000	0.385065
1663.000000	0.385442
1664.000000	0.385879
1665.000000	0.386355
1666.000000	0.386880
1667.000000	0.387473
1668.000000	0.387824
1669.000000	0.387968
1670.000000	0.388256
1671.000000	0.388602
1672.000000	0.389017
1673.000000	0.389553
1674.000000	0.389893
1675.000000	0.390363
1676.000000	0.390769
1677.000000	0.391031
1678.000000	0.391382
1679.000000	0.391629
1680.000000	0.391891
1681.000000	0.392256
1682.000000	0.392560
1683.000000	0.392906
1684.000000	0.393026
1685.000000	0.393145
1686.000000	0.393481
1687.000000	0.393720
1688.000000	0.393979
1689.000000	0.394397
1690.000000	0.394364
1691.000000	0.394330
1692.000000	0.394619
1693.000000	0.394875
1694.000000	0.395261
1695.000000	0.395723
1696.000000	0.395665
1697.000000	0.395757
1698.000000	0.395916
1699.000000	0.396086
1700.000000	0.396430
1701.000000	0.396710
1702.000000	0.396617
1703.000000	0.396663
1704.000000	0.396871
1705.000000	0.397033
1706.000000	0.397347
1707.000000	0.397530
1708.000000	0.397525
1709.000000	0.397542
1710.000000	0.397578
1711.000000	0.397762
1712.000000	0.398170
1713.000000	0.398384
1714.000000	0.398663
1715.000000	0.398859
1716.000000	0.398848
1717.000000	0.398964
1718.000000	0.399133
1719.000000	0.399244
1720.000000	0.399371
1721.000000	0.399577
1722.000000	0.399836
1723.000000	0.400043
1724.000000	0.400272
1725.000000	0.400637
1726.000000	0.400957
1727.000000	0.401227
1728.000000	0.401565
1729.000000	0.401690
1730.000000	0.401701
1731.000000	0.401918
1732.000000	0.402257
1733.000000	0.402546
1734.000000	0.402750
1735.000000	0.402909
1736.000000	0.402882
1737.000000	0.403062
1738.000000	0.403321
1739.000000	0.403635
1740.000000	0.404089
1741.000000	0.404325
1742.000000	0.404516
1743.000000	0.404793
1744.000000	0.404971
1745.000000	0.405179
1746.000000	0.405471
1747.000000	0.405601
1748.000000	0.405692
1749.000000	0.405761
1750.000000	0.405830
1751.000000	0.406095
1752.000000	0.406359
1753.000000	0.406433
1754.000000	0.406551
1755.000000	0.406522
1756.000000	0.406591
1757.000000	0.406778
1758.000000	0.406938
1759.000000	0.407097
1760.000000	0.407265
1761.000000	0.407283
1762.000000	0.407494
1763.000000	0.408001
1764.000000	0.408222
1765.000000	0.408289
1766.000000	0.408517
1767.000000	0.408456
1768.000000	0.408620
1769.000000	0.409302
1770.000000	0.409646
1771.000000	0.409838
1772.000000	0.409963
1773.000000	0.409791
1774.000000	0.409869
1775.000000	0.410080
1776.000000	0.410275
1777.000000	0.410621
1778.000000	0.410640
1779.000000	0.410359
1780.000000	0.410471
1781.000000	0.410521
1782.000000	0.410754
1783.000000	0.411441
1784.000000	0.411798
1785.000000	0.411786
1786.000000	0.411741
1787.000000	0.411958
1788.000000	0.412300
1789.000000	0.412556
1790.000000	0.412903
1791.000000	0.413185
1792.000000	0.413483
1793.000000	0.413779
1794.000000	0.414242
1795.000000	0.414538
1796.000000	0.414682
1797.000000	0.414812
1798.000000	0.414678
1799.000000	0.414817
1800.000000	0.415218
1801.000000	0.414538
1802.000000	0.414906
1803.000000	0.415270
1804.000000	0.415544
1805.000000	0.415783
1806.000000	0.415992
1807.000000	0.416069
1808.000000	0.416172
1809.000000	0.416445
1810.000000	0.416285
1811.000000	0.416208
1812.000000	0.416150
1813.000000	0.416077
1814.000000	0.415719
1815.000000	0.415870
1816.000000	0.416538
1817.000000	0.416601
1818.000000	0.416471
1819.000000	0.416718
1820.000000	0.417716
1821.000000	0.417782
1822.000000	0.418190
1823.000000	0.419320
1824.000000	0.419438
1825.000000	0.418658
1826.000000	0.418515
1827.000000	0.418231
1828.000000	0.417764
1829.000000	0.418138
1830.000000	0.418138
1831.000000	0.417874
1832.000000	0.417614
1833.000000	0.417328
1834.000000	0.416805
1835.000000	0.415970
1836.000000	0.414342
1837.000000	0.413607
1838.000000	0.412798
1839.000000	0.412180
1840.000000	0.412265
1841.000000	0.413542
1842.000000	0.413164
1843.000000	0.411698
1844.000000	0.411097
1845.000000	0.409524
1846.000000	0.408958
1847.000000	0.409317
1848.000000	0.409488
1849.000000	0.409121
1850.000000	0.408496
1851.000000	0.407641
1852.000000	0.405968
1853.000000	0.405124
1854.000000	0.404541
1855.000000	0.403362
1856.000000	0.402221
1857.000000	0.400486
1858.000000	0.398382
1859.000000	0.396387
1860.000000	0.394440
1861.000000	0.392234
1862.000000	0.390181
1863.000000	0.388301
1864.000000	0.386469
1865.000000	0.384832
1866.000000	0.382826
1867.000000	0.381041
1868.000000	0.378139
1869.000000	0.374982
1870.000000	0.372188
1871.000000	0.368926
1872.000000	0.366189
1873.000000	0.363078
1874.000000	0.360140
1875.000000	0.356357
1876.000000	0.352134
1877.000000	0.346748
1878.000000	0.341349
1879.000000	0.336206
1880.000000	0.331982
1881.000000	0.327647
1882.000000	0.323212
1883.000000	0.319588
1884.000000	0.315097
1885.000000	0.310147
1886.000000	0.304647
1887.000000	0.298794
1888.000000	0.291719
1889.000000	0.284600
1890.000000	0.278686
1891.000000	0.273462
1892.000000	0.268079
1893.000000	0.262476
1894.000000	0.257021
1895.000000	0.251477
1896.000000	0.245725
1897.000000	0.240273
1898.000000	0.234987
1899.000000	0.229715
1900.000000	0.225320
1901.000000	0.220886
1902.000000	0.216345
1903.000000	0.212532
1904.000000	0.208181
1905.000000	0.203479
1906.000000	0.199156
1907.000000	0.195180
1908.000000	0.191278
1909.000000	0.187523
1910.000000	0.184455
1911.000000	0.181966
1912.000000	0.179488
1913.000000	0.177059
1914.000000	0.174346
1915.000000	0.171752
1916.000000	0.169274
1917.000000	0.166797
1918.000000	0.164367
1919.000000	0.162477
1920.000000	0.160444
1921.000000	0.158637
1922.000000	0.157576
1923.000000	0.156648
1924.000000	0.155767
1925.000000	0.155481
1926.000000	0.154929
1927.000000	0.154536
1928.000000	0.154488
1929.000000	0.154985
1930.000000	0.154852
1931.000000	0.155161
1932.000000	0.155549
1933.000000	0.155219
1934.000000	0.155104
1935.000000	0.154877
1936.000000	0.154960
1937.000000	0.155199
1938.000000	0.155102
1939.000000	0.155096
1940.000000	0.155132
1941.000000	0.155018
1942.000000	0.154895
1943.000000	0.154887
1944.000000	0.154903
1945.000000	0.154369
1946.000000	0.153495
1947.000000	0.152660
1948.000000	0.151978
1949.000000	0.151925
1950.000000	0.152235
1951.000000	0.151978
1952.000000	0.151856
1953.000000	0.151228
1954.000000	0.150238
1955.000000	0.149112
1956.000000	0.148451
1957.000000	0.148172
1958.000000	0.147825
1959.000000	0.147660
1960.000000	0.147379
1961.000000	0.147244
1962.000000	0.147098
1963.000000	0.147088
1964.000000	0.146750
1965.000000	0.146645
1966.000000	0.146414
1967.000000	0.146214
1968.000000	0.146076
1969.000000	0.145810
1970.000000	0.145824
1971.000000	0.145662
1972.000000	0.145648
1973.000000	0.145606
1974.000000	0.145491
1975.000000	0.145723
1976.000000	0.146125
1977.000000	0.146666
1978.000000	0.147589
1979.000000	0.148106
1980.000000	0.148371
1981.000000	0.148949
1982.000000	0.149190
1983.000000	0.149625
1984.000000	0.150255
1985.000000	0.151354
1986.000000	0.151702
1987.000000	0.151894
1988.000000	0.152104
1989.000000	0.151819
1990.000000	0.151980
1991.000000	0.152703
1992.000000	0.153520
1993.000000	0.154455
1994.000000	0.155385
1995.000000	0.156487
1996.000000	0.157750
1997.000000	0.158815
1998.000000	0.159803
1999.000000	0.160988
2000.000000	0.162161
2001.000000	0.163493
2002.000000	0.164328
2003.000000	0.165262
2004.000000	0.166263
2005.000000	0.166887
2006.000000	0.168233
2007.000000	0.170273
2008.000000	0.171692
2009.000000	0.172732
2010.000000	0.174046
2011.000000	0.175064
2012.000000	0.176317
2013.000000	0.177858
2014.000000	0.179185
2015.000000	0.180402
2016.000000	0.181830
2017.000000	0.182622
2018.000000	0.183761
2019.000000	0.185443
2020.000000	0.186638
2021.000000	0.187843
2022.000000	0.189237
2023.000000	0.190463
2024.000000	0.191371
2025.000000	0.192516
2026.000000	0.193679
2027.000000	0.194894
2028.000000	0.196216
2029.000000	0.197356
2030.000000	0.198838
2031.000000	0.200169
2032.000000	0.201556
2033.000000	0.202911
2034.000000	0.203991
2035.000000	0.204983
2036.000000	0.205914
2037.000000	0.206300
2038.000000	0.207542
2039.000000	0.209287
2040.000000	0.211122
2041.000000	0.212711
2042.000000	0.214668
2043.000000	0.216206
2044.000000	0.217455
2045.000000	0.219271
2046.000000	0.220511
2047.000000	0.221492
2048.000000	0.222079
2049.000000	0.222655
2050.000000	0.222110
2051.000000	0.222893
2052.000000	0.224173
2053.000000	0.225202
2054.000000	0.227037
2055.000000	0.228973
2056.000000	0.229349
2057.000000	0.230484
2058.000000	0.232030
2059.000000	0.233125
2060.000000	0.234181
2061.000000	0.235528
2062.000000	0.236180
2063.000000	0.236175
2064.000000	0.236468
2065.000000	0.236500
2066.000000	0.237283
2067.000000	0.238581
2068.000000	0.240274
2069.000000	0.242045
2070.000000	0.243613
2071.000000	0.244895
2072.000000	0.245593
2073.000000	0.246343
2074.000000	0.247708
2075.000000	0.248806
2076.000000	0.249862
2077.000000	0.250824
2078.000000	0.251719
2079.000000	0.252546
2080.000000	0.253254
2081.000000	0.254320
2082.000000	0.255488
2083.000000	0.256794
2084.000000	0.258176
2085.000000	0.259372
2086.000000	0.260305
2087.000000	0.261059
2088.000000	0.262181
2089.000000	0.263078
2090.000000	0.264273
2091.000000	0.265825
2092.000000	0.267257
2093.000000	0.268956
2094.000000	0.270384
2095.000000	0.272110
2096.000000	0.273186
2097.000000	0.273811
2098.000000	0.273764
2099.000000	0.274319
2100.000000	0.274697
2101.000000	0.275510
2102.000000	0.276675
2103.000000	0.277523
2104.000000	0.278700
2105.000000	0.279727
2106.000000	0.281037
2107.000000	0.282080
2108.000000	0.282750
2109.000000	0.283634
2110.000000	0.284303
2111.000000	0.284868
2112.000000	0.285214
2113.000000	0.285934
2114.000000	0.286534
2115.000000	0.287473
2116.000000	0.288479
2117.000000	0.289004
2118.000000	0.289393
2119.000000	0.290585
2120.000000	0.291509
2121.000000	0.292645
2122.000000	0.293613
2123.000000	0.294702
2124.000000	0.295120
2125.000000	0.295191
2126.000000	0.295354
2127.000000	0.294579
2128.000000	0.294862
2129.000000	0.295618
2130.000000	0.296757
2131.000000	0.297598
2132.000000	0.298886
2133.000000	0.299721
2134.000000	0.299774
2135.000000	0.300236
2136.000000	0.300141
2137.000000	0.300287
2138.000000	0.300523
2139.000000	0.300862
2140.000000	0.301124
2141.000000	0.301525
2142.000000	0.302026
2143.000000	0.302201
2144.000000	0.302838
2145.000000	0.303071
2146.000000	0.303084
2147.000000	0.302863
2148.000000	0.303275
2149.000000	0.303746
2150.000000	0.305105
2151.000000	0.306124
2152.000000	0.305598
2153.000000	0.305484
2154.000000	0.304953
2155.000000	0.303254
2156.000000	0.302776
2157.000000	0.302833
2158.000000	0.302962
2159.000000	0.303845
2160.000000	0.304382
2161.000000	0.304828
2162.000000	0.305251
2163.000000	0.305617
2164.000000	0.305743
2165.000000	0.305510
2166.000000	0.305919
2167.000000	0.305997
2168.000000	0.305712
2169.000000	0.305441
2170.000000	0.304724
2171.000000	0.304906
2172.000000	0.305360
2173.000000	0.305828
2174.000000	0.307197
2175.000000	0.307828
2176.000000	0.308150
2177.000000	0.308000
2178.000000	0.307236
2179.000000	0.307330
2180.000000	0.307267
2181.000000	0.307632
2182.000000	0.308274
2183.000000	0.308730
2184.000000	0.309215
2185.000000	0.309038
2186.000000	0.308197
2187.000000	0.307024
2188.000000	0.307369
2189.000000	0.308037
2190.000000	0.308347
2191.000000	0.310507
2192.000000	0.311068
2193.000000	0.310142
2194.000000	0.308925
2195.000000	0.307051
2196.000000	0.305699
2197.000000	0.302471
2198.000000	0.301773
2199.000000	0.303963
2200.000000	0.305043
2201.000000	0.307176
2202.000000	0.308276
2203.000000	0.308859
2204.000000	0.308024
2205.000000	0.307035
2206.000000	0.308036
2207.000000	0.306723
2208.000000	0.306741
2209.000000	0.305861
2210.000000	0.303610
2211.000000	0.304182
2212.000000	0.304410
2213.000000	0.305575
2214.000000	0.309223
2215.000000	0.309966
2216.000000	0.309437
2217.000000	0.309620
2218.000000	0.307769
2219.000000	0.308604
2220.000000	0.312618
2221.000000	0.313582
2222.000000	0.315067
2223.000000	0.314376
2224.000000	0.310591
2225.000000	0.307043
2226.000000	0.306402
2227.000000	0.305836
2228.000000	0.305345
2229.000000	0.307434
2230.000000	0.308299
2231.000000	0.307273
2232.000000	0.307406
2233.000000	0.307338
2234.000000	0.307078
2235.000000	0.306886
2236.000000	0.306478
2237.000000	0.306741
2238.000000	0.305647
2239.000000	0.302760
2240.000000	0.302569
2241.000000	0.302995
2242.000000	0.303142
2243.000000	0.304613
2244.000000	0.305387
2245.000000	0.305805
2246.000000	0.306560
2247.000000	0.307169
2248.000000	0.308376
2249.000000	0.310432
2250.000000	0.310702
2251.000000	0.312165
2252.000000	0.313715
2253.000000	0.312774
2254.000000	0.312622
2255.000000	0.312939
2256.000000	0.313424
2257.000000	0.313417
2258.000000	0.312316
2259.000000	0.308715
2260.000000	0.305548
2261.000000	0.303960
2262.000000	0.303560
2263.000000	0.301938
2264.000000	0.300959
2265.000000	0.299453
2266.000000	0.295958
2267.000000	0.294926
2268.000000	0.295613
2269.000000	0.296074
2270.000000	0.297852
2271.000000	0.298605
2272.000000	0.299622
2273.000000	0.299634
2274.000000	0.298136
2275.000000	0.297441
2276.000000	0.297291
2277.000000	0.294916
2278.000000	0.294151
2279.000000	0.293685
2280.000000	0.291813
2281.000000	0.290912
2282.000000	0.290260
2283.000000	0.289059
2284.000000	0.288243
2285.000000	0.288046
2286.000000	0.288771
2287.000000	0.288298
2288.000000	0.285785
2289.000000	0.283262
2290.000000	0.279089
2291.000000	0.275864
2292.000000	0.275783
2293.000000	0.276691
2294.000000	0.276728
2295.000000	0.277238
2296.000000	0.276882
2297.000000	0.275285
2298.000000	0.274703
2299.000000	0.275736
2300.000000	0.274745
2301.000000	0.272770
2302.000000	0.270408
2303.000000	0.265143
2304.000000	0.262795
2305.000000	0.262890
2306.000000	0.261778
2307.000000	0.261732
2308.000000	0.260316
2309.000000	0.256239
2310.000000	0.253487
2311.000000	0.253089
2312.000000	0.253668
2313.000000	0.256667
2314.000000	0.257567
2315.000000	0.255482
2316.000000	0.255064
2317.000000	0.252598
2318.000000	0.250213
2319.000000	0.251013
2320.000000	0.248970
2321.000000	0.248298
2322.000000	0.248823
2323.000000	0.248232
2324.000000	0.248749
2325.000000	0.246844
2326.000000	0.244619
2327.000000	0.243599
2328.000000	0.241638
2329.000000	0.241418
2330.000000	0.241418
2331.000000	0.238482
2332.000000	0.236762
2333.000000	0.235788
2334.000000	0.235336
2335.000000	0.234726
2336.000000	0.235395
2337.000000	0.232972
2338.000000	0.227151
2339.000000	0.224014
2340.000000	0.219831
2341.000000	0.218242
2342.000000	0.220673
2343.000000	0.221774
2344.000000	0.224300
2345.000000	0.224529
2346.000000	0.223081
2347.000000	0.220372
2348.000000	0.215849
2349.000000	0.211701
2350.000000	0.207227
2351.000000	0.204474
2352.000000	0.204002
2353.000000	0.204649
2354.000000	0.205347
2355.000000	0.208197
2356.000000	0.210586
2357.000000	0.207855
2358.000000	0.203129
2359.000000	0.197617
2360.000000	0.191071
2361.000000	0.188126
2362.000000	0.188217
2363.000000	0.190205
2364.000000	0.191606
2365.000000	0.191367
2366.000000	0.189370
2367.000000	0.187257
2368.000000	0.189025
2369.000000	0.188190
2370.000000	0.187128
2371.000000	0.187641
2372.000000	0.183742
2373.000000	0.182618
2374.000000	0.180501
2375.000000	0.176477
2376.000000	0.176862
2377.000000	0.175715
2378.000000	0.177631
2379.000000	0.180396
2380.000000	0.176832
2381.000000	0.169671
2382.000000	0.162785
2383.000000	0.161803
2384.000000	0.162609
2385.000000	0.162458
2386.000000	0.164714
2387.000000	0.163907
2388.000000	0.162575
2389.000000	0.168734
2390.000000	0.175386
2391.000000	0.174631
2392.000000	0.167145
2393.000000	0.161501
2394.000000	0.155205
2395.000000	0.150892
2396.000000	0.155482
2397.000000	0.158086
2398.000000	0.160570
2399.000000	0.161544
2400.000000	0.156127
2401.000000	0.156718
2402.000000	0.156226
2403.000000	0.153216
2404.000000	0.155312
2405.000000	0.151455
2406.000000	0.149894
2407.000000	0.154651
2408.000000	0.154191
2409.000000	0.157727
2410.000000	0.161051
2411.000000	0.155350
2412.000000	0.151891
2413.000000	0.146937
2414.000000	0.146335
2415.000000	0.151681
2416.000000	0.155188
2417.000000	0.157749
2418.000000	0.149122
2419.000000	0.135798
2420.000000	0.126651
2421.000000	0.123074
2422.000000	0.121845
2423.000000	0.123087
2424.000000	0.129765
2425.000000	0.126908
2426.000000	0.124437
2427.000000	0.129790
2428.000000	0.127868
2429.000000	0.133225
2430.000000	0.138341
2431.000000	0.137264
2432.000000	0.149649
2433.000000	0.152033
2434.000000	0.147956
2435.000000	0.147168
2436.000000	0.131472
2437.000000	0.123189
2438.000000	0.120906
2439.000000	0.122199
2440.000000	0.133966
2441.000000	0.140381
2442.000000	0.139613
2443.000000	0.130993
2444.000000	0.124707
2445.000000	0.125497
2446.000000	0.130297
2447.000000	0.137894
2448.000000	0.133412
2449.000000	0.122519
2450.000000	0.111976
2451.000000	0.104842
2452.000000	0.108472
2453.000000	0.107590
2454.000000	0.109424
2455.000000	0.106302
2456.000000	0.102845
2457.000000	0.114574
2458.000000	0.124167
2459.000000	0.144804
2460.000000	0.153258
2461.000000	0.144574
2462.000000	0.131525
2463.000000	0.121022
2464.000000	0.125980
2465.000000	0.116981
2466.000000	0.117417
2467.000000	0.118709
2468.000000	0.099933
2469.000000	0.097725
2470.000000	0.109441
2471.000000	0.113669
2472.000000	0.115419
2473.000000	0.136711
2474.000000	0.143908
2475.000000	0.099291
2476.000000	0.065282
2477.000000	0.046417
2478.000000	0.009907
2479.000000	0.041522
2480.000000	0.087438
2481.000000	0.089518
2482.000000	0.086524
2483.000000	0.052763
2484.000000	0.009966
2485.000000	-0.015265
2486.000000	-0.018399
2487.000000	0.021812
2488.000000	0.074439
2489.000000	0.108715
2490.000000	0.134245
2491.000000	0.055411
2492.000000	0.043225
2493.000000	0.044064
2494.000000	0.052839
2495.000000	0.148384
2496.000000	0.192988
2497.000000	0.208318
2498.000000	0.202474
2499.000000	0.141421
2500.000000	0.126500
