# Wavelength	SM1200H-50_HEX-40_FV7-10_00000.asd.rts.txt
350.000000	0.374456
351.000000	0.387576
352.000000	0.393903
353.000000	0.390477
354.000000	0.385308
355.000000	0.389808
356.000000	0.397985
357.000000	0.405529
358.000000	0.401557
359.000000	0.395509
360.000000	0.396778
361.000000	0.408957
362.000000	0.405970
363.000000	0.401238
364.000000	0.403707
365.000000	0.408435
366.000000	0.407045
367.000000	0.402066
368.000000	0.407228
369.000000	0.408062
370.000000	0.407865
371.000000	0.413135
372.000000	0.412450
373.000000	0.412060
374.000000	0.416320
375.000000	0.416594
376.000000	0.416018
377.000000	0.415315
378.000000	0.413442
379.000000	0.412334
380.000000	0.412118
381.000000	0.413556
382.000000	0.414766
383.000000	0.415617
384.000000	0.416748
385.000000	0.418835
386.000000	0.419396
387.000000	0.418897
388.000000	0.420378
389.000000	0.422200
390.000000	0.423751
391.000000	0.424145
392.000000	0.422229
393.000000	0.421011
394.000000	0.422609
395.000000	0.425193
396.000000	0.426623
397.000000	0.426569
398.000000	0.426999
399.000000	0.428173
400.000000	0.429982
401.000000	0.431700
402.000000	0.431230
403.000000	0.430248
404.000000	0.430595
405.000000	0.430476
406.000000	0.431193
407.000000	0.432706
408.000000	0.432113
409.000000	0.432324
410.000000	0.433478
411.000000	0.434157
412.000000	0.434907
413.000000	0.435492
414.000000	0.435711
415.000000	0.436095
416.000000	0.436735
417.000000	0.437412
418.000000	0.437254
419.000000	0.436885
420.000000	0.436917
421.000000	0.438069
422.000000	0.438900
423.000000	0.439003
424.000000	0.438651
425.000000	0.439411
426.000000	0.440224
427.000000	0.440266
428.000000	0.440533
429.000000	0.441169
430.000000	0.441875
431.000000	0.441581
432.000000	0.442169
433.000000	0.443153
434.000000	0.443207
435.000000	0.443297
436.000000	0.443488
437.000000	0.443736
438.000000	0.444641
439.000000	0.444966
440.000000	0.444576
441.000000	0.444980
442.000000	0.445402
443.000000	0.445648
444.000000	0.446153
445.000000	0.446615
446.000000	0.446911
447.000000	0.446784
448.000000	0.447309
449.000000	0.447923
450.000000	0.448197
451.000000	0.448396
452.000000	0.448831
453.000000	0.449305
454.000000	0.449417
455.000000	0.449516
456.000000	0.449908
457.000000	0.450514
458.000000	0.450747
459.000000	0.451107
460.000000	0.451993
461.000000	0.452081
462.000000	0.452233
463.000000	0.452607
464.000000	0.452999
465.000000	0.453137
466.000000	0.453032
467.000000	0.453147
468.000000	0.453668
469.000000	0.453902
470.000000	0.453517
471.000000	0.453972
472.000000	0.454617
473.000000	0.454933
474.000000	0.455036
475.000000	0.455090
476.000000	0.455345
477.000000	0.455518
478.000000	0.455722
479.000000	0.456121
480.000000	0.456289
481.000000	0.456417
482.000000	0.456708
483.000000	0.456950
484.000000	0.457496
485.000000	0.457683
486.000000	0.457644
487.000000	0.457943
488.000000	0.458186
489.000000	0.458474
490.000000	0.459170
491.000000	0.459398
492.000000	0.459565
493.000000	0.460055
494.000000	0.460329
495.000000	0.460680
496.000000	0.461187
497.000000	0.461406
498.000000	0.461636
499.000000	0.462066
500.000000	0.462420
501.000000	0.462766
502.000000	0.463181
503.000000	0.463586
504.000000	0.463811
505.000000	0.464029
506.000000	0.464391
507.000000	0.464534
508.000000	0.464808
509.000000	0.465283
510.000000	0.465676
511.000000	0.465984
512.000000	0.466295
513.000000	0.466685
514.000000	0.467029
515.000000	0.467393
516.000000	0.467771
517.000000	0.468104
518.000000	0.468465
519.000000	0.468763
520.000000	0.469015
521.000000	0.469260
522.000000	0.469549
523.000000	0.469955
524.000000	0.470277
525.000000	0.470478
526.000000	0.470700
527.000000	0.471035
528.000000	0.471346
529.000000	0.471581
530.000000	0.471888
531.000000	0.472276
532.000000	0.472575
533.000000	0.472814
534.000000	0.473152
535.000000	0.473550
536.000000	0.473823
537.000000	0.474086
538.000000	0.474346
539.000000	0.474566
540.000000	0.474937
541.000000	0.475282
542.000000	0.475509
543.000000	0.475807
544.000000	0.476162
545.000000	0.476448
546.000000	0.476753
547.000000	0.477140
548.000000	0.477568
549.000000	0.477747
550.000000	0.478054
551.000000	0.478473
552.000000	0.478796
553.000000	0.479081
554.000000	0.479402
555.000000	0.479801
556.000000	0.480223
557.000000	0.480506
558.000000	0.480821
559.000000	0.481132
560.000000	0.481405
561.000000	0.481786
562.000000	0.482234
563.000000	0.482523
564.000000	0.482837
565.000000	0.483192
566.000000	0.483471
567.000000	0.483754
568.000000	0.484060
569.000000	0.484393
570.000000	0.484743
571.000000	0.485060
572.000000	0.485296
573.000000	0.485582
574.000000	0.485875
575.000000	0.486173
576.000000	0.486503
577.000000	0.486805
578.000000	0.487125
579.000000	0.487393
580.000000	0.487692
581.000000	0.488021
582.000000	0.488248
583.000000	0.488428
584.000000	0.488663
585.000000	0.489095
586.000000	0.489362
587.000000	0.489540
588.000000	0.489802
589.000000	0.490148
590.000000	0.490446
591.000000	0.490653
592.000000	0.490981
593.000000	0.491233
594.000000	0.491414
595.000000	0.491756
596.000000	0.491944
597.000000	0.492124
598.000000	0.492424
599.000000	0.492634
600.000000	0.492818
601.000000	0.492950
602.000000	0.493200
603.000000	0.493432
604.000000	0.493599
605.000000	0.493740
606.000000	0.493924
607.000000	0.494128
608.000000	0.494254
609.000000	0.494394
610.000000	0.494574
611.000000	0.494787
612.000000	0.494941
613.000000	0.495098
614.000000	0.495331
615.000000	0.495444
616.000000	0.495549
617.000000	0.495660
618.000000	0.495871
619.000000	0.496083
620.000000	0.496180
621.000000	0.496174
622.000000	0.496347
623.000000	0.496497
624.000000	0.496466
625.000000	0.496608
626.000000	0.496762
627.000000	0.496877
628.000000	0.497101
629.000000	0.497356
630.000000	0.497448
631.000000	0.497592
632.000000	0.497720
633.000000	0.497906
634.000000	0.498161
635.000000	0.498205
636.000000	0.498287
637.000000	0.498501
638.000000	0.498670
639.000000	0.498835
640.000000	0.499062
641.000000	0.499174
642.000000	0.499264
643.000000	0.499383
644.000000	0.499565
645.000000	0.499674
646.000000	0.499749
647.000000	0.499813
648.000000	0.499971
649.000000	0.500104
650.000000	0.500166
651.000000	0.500307
652.000000	0.500458
653.000000	0.500631
654.000000	0.500728
655.000000	0.500884
656.000000	0.501050
657.000000	0.501102
658.000000	0.501276
659.000000	0.501442
660.000000	0.501540
661.000000	0.501762
662.000000	0.501848
663.000000	0.501897
664.000000	0.502045
665.000000	0.502181
666.000000	0.502330
667.000000	0.502479
668.000000	0.502594
669.000000	0.502722
670.000000	0.502877
671.000000	0.502924
672.000000	0.503074
673.000000	0.503306
674.000000	0.503454
675.000000	0.503582
676.000000	0.503718
677.000000	0.503901
678.000000	0.504036
679.000000	0.504165
680.000000	0.504329
681.000000	0.504463
682.000000	0.504619
683.000000	0.504711
684.000000	0.504893
685.000000	0.505026
686.000000	0.505184
687.000000	0.505401
688.000000	0.505532
689.000000	0.505664
690.000000	0.505896
691.000000	0.505998
692.000000	0.506062
693.000000	0.506225
694.000000	0.506390
695.000000	0.506558
696.000000	0.506719
697.000000	0.506861
698.000000	0.506982
699.000000	0.507126
700.000000	0.507318
701.000000	0.507436
702.000000	0.507584
703.000000	0.507741
704.000000	0.507790
705.000000	0.507931
706.000000	0.508085
707.000000	0.508211
708.000000	0.508334
709.000000	0.508430
710.000000	0.508521
711.000000	0.508660
712.000000	0.508774
713.000000	0.508876
714.000000	0.509002
715.000000	0.509164
716.000000	0.509353
717.000000	0.509504
718.000000	0.509653
719.000000	0.509768
720.000000	0.509860
721.000000	0.510027
722.000000	0.510160
723.000000	0.510302
724.000000	0.510399
725.000000	0.510450
726.000000	0.510567
727.000000	0.510626
728.000000	0.510640
729.000000	0.510655
730.000000	0.510643
731.000000	0.510745
732.000000	0.510869
733.000000	0.511019
734.000000	0.511135
735.000000	0.511256
736.000000	0.511505
737.000000	0.511604
738.000000	0.511539
739.000000	0.511546
740.000000	0.511529
741.000000	0.511600
742.000000	0.511730
743.000000	0.511819
744.000000	0.511826
745.000000	0.511836
746.000000	0.511915
747.000000	0.511950
748.000000	0.512018
749.000000	0.512164
750.000000	0.512330
751.000000	0.512421
752.000000	0.512523
753.000000	0.512671
754.000000	0.512809
755.000000	0.512919
756.000000	0.512999
757.000000	0.512986
758.000000	0.512970
759.000000	0.512993
760.000000	0.512970
761.000000	0.513033
762.000000	0.513086
763.000000	0.513110
764.000000	0.513249
765.000000	0.513286
766.000000	0.513310
767.000000	0.513413
768.000000	0.513490
769.000000	0.513542
770.000000	0.513583
771.000000	0.513622
772.000000	0.513715
773.000000	0.513736
774.000000	0.513719
775.000000	0.513709
776.000000	0.513707
777.000000	0.513698
778.000000	0.513779
779.000000	0.513906
780.000000	0.514052
781.000000	0.514166
782.000000	0.514248
783.000000	0.514387
784.000000	0.514399
785.000000	0.514450
786.000000	0.514487
787.000000	0.514469
788.000000	0.514427
789.000000	0.514371
790.000000	0.514322
791.000000	0.514375
792.000000	0.514378
793.000000	0.514361
794.000000	0.514392
795.000000	0.514515
796.000000	0.514607
797.000000	0.514606
798.000000	0.514534
799.000000	0.514605
800.000000	0.514687
801.000000	0.514601
802.000000	0.514544
803.000000	0.514522
804.000000	0.514568
805.000000	0.514577
806.000000	0.514539
807.000000	0.514570
808.000000	0.514588
809.000000	0.514581
810.000000	0.514592
811.000000	0.514615
812.000000	0.514564
813.000000	0.514541
814.000000	0.514560
815.000000	0.514598
816.000000	0.514598
817.000000	0.514621
818.000000	0.514595
819.000000	0.514554
820.000000	0.514507
821.000000	0.514410
822.000000	0.514412
823.000000	0.514462
824.000000	0.514442
825.000000	0.514427
826.000000	0.514519
827.000000	0.514477
828.000000	0.514298
829.000000	0.514298
830.000000	0.514236
831.000000	0.514189
832.000000	0.514114
833.000000	0.514050
834.000000	0.514056
835.000000	0.514170
836.000000	0.514124
837.000000	0.514020
838.000000	0.514001
839.000000	0.514154
840.000000	0.514114
841.000000	0.513976
842.000000	0.513846
843.000000	0.513777
844.000000	0.513760
845.000000	0.513715
846.000000	0.513617
847.000000	0.513591
848.000000	0.513529
849.000000	0.513375
850.000000	0.513312
851.000000	0.513274
852.000000	0.513280
853.000000	0.513299
854.000000	0.513177
855.000000	0.513093
856.000000	0.513000
857.000000	0.512900
858.000000	0.512910
859.000000	0.512912
860.000000	0.512801
861.000000	0.512757
862.000000	0.512807
863.000000	0.512782
864.000000	0.512725
865.000000	0.512622
866.000000	0.512495
867.000000	0.512266
868.000000	0.512362
869.000000	0.512461
870.000000	0.512201
871.000000	0.512035
872.000000	0.511931
873.000000	0.511742
874.000000	0.511557
875.000000	0.511283
876.000000	0.511032
877.000000	0.510867
878.000000	0.510708
879.000000	0.510636
880.000000	0.510473
881.000000	0.510366
882.000000	0.510258
883.000000	0.510106
884.000000	0.509789
885.000000	0.509516
886.000000	0.509356
887.000000	0.509333
888.000000	0.509263
889.000000	0.509249
890.000000	0.509137
891.000000	0.509059
892.000000	0.508879
893.000000	0.508657
894.000000	0.508591
895.000000	0.508417
896.000000	0.508109
897.000000	0.507793
898.000000	0.507625
899.000000	0.507480
900.000000	0.507397
901.000000	0.507317
902.000000	0.507265
903.000000	0.506941
904.000000	0.506646
905.000000	0.506568
906.000000	0.506544
907.000000	0.506461
908.000000	0.506347
909.000000	0.506092
910.000000	0.505799
911.000000	0.505526
912.000000	0.505324
913.000000	0.505119
914.000000	0.505025
915.000000	0.505015
916.000000	0.504699
917.000000	0.504403
918.000000	0.504229
919.000000	0.504138
920.000000	0.504002
921.000000	0.503811
922.000000	0.503527
923.000000	0.503103
924.000000	0.502902
925.000000	0.502678
926.000000	0.502395
927.000000	0.502305
928.000000	0.502191
929.000000	0.501960
930.000000	0.501626
931.000000	0.501468
932.000000	0.501282
933.000000	0.501035
934.000000	0.500728
935.000000	0.500451
936.000000	0.500196
937.000000	0.499815
938.000000	0.499589
939.000000	0.499367
940.000000	0.499009
941.000000	0.498651
942.000000	0.498147
943.000000	0.497713
944.000000	0.497266
945.000000	0.496830
946.000000	0.496276
947.000000	0.495923
948.000000	0.495932
949.000000	0.495612
950.000000	0.495482
951.000000	0.495557
952.000000	0.495527
953.000000	0.495371
954.000000	0.495114
955.000000	0.494746
956.000000	0.494613
957.000000	0.494321
958.000000	0.494036
959.000000	0.494206
960.000000	0.493909
961.000000	0.493518
962.000000	0.493209
963.000000	0.492913
964.000000	0.492529
965.000000	0.492273
966.000000	0.492090
967.000000	0.491807
968.000000	0.491424
969.000000	0.491065
970.000000	0.491030
971.000000	0.490624
972.000000	0.490341
973.000000	0.490150
974.000000	0.489612
975.000000	0.489418
976.000000	0.489343
977.000000	0.489126
978.000000	0.489037
979.000000	0.489247
980.000000	0.489169
981.000000	0.488815
982.000000	0.488622
983.000000	0.488268
984.000000	0.487969
985.000000	0.488221
986.000000	0.488007
987.000000	0.487837
988.000000	0.487875
989.000000	0.487514
990.000000	0.487365
991.000000	0.487340
992.000000	0.487251
993.000000	0.487283
994.000000	0.487097
995.000000	0.486852
996.000000	0.486481
997.000000	0.486630
998.000000	0.486706
999.000000	0.486508
1000.000000	0.486218
1001.000000	0.486159
1002.000000	0.486653
1003.000000	0.486619
1004.000000	0.486446
1005.000000	0.486189
1006.000000	0.485790
1007.000000	0.484798
1008.000000	0.484850
1009.000000	0.484995
1010.000000	0.484985
1011.000000	0.485139
1012.000000	0.485227
1013.000000	0.485353
1014.000000	0.485290
1015.000000	0.485592
1016.000000	0.485773
1017.000000	0.485327
1018.000000	0.485098
1019.000000	0.485148
1020.000000	0.485546
1021.000000	0.485189
1022.000000	0.485014
1023.000000	0.485325
1024.000000	0.485268
1025.000000	0.485398
1026.000000	0.485607
1027.000000	0.485653
1028.000000	0.485608
1029.000000	0.485438
1030.000000	0.485303
1031.000000	0.485237
1032.000000	0.485214
1033.000000	0.485040
1034.000000	0.485157
1035.000000	0.485911
1036.000000	0.486214
1037.000000	0.486343
1038.000000	0.486287
1039.000000	0.486345
1040.000000	0.486125
1041.000000	0.485696
1042.000000	0.485875
1043.000000	0.485607
1044.000000	0.485367
1045.000000	0.485535
1046.000000	0.485540
1047.000000	0.485794
1048.000000	0.486480
1049.000000	0.486589
1050.000000	0.486460
1051.000000	0.486418
1052.000000	0.486045
1053.000000	0.485864
1054.000000	0.486015
1055.000000	0.486301
1056.000000	0.486760
1057.000000	0.487251
1058.000000	0.487646
1059.000000	0.487674
1060.000000	0.487757
1061.000000	0.487794
1062.000000	0.487903
1063.000000	0.488743
1064.000000	0.489046
1065.000000	0.489096
1066.000000	0.489255
1067.000000	0.489172
1068.000000	0.489210
1069.000000	0.489344
1070.000000	0.489430
1071.000000	0.489596
1072.000000	0.489664
1073.000000	0.489556
1074.000000	0.489934
1075.000000	0.490080
1076.000000	0.490382
1077.000000	0.490507
1078.000000	0.490603
1079.000000	0.490808
1080.000000	0.491040
1081.000000	0.491212
1082.000000	0.491744
1083.000000	0.491857
1084.000000	0.491790
1085.000000	0.491773
1086.000000	0.491382
1087.000000	0.491408
1088.000000	0.491481
1089.000000	0.491532
1090.000000	0.491681
1091.000000	0.491821
1092.000000	0.492216
1093.000000	0.493057
1094.000000	0.493229
1095.000000	0.493209
1096.000000	0.493444
1097.000000	0.493267
1098.000000	0.493527
1099.000000	0.494373
1100.000000	0.494751
1101.000000	0.494822
1102.000000	0.494925
1103.000000	0.494750
1104.000000	0.494935
1105.000000	0.495383
1106.000000	0.495597
1107.000000	0.495601
1108.000000	0.495861
1109.000000	0.496397
1110.000000	0.496661
1111.000000	0.496777
1112.000000	0.497080
1113.000000	0.497118
1114.000000	0.496652
1115.000000	0.496560
1116.000000	0.496600
1117.000000	0.496720
1118.000000	0.496936
1119.000000	0.496973
1120.000000	0.497059
1121.000000	0.497129
1122.000000	0.497237
1123.000000	0.497533
1124.000000	0.497596
1125.000000	0.497724
1126.000000	0.497552
1127.000000	0.497589
1128.000000	0.497722
1129.000000	0.498124
1130.000000	0.498239
1131.000000	0.498382
1132.000000	0.498444
1133.000000	0.498390
1134.000000	0.498451
1135.000000	0.498596
1136.000000	0.498546
1137.000000	0.498444
1138.000000	0.498171
1139.000000	0.497801
1140.000000	0.497632
1141.000000	0.497279
1142.000000	0.497117
1143.000000	0.497001
1144.000000	0.497114
1145.000000	0.497229
1146.000000	0.497122
1147.000000	0.497099
1148.000000	0.496937
1149.000000	0.496951
1150.000000	0.497103
1151.000000	0.497068
1152.000000	0.496946
1153.000000	0.496881
1154.000000	0.496623
1155.000000	0.496428
1156.000000	0.496270
1157.000000	0.496222
1158.000000	0.496182
1159.000000	0.496062
1160.000000	0.495968
1161.000000	0.495891
1162.000000	0.495812
1163.000000	0.495828
1164.000000	0.496018
1165.000000	0.496235
1166.000000	0.496313
1167.000000	0.496243
1168.000000	0.496265
1169.000000	0.496317
1170.000000	0.496332
1171.000000	0.496549
1172.000000	0.496542
1173.000000	0.496173
1174.000000	0.496083
1175.000000	0.496044
1176.000000	0.495898
1177.000000	0.495961
1178.000000	0.495951
1179.000000	0.495846
1180.000000	0.495626
1181.000000	0.495453
1182.000000	0.495289
1183.000000	0.495343
1184.000000	0.495328
1185.000000	0.495326
1186.000000	0.495536
1187.000000	0.495477
1188.000000	0.495190
1189.000000	0.495038
1190.000000	0.494923
1191.000000	0.494854
1192.000000	0.495012
1193.000000	0.495160
1194.000000	0.495209
1195.000000	0.495156
1196.000000	0.494829
1197.000000	0.494746
1198.000000	0.494743
1199.000000	0.494766
1200.000000	0.494994
1201.000000	0.495077
1202.000000	0.495011
1203.000000	0.494899
1204.000000	0.494797
1205.000000	0.494746
1206.000000	0.494628
1207.000000	0.494651
1208.000000	0.494678
1209.000000	0.494796
1210.000000	0.494813
1211.000000	0.494901
1212.000000	0.494811
1213.000000	0.494539
1214.000000	0.494510
1215.000000	0.494572
1216.000000	0.494538
1217.000000	0.494492
1218.000000	0.494437
1219.000000	0.494344
1220.000000	0.494286
1221.000000	0.494292
1222.000000	0.494400
1223.000000	0.494442
1224.000000	0.494472
1225.000000	0.494567
1226.000000	0.494574
1227.000000	0.494485
1228.000000	0.494501
1229.000000	0.494378
1230.000000	0.494092
1231.000000	0.493857
1232.000000	0.493763
1233.000000	0.493797
1234.000000	0.493882
1235.000000	0.493911
1236.000000	0.493809
1237.000000	0.493868
1238.000000	0.493967
1239.000000	0.493957
1240.000000	0.493949
1241.000000	0.493990
1242.000000	0.493926
1243.000000	0.493756
1244.000000	0.493767
1245.000000	0.493877
1246.000000	0.493851
1247.000000	0.493938
1248.000000	0.494011
1249.000000	0.494076
1250.000000	0.494091
1251.000000	0.494091
1252.000000	0.494081
1253.000000	0.494108
1254.000000	0.494031
1255.000000	0.493884
1256.000000	0.493790
1257.000000	0.493611
1258.000000	0.493628
1259.000000	0.493749
1260.000000	0.493848
1261.000000	0.493946
1262.000000	0.493979
1263.000000	0.494044
1264.000000	0.493874
1265.000000	0.493852
1266.000000	0.493789
1267.000000	0.493746
1268.000000	0.493868
1269.000000	0.493799
1270.000000	0.493775
1271.000000	0.493700
1272.000000	0.493654
1273.000000	0.493634
1274.000000	0.493427
1275.000000	0.493427
1276.000000	0.493623
1277.000000	0.493716
1278.000000	0.493747
1279.000000	0.493736
1280.000000	0.493465
1281.000000	0.493243
1282.000000	0.493160
1283.000000	0.493148
1284.000000	0.493005
1285.000000	0.492920
1286.000000	0.492818
1287.000000	0.492781
1288.000000	0.492927
1289.000000	0.492984
1290.000000	0.492779
1291.000000	0.492640
1292.000000	0.492488
1293.000000	0.492276
1294.000000	0.492304
1295.000000	0.492377
1296.000000	0.492180
1297.000000	0.492022
1298.000000	0.491988
1299.000000	0.491920
1300.000000	0.491961
1301.000000	0.491861
1302.000000	0.491766
1303.000000	0.491871
1304.000000	0.491751
1305.000000	0.491717
1306.000000	0.491579
1307.000000	0.491305
1308.000000	0.491146
1309.000000	0.490990
1310.000000	0.490878
1311.000000	0.490935
1312.000000	0.490685
1313.000000	0.490491
1314.000000	0.490453
1315.000000	0.490048
1316.000000	0.489801
1317.000000	0.489744
1318.000000	0.489449
1319.000000	0.489140
1320.000000	0.488901
1321.000000	0.488621
1322.000000	0.488299
1323.000000	0.488052
1324.000000	0.487946
1325.000000	0.487672
1326.000000	0.487371
1327.000000	0.487033
1328.000000	0.486719
1329.000000	0.486343
1330.000000	0.485833
1331.000000	0.485479
1332.000000	0.485388
1333.000000	0.485068
1334.000000	0.484811
1335.000000	0.484526
1336.000000	0.484018
1337.000000	0.483654
1338.000000	0.483288
1339.000000	0.482925
1340.000000	0.482631
1341.000000	0.482441
1342.000000	0.482190
1343.000000	0.481852
1344.000000	0.481563
1345.000000	0.481193
1346.000000	0.480840
1347.000000	0.480534
1348.000000	0.480230
1349.000000	0.479791
1350.000000	0.479445
1351.000000	0.479051
1352.000000	0.478657
1353.000000	0.478372
1354.000000	0.478152
1355.000000	0.477798
1356.000000	0.477342
1357.000000	0.476791
1358.000000	0.476237
1359.000000	0.475617
1360.000000	0.475115
1361.000000	0.474831
1362.000000	0.474369
1363.000000	0.473843
1364.000000	0.473407
1365.000000	0.472914
1366.000000	0.472364
1367.000000	0.471824
1368.000000	0.471221
1369.000000	0.470698
1370.000000	0.469906
1371.000000	0.469069
1372.000000	0.468205
1373.000000	0.466985
1374.000000	0.465788
1375.000000	0.464545
1376.000000	0.463094
1377.000000	0.461315
1378.000000	0.459079
1379.000000	0.456354
1380.000000	0.453017
1381.000000	0.449251
1382.000000	0.445309
1383.000000	0.441109
1384.000000	0.436676
1385.000000	0.432407
1386.000000	0.428468
1387.000000	0.425007
1388.000000	0.422130
1389.000000	0.419847
1390.000000	0.418175
1391.000000	0.416908
1392.000000	0.416294
1393.000000	0.415949
1394.000000	0.416362
1395.000000	0.416455
1396.000000	0.416826
1397.000000	0.416773
1398.000000	0.416561
1399.000000	0.416102
1400.000000	0.415487
1401.000000	0.414561
1402.000000	0.413414
1403.000000	0.412032
1404.000000	0.410660
1405.000000	0.409047
1406.000000	0.407313
1407.000000	0.405681
1408.000000	0.403944
1409.000000	0.402340
1410.000000	0.401025
1411.000000	0.399802
1412.000000	0.398505
1413.000000	0.397169
1414.000000	0.395985
1415.000000	0.394983
1416.000000	0.393994
1417.000000	0.393192
1418.000000	0.392413
1419.000000	0.391538
1420.000000	0.390785
1421.000000	0.390265
1422.000000	0.389569
1423.000000	0.388938
1424.000000	0.388295
1425.000000	0.387590
1426.000000	0.386887
1427.000000	0.386219
1428.000000	0.385593
1429.000000	0.384995
1430.000000	0.384509
1431.000000	0.384041
1432.000000	0.383533
1433.000000	0.383075
1434.000000	0.382550
1435.000000	0.382066
1436.000000	0.381600
1437.000000	0.381132
1438.000000	0.380512
1439.000000	0.379874
1440.000000	0.379336
1441.000000	0.378681
1442.000000	0.378241
1443.000000	0.377948
1444.000000	0.377570
1445.000000	0.377129
1446.000000	0.376743
1447.000000	0.376252
1448.000000	0.375749
1449.000000	0.375262
1450.000000	0.374748
1451.000000	0.374289
1452.000000	0.373811
1453.000000	0.373355
1454.000000	0.372969
1455.000000	0.372677
1456.000000	0.372515
1457.000000	0.372413
1458.000000	0.372229
1459.000000	0.371970
1460.000000	0.371647
1461.000000	0.371319
1462.000000	0.371130
1463.000000	0.370944
1464.000000	0.370908
1465.000000	0.371044
1466.000000	0.371097
1467.000000	0.371221
1468.000000	0.371401
1469.000000	0.371641
1470.000000	0.371903
1471.000000	0.372235
1472.000000	0.372548
1473.000000	0.372942
1474.000000	0.373401
1475.000000	0.373999
1476.000000	0.374672
1477.000000	0.375220
1478.000000	0.375816
1479.000000	0.376522
1480.000000	0.377201
1481.000000	0.377860
1482.000000	0.378694
1483.000000	0.379424
1484.000000	0.379998
1485.000000	0.380706
1486.000000	0.381488
1487.000000	0.382196
1488.000000	0.382962
1489.000000	0.383692
1490.000000	0.384206
1491.000000	0.384860
1492.000000	0.385516
1493.000000	0.386136
1494.000000	0.386730
1495.000000	0.387262
1496.000000	0.387676
1497.000000	0.388178
1498.000000	0.388719
1499.000000	0.389276
1500.000000	0.389834
1501.000000	0.390416
1502.000000	0.391002
1503.000000	0.391635
1504.000000	0.392193
1505.000000	0.392767
1506.000000	0.393360
1507.000000	0.393848
1508.000000	0.394422
1509.000000	0.394939
1510.000000	0.395295
1511.000000	0.395700
1512.000000	0.396136
1513.000000	0.396603
1514.000000	0.397122
1515.000000	0.397478
1516.000000	0.397799
1517.000000	0.398102
1518.000000	0.398320
1519.000000	0.398570
1520.000000	0.398925
1521.000000	0.399127
1522.000000	0.399362
1523.000000	0.399704
1524.000000	0.399850
1525.000000	0.400139
1526.000000	0.400534
1527.000000	0.400806
1528.000000	0.401191
1529.000000	0.401535
1530.000000	0.401662
1531.000000	0.401868
1532.000000	0.402131
1533.000000	0.402281
1534.000000	0.402513
1535.000000	0.402889
1536.000000	0.402944
1537.000000	0.402987
1538.000000	0.403184
1539.000000	0.403178
1540.000000	0.403301
1541.000000	0.403720
1542.000000	0.404061
1543.000000	0.404346
1544.000000	0.404581
1545.000000	0.404695
1546.000000	0.404835
1547.000000	0.404964
1548.000000	0.405038
1549.000000	0.405133
1550.000000	0.405087
1551.000000	0.405105
1552.000000	0.405369
1553.000000	0.405486
1554.000000	0.405551
1555.000000	0.405611
1556.000000	0.405527
1557.000000	0.405580
1558.000000	0.405669
1559.000000	0.405763
1560.000000	0.405792
1561.000000	0.405865
1562.000000	0.405942
1563.000000	0.406084
1564.000000	0.406269
1565.000000	0.406506
1566.000000	0.406476
1567.000000	0.406437
1568.000000	0.406425
1569.000000	0.406375
1570.000000	0.406468
1571.000000	0.406712
1572.000000	0.406785
1573.000000	0.406774
1574.000000	0.406853
1575.000000	0.406995
1576.000000	0.407027
1577.000000	0.407017
1578.000000	0.407045
1579.000000	0.407021
1580.000000	0.407075
1581.000000	0.407432
1582.000000	0.407510
1583.000000	0.407411
1584.000000	0.407355
1585.000000	0.407269
1586.000000	0.407277
1587.000000	0.407397
1588.000000	0.407410
1589.000000	0.407394
1590.000000	0.407445
1591.000000	0.407507
1592.000000	0.407576
1593.000000	0.407746
1594.000000	0.407828
1595.000000	0.407931
1596.000000	0.408028
1597.000000	0.408185
1598.000000	0.408223
1599.000000	0.408233
1600.000000	0.408159
1601.000000	0.407970
1602.000000	0.407999
1603.000000	0.408233
1604.000000	0.408290
1605.000000	0.408438
1606.000000	0.408510
1607.000000	0.408434
1608.000000	0.408431
1609.000000	0.408543
1610.000000	0.408653
1611.000000	0.408807
1612.000000	0.408968
1613.000000	0.409299
1614.000000	0.409500
1615.000000	0.409742
1616.000000	0.409967
1617.000000	0.410120
1618.000000	0.410259
1619.000000	0.410266
1620.000000	0.410399
1621.000000	0.410614
1622.000000	0.410889
1623.000000	0.411247
1624.000000	0.411498
1625.000000	0.411556
1626.000000	0.411620
1627.000000	0.411645
1628.000000	0.411797
1629.000000	0.411898
1630.000000	0.412176
1631.000000	0.412587
1632.000000	0.412805
1633.000000	0.413049
1634.000000	0.413286
1635.000000	0.413447
1636.000000	0.413644
1637.000000	0.413950
1638.000000	0.414127
1639.000000	0.414263
1640.000000	0.414456
1641.000000	0.414741
1642.000000	0.415005
1643.000000	0.415324
1644.000000	0.415593
1645.000000	0.415861
1646.000000	0.415997
1647.000000	0.416124
1648.000000	0.416235
1649.000000	0.416339
1650.000000	0.416544
1651.000000	0.416865
1652.000000	0.417147
1653.000000	0.417378
1654.000000	0.417657
1655.000000	0.417850
1656.000000	0.418024
1657.000000	0.418335
1658.000000	0.418566
1659.000000	0.418946
1660.000000	0.419222
1661.000000	0.419249
1662.000000	0.419473
1663.000000	0.419662
1664.000000	0.419931
1665.000000	0.420386
1666.000000	0.420759
1667.000000	0.420997
1668.000000	0.421268
1669.000000	0.421477
1670.000000	0.421638
1671.000000	0.421931
1672.000000	0.422188
1673.000000	0.422381
1674.000000	0.422604
1675.000000	0.422797
1676.000000	0.422991
1677.000000	0.423024
1678.000000	0.423007
1679.000000	0.423139
1680.000000	0.423232
1681.000000	0.423316
1682.000000	0.423524
1683.000000	0.423729
1684.000000	0.423954
1685.000000	0.424189
1686.000000	0.424242
1687.000000	0.424388
1688.000000	0.424454
1689.000000	0.424534
1690.000000	0.424702
1691.000000	0.424863
1692.000000	0.424899
1693.000000	0.425002
1694.000000	0.425168
1695.000000	0.425268
1696.000000	0.425407
1697.000000	0.425409
1698.000000	0.425196
1699.000000	0.425298
1700.000000	0.425628
1701.000000	0.425903
1702.000000	0.426164
1703.000000	0.426277
1704.000000	0.426190
1705.000000	0.426259
1706.000000	0.426518
1707.000000	0.426677
1708.000000	0.426783
1709.000000	0.426857
1710.000000	0.426986
1711.000000	0.427112
1712.000000	0.427291
1713.000000	0.427459
1714.000000	0.427702
1715.000000	0.427861
1716.000000	0.428028
1717.000000	0.428128
1718.000000	0.427970
1719.000000	0.428071
1720.000000	0.428455
1721.000000	0.428618
1722.000000	0.428826
1723.000000	0.428980
1724.000000	0.428948
1725.000000	0.429088
1726.000000	0.429293
1727.000000	0.429369
1728.000000	0.429259
1729.000000	0.429249
1730.000000	0.429428
1731.000000	0.429501
1732.000000	0.429676
1733.000000	0.429774
1734.000000	0.429494
1735.000000	0.429546
1736.000000	0.429680
1737.000000	0.429798
1738.000000	0.430074
1739.000000	0.430254
1740.000000	0.430357
1741.000000	0.430461
1742.000000	0.430602
1743.000000	0.430737
1744.000000	0.430799
1745.000000	0.430879
1746.000000	0.430995
1747.000000	0.430910
1748.000000	0.430812
1749.000000	0.430571
1750.000000	0.430429
1751.000000	0.430613
1752.000000	0.430791
1753.000000	0.430771
1754.000000	0.430863
1755.000000	0.430875
1756.000000	0.430969
1757.000000	0.431306
1758.000000	0.431465
1759.000000	0.431493
1760.000000	0.431571
1761.000000	0.431519
1762.000000	0.431500
1763.000000	0.431657
1764.000000	0.431613
1765.000000	0.431284
1766.000000	0.431205
1767.000000	0.431017
1768.000000	0.430912
1769.000000	0.431191
1770.000000	0.431278
1771.000000	0.431145
1772.000000	0.431209
1773.000000	0.431218
1774.000000	0.431370
1775.000000	0.431909
1776.000000	0.432002
1777.000000	0.431834
1778.000000	0.431849
1779.000000	0.431669
1780.000000	0.431706
1781.000000	0.431939
1782.000000	0.432069
1783.000000	0.432184
1784.000000	0.432449
1785.000000	0.432758
1786.000000	0.432800
1787.000000	0.432850
1788.000000	0.432891
1789.000000	0.432619
1790.000000	0.432923
1791.000000	0.433000
1792.000000	0.433089
1793.000000	0.433267
1794.000000	0.433398
1795.000000	0.433581
1796.000000	0.434069
1797.000000	0.434207
1798.000000	0.433932
1799.000000	0.433959
1800.000000	0.433999
1801.000000	0.433827
1802.000000	0.434026
1803.000000	0.434037
1804.000000	0.434572
1805.000000	0.435740
1806.000000	0.436457
1807.000000	0.437537
1808.000000	0.437963
1809.000000	0.438148
1810.000000	0.437883
1811.000000	0.437280
1812.000000	0.435853
1813.000000	0.435539
1814.000000	0.435486
1815.000000	0.435131
1816.000000	0.435130
1817.000000	0.434905
1818.000000	0.433752
1819.000000	0.433986
1820.000000	0.435045
1821.000000	0.435483
1822.000000	0.435531
1823.000000	0.435300
1824.000000	0.434918
1825.000000	0.433564
1826.000000	0.433241
1827.000000	0.433202
1828.000000	0.433199
1829.000000	0.433850
1830.000000	0.433763
1831.000000	0.433598
1832.000000	0.433088
1833.000000	0.432887
1834.000000	0.432646
1835.000000	0.432535
1836.000000	0.432879
1837.000000	0.432666
1838.000000	0.432404
1839.000000	0.430812
1840.000000	0.429808
1841.000000	0.428954
1842.000000	0.428464
1843.000000	0.428606
1844.000000	0.428512
1845.000000	0.428646
1846.000000	0.428317
1847.000000	0.427583
1848.000000	0.426403
1849.000000	0.425918
1850.000000	0.425057
1851.000000	0.424547
1852.000000	0.424662
1853.000000	0.424197
1854.000000	0.423495
1855.000000	0.422255
1856.000000	0.420512
1857.000000	0.418453
1858.000000	0.416491
1859.000000	0.414868
1860.000000	0.413366
1861.000000	0.412179
1862.000000	0.410422
1863.000000	0.408394
1864.000000	0.406279
1865.000000	0.403933
1866.000000	0.401466
1867.000000	0.398674
1868.000000	0.395970
1869.000000	0.393344
1870.000000	0.391141
1871.000000	0.389155
1872.000000	0.387132
1873.000000	0.384150
1874.000000	0.380370
1875.000000	0.376446
1876.000000	0.371941
1877.000000	0.366467
1878.000000	0.360518
1879.000000	0.355420
1880.000000	0.349639
1881.000000	0.343703
1882.000000	0.338604
1883.000000	0.333419
1884.000000	0.328041
1885.000000	0.322553
1886.000000	0.316683
1887.000000	0.310592
1888.000000	0.303868
1889.000000	0.296872
1890.000000	0.290460
1891.000000	0.283863
1892.000000	0.277650
1893.000000	0.271743
1894.000000	0.265528
1895.000000	0.259511
1896.000000	0.253873
1897.000000	0.247986
1898.000000	0.242051
1899.000000	0.237197
1900.000000	0.232771
1901.000000	0.228422
1902.000000	0.224737
1903.000000	0.221297
1904.000000	0.218161
1905.000000	0.215779
1906.000000	0.213388
1907.000000	0.211384
1908.000000	0.209668
1909.000000	0.207873
1910.000000	0.205852
1911.000000	0.203912
1912.000000	0.201874
1913.000000	0.200515
1914.000000	0.199543
1915.000000	0.198610
1916.000000	0.198387
1917.000000	0.197825
1918.000000	0.197255
1919.000000	0.196354
1920.000000	0.195790
1921.000000	0.195052
1922.000000	0.194676
1923.000000	0.194795
1924.000000	0.195062
1925.000000	0.195606
1926.000000	0.195544
1927.000000	0.195618
1928.000000	0.195831
1929.000000	0.196205
1930.000000	0.196178
1931.000000	0.196525
1932.000000	0.196596
1933.000000	0.196410
1934.000000	0.196656
1935.000000	0.197519
1936.000000	0.198717
1937.000000	0.199496
1938.000000	0.199843
1939.000000	0.199985
1940.000000	0.199409
1941.000000	0.199187
1942.000000	0.199536
1943.000000	0.200088
1944.000000	0.200791
1945.000000	0.200496
1946.000000	0.199913
1947.000000	0.199237
1948.000000	0.198352
1949.000000	0.198262
1950.000000	0.198579
1951.000000	0.198587
1952.000000	0.198772
1953.000000	0.198888
1954.000000	0.198436
1955.000000	0.197866
1956.000000	0.197515
1957.000000	0.197406
1958.000000	0.197600
1959.000000	0.197745
1960.000000	0.197997
1961.000000	0.197868
1962.000000	0.197735
1963.000000	0.197541
1964.000000	0.197604
1965.000000	0.197192
1966.000000	0.197147
1967.000000	0.197277
1968.000000	0.197069
1969.000000	0.197126
1970.000000	0.197126
1971.000000	0.197625
1972.000000	0.198747
1973.000000	0.199333
1974.000000	0.200233
1975.000000	0.200958
1976.000000	0.201483
1977.000000	0.201346
1978.000000	0.201982
1979.000000	0.202213
1980.000000	0.202320
1981.000000	0.203111
1982.000000	0.203680
1983.000000	0.204126
1984.000000	0.204861
1985.000000	0.206028
1986.000000	0.206690
1987.000000	0.207104
1988.000000	0.208143
1989.000000	0.209107
1990.000000	0.209705
1991.000000	0.210708
1992.000000	0.211792
1993.000000	0.212893
1994.000000	0.214348
1995.000000	0.215685
1996.000000	0.216689
1997.000000	0.217582
1998.000000	0.217978
1999.000000	0.218836
2000.000000	0.219682
2001.000000	0.220824
2002.000000	0.222591
2003.000000	0.223792
2004.000000	0.224911
2005.000000	0.226048
2006.000000	0.226828
2007.000000	0.227777
2008.000000	0.228900
2009.000000	0.230313
2010.000000	0.231661
2011.000000	0.233067
2012.000000	0.234223
2013.000000	0.235343
2014.000000	0.235983
2015.000000	0.236822
2016.000000	0.237345
2017.000000	0.238135
2018.000000	0.239319
2019.000000	0.240413
2020.000000	0.241927
2021.000000	0.243424
2022.000000	0.245119
2023.000000	0.246649
2024.000000	0.248480
2025.000000	0.249869
2026.000000	0.251035
2027.000000	0.251661
2028.000000	0.252397
2029.000000	0.252913
2030.000000	0.253669
2031.000000	0.254951
2032.000000	0.256319
2033.000000	0.258440
2034.000000	0.260016
2035.000000	0.261674
2036.000000	0.262974
2037.000000	0.264142
2038.000000	0.265014
2039.000000	0.265416
2040.000000	0.266695
2041.000000	0.267478
2042.000000	0.268273
2043.000000	0.269528
2044.000000	0.270442
2045.000000	0.270936
2046.000000	0.271315
2047.000000	0.271960
2048.000000	0.272180
2049.000000	0.273184
2050.000000	0.274558
2051.000000	0.275767
2052.000000	0.277235
2053.000000	0.278488
2054.000000	0.279795
2055.000000	0.281337
2056.000000	0.282711
2057.000000	0.283645
2058.000000	0.284370
2059.000000	0.284333
2060.000000	0.284710
2061.000000	0.284716
2062.000000	0.285464
2063.000000	0.286863
2064.000000	0.287986
2065.000000	0.289879
2066.000000	0.290740
2067.000000	0.291373
2068.000000	0.291764
2069.000000	0.291926
2070.000000	0.293141
2071.000000	0.294591
2072.000000	0.295879
2073.000000	0.297489
2074.000000	0.298588
2075.000000	0.299776
2076.000000	0.301134
2077.000000	0.302243
2078.000000	0.303214
2079.000000	0.303733
2080.000000	0.303814
2081.000000	0.304251
2082.000000	0.304130
2083.000000	0.304947
2084.000000	0.306486
2085.000000	0.307378
2086.000000	0.308587
2087.000000	0.309594
2088.000000	0.310315
2089.000000	0.311306
2090.000000	0.312180
2091.000000	0.313077
2092.000000	0.314031
2093.000000	0.315009
2094.000000	0.315818
2095.000000	0.316924
2096.000000	0.317676
2097.000000	0.317890
2098.000000	0.318323
2099.000000	0.318865
2100.000000	0.319157
2101.000000	0.319982
2102.000000	0.320929
2103.000000	0.322072
2104.000000	0.323142
2105.000000	0.323968
2106.000000	0.324814
2107.000000	0.325425
2108.000000	0.325322
2109.000000	0.325846
2110.000000	0.326305
2111.000000	0.326980
2112.000000	0.327861
2113.000000	0.328780
2114.000000	0.330193
2115.000000	0.331137
2116.000000	0.331262
2117.000000	0.331636
2118.000000	0.331491
2119.000000	0.330876
2120.000000	0.331409
2121.000000	0.332959
2122.000000	0.333938
2123.000000	0.335546
2124.000000	0.336478
2125.000000	0.336789
2126.000000	0.337165
2127.000000	0.337161
2128.000000	0.337538
2129.000000	0.337988
2130.000000	0.338538
2131.000000	0.338624
2132.000000	0.338553
2133.000000	0.338446
2134.000000	0.338587
2135.000000	0.339234
2136.000000	0.340624
2137.000000	0.340851
2138.000000	0.340282
2139.000000	0.340511
2140.000000	0.340102
2141.000000	0.340340
2142.000000	0.341897
2143.000000	0.342388
2144.000000	0.342949
2145.000000	0.343327
2146.000000	0.343412
2147.000000	0.343487
2148.000000	0.343650
2149.000000	0.343386
2150.000000	0.343765
2151.000000	0.343809
2152.000000	0.343521
2153.000000	0.343745
2154.000000	0.343701
2155.000000	0.343426
2156.000000	0.343323
2157.000000	0.343262
2158.000000	0.343339
2159.000000	0.343433
2160.000000	0.344089
2161.000000	0.345770
2162.000000	0.346393
2163.000000	0.346636
2164.000000	0.346647
2165.000000	0.345850
2166.000000	0.344877
2167.000000	0.344608
2168.000000	0.344838
2169.000000	0.346157
2170.000000	0.346988
2171.000000	0.347178
2172.000000	0.347343
2173.000000	0.347269
2174.000000	0.345798
2175.000000	0.345804
2176.000000	0.346929
2177.000000	0.347234
2178.000000	0.348184
2179.000000	0.348374
2180.000000	0.347219
2181.000000	0.347139
2182.000000	0.346648
2183.000000	0.346159
2184.000000	0.346307
2185.000000	0.345703
2186.000000	0.345548
2187.000000	0.345233
2188.000000	0.345119
2189.000000	0.346441
2190.000000	0.346672
2191.000000	0.346982
2192.000000	0.346256
2193.000000	0.343761
2194.000000	0.342604
2195.000000	0.341255
2196.000000	0.340583
2197.000000	0.340552
2198.000000	0.341380
2199.000000	0.343861
2200.000000	0.345064
2201.000000	0.347087
2202.000000	0.348160
2203.000000	0.347438
2204.000000	0.346581
2205.000000	0.345968
2206.000000	0.345037
2207.000000	0.344783
2208.000000	0.344786
2209.000000	0.344024
2210.000000	0.345023
2211.000000	0.347131
2212.000000	0.347279
2213.000000	0.347149
2214.000000	0.346313
2215.000000	0.346718
2216.000000	0.346920
2217.000000	0.347839
2218.000000	0.350826
2219.000000	0.351942
2220.000000	0.351859
2221.000000	0.351549
2222.000000	0.351177
2223.000000	0.350134
2224.000000	0.348043
2225.000000	0.346112
2226.000000	0.344926
2227.000000	0.345503
2228.000000	0.345986
2229.000000	0.344006
2230.000000	0.341775
2231.000000	0.338313
2232.000000	0.338356
2233.000000	0.340920
2234.000000	0.340357
2235.000000	0.340827
2236.000000	0.340146
2237.000000	0.335768
2238.000000	0.335101
2239.000000	0.336445
2240.000000	0.337414
2241.000000	0.339826
2242.000000	0.341609
2243.000000	0.343646
2244.000000	0.345340
2245.000000	0.347156
2246.000000	0.347586
2247.000000	0.346514
2248.000000	0.346003
2249.000000	0.344681
2250.000000	0.344250
2251.000000	0.343946
2252.000000	0.345080
2253.000000	0.345054
2254.000000	0.343278
2255.000000	0.341468
2256.000000	0.339907
2257.000000	0.339554
2258.000000	0.340023
2259.000000	0.341472
2260.000000	0.342682
2261.000000	0.341306
2262.000000	0.337534
2263.000000	0.335868
2264.000000	0.332142
2265.000000	0.331463
2266.000000	0.334559
2267.000000	0.334383
2268.000000	0.333863
2269.000000	0.333748
2270.000000	0.331964
2271.000000	0.330934
2272.000000	0.330713
2273.000000	0.330557
2274.000000	0.331450
2275.000000	0.330687
2276.000000	0.329776
2277.000000	0.327572
2278.000000	0.324960
2279.000000	0.320054
2280.000000	0.316663
2281.000000	0.315736
2282.000000	0.313746
2283.000000	0.311645
2284.000000	0.310972
2285.000000	0.308247
2286.000000	0.304909
2287.000000	0.304314
2288.000000	0.302373
2289.000000	0.299611
2290.000000	0.298549
2291.000000	0.296950
2292.000000	0.295491
2293.000000	0.294184
2294.000000	0.292384
2295.000000	0.289578
2296.000000	0.287719
2297.000000	0.285263
2298.000000	0.284978
2299.000000	0.286513
2300.000000	0.286522
2301.000000	0.288723
2302.000000	0.287572
2303.000000	0.283948
2304.000000	0.280243
2305.000000	0.274033
2306.000000	0.269657
2307.000000	0.265349
2308.000000	0.260803
2309.000000	0.260524
2310.000000	0.260547
2311.000000	0.260846
2312.000000	0.263976
2313.000000	0.263291
2314.000000	0.261439
2315.000000	0.262149
2316.000000	0.261602
2317.000000	0.261822
2318.000000	0.262931
2319.000000	0.263314
2320.000000	0.264436
2321.000000	0.266207
2322.000000	0.267945
2323.000000	0.269069
2324.000000	0.269285
2325.000000	0.269454
2326.000000	0.271959
2327.000000	0.274041
2328.000000	0.274164
2329.000000	0.276202
2330.000000	0.276794
2331.000000	0.274452
2332.000000	0.274935
2333.000000	0.274804
2334.000000	0.270635
2335.000000	0.269804
2336.000000	0.271689
2337.000000	0.269820
2338.000000	0.267871
2339.000000	0.265888
2340.000000	0.260296
2341.000000	0.259181
2342.000000	0.259836
2343.000000	0.260835
2344.000000	0.265224
2345.000000	0.266503
2346.000000	0.266214
2347.000000	0.266981
2348.000000	0.267781
2349.000000	0.267720
2350.000000	0.266792
2351.000000	0.263901
2352.000000	0.255312
2353.000000	0.247798
2354.000000	0.241791
2355.000000	0.239011
2356.000000	0.242029
2357.000000	0.244425
2358.000000	0.244870
2359.000000	0.245077
2360.000000	0.243778
2361.000000	0.243552
2362.000000	0.242117
2363.000000	0.241099
2364.000000	0.241460
2365.000000	0.238233
2366.000000	0.236399
2367.000000	0.235331
2368.000000	0.231694
2369.000000	0.228625
2370.000000	0.228483
2371.000000	0.228902
2372.000000	0.232551
2373.000000	0.235313
2374.000000	0.231064
2375.000000	0.229128
2376.000000	0.225657
2377.000000	0.220871
2378.000000	0.220134
2379.000000	0.219156
2380.000000	0.217763
2381.000000	0.216998
2382.000000	0.212506
2383.000000	0.210701
2384.000000	0.213057
2385.000000	0.210644
2386.000000	0.212633
2387.000000	0.206550
2388.000000	0.196155
2389.000000	0.196080
2390.000000	0.194633
2391.000000	0.199232
2392.000000	0.199850
2393.000000	0.195454
2394.000000	0.200668
2395.000000	0.203450
2396.000000	0.207657
2397.000000	0.211284
2398.000000	0.201863
2399.000000	0.192395
2400.000000	0.191468
2401.000000	0.196207
2402.000000	0.204217
2403.000000	0.208993
2404.000000	0.204862
2405.000000	0.198947
2406.000000	0.196516
2407.000000	0.198324
2408.000000	0.206588
2409.000000	0.207993
2410.000000	0.205171
2411.000000	0.199178
2412.000000	0.191886
2413.000000	0.194117
2414.000000	0.193317
2415.000000	0.195087
2416.000000	0.200208
2417.000000	0.200065
2418.000000	0.201576
2419.000000	0.202793
2420.000000	0.199140
2421.000000	0.193052
2422.000000	0.187812
2423.000000	0.182285
2424.000000	0.182005
2425.000000	0.184767
2426.000000	0.180869
2427.000000	0.181047
2428.000000	0.178062
2429.000000	0.172341
2430.000000	0.178612
2431.000000	0.176795
2432.000000	0.176957
2433.000000	0.179614
2434.000000	0.170490
2435.000000	0.172170
2436.000000	0.169893
2437.000000	0.162655
2438.000000	0.170566
2439.000000	0.161676
2440.000000	0.147715
2441.000000	0.147845
2442.000000	0.139686
2443.000000	0.141819
2444.000000	0.152009
2445.000000	0.157278
2446.000000	0.159323
2447.000000	0.157299
2448.000000	0.169341
2449.000000	0.181159
2450.000000	0.175084
2451.000000	0.168425
2452.000000	0.160289
2453.000000	0.150915
2454.000000	0.150943
2455.000000	0.148295
2456.000000	0.144142
2457.000000	0.135404
2458.000000	0.133062
2459.000000	0.134900
2460.000000	0.137467
2461.000000	0.147101
2462.000000	0.140927
2463.000000	0.144751
2464.000000	0.136946
2465.000000	0.136186
2466.000000	0.160669
2467.000000	0.157520
2468.000000	0.165966
2469.000000	0.159281
2470.000000	0.130144
2471.000000	0.141433
2472.000000	0.161379
2473.000000	0.156242
2474.000000	0.155043
2475.000000	0.145113
2476.000000	0.106181
2477.000000	0.079830
2478.000000	0.075065
2479.000000	0.078277
2480.000000	0.109335
2481.000000	0.167576
2482.000000	0.207998
2483.000000	0.213026
2484.000000	0.199291
2485.000000	0.171315
2486.000000	0.142459
2487.000000	0.126983
2488.000000	0.127612
2489.000000	0.125917
2490.000000	0.136951
2491.000000	0.156715
2492.000000	0.156916
2493.000000	0.148213
2494.000000	0.155784
2495.000000	0.175459
2496.000000	0.173620
2497.000000	0.172310
2498.000000	0.161690
2499.000000	0.118282
2500.000000	0.087826
