# Wavelength	SM1200H-60_HEX-10_FV7-30_00002.asd.rts.txt
350.000000	0.293911
351.000000	0.288690
352.000000	0.292309
353.000000	0.297878
354.000000	0.300151
355.000000	0.286661
356.000000	0.280639
357.000000	0.287196
358.000000	0.295736
359.000000	0.293448
360.000000	0.288800
361.000000	0.292414
362.000000	0.291695
363.000000	0.291614
364.000000	0.295791
365.000000	0.305734
366.000000	0.307724
367.000000	0.300847
368.000000	0.295199
369.000000	0.295226
370.000000	0.298977
371.000000	0.301882
372.000000	0.299144
373.000000	0.296044
374.000000	0.297084
375.000000	0.300317
376.000000	0.302346
377.000000	0.303290
378.000000	0.307196
379.000000	0.307745
380.000000	0.305441
381.000000	0.304013
382.000000	0.304010
383.000000	0.305831
384.000000	0.309178
385.000000	0.311400
386.000000	0.310471
387.000000	0.308006
388.000000	0.309267
389.000000	0.310493
390.000000	0.310913
391.000000	0.310414
392.000000	0.310302
393.000000	0.310128
394.000000	0.309614
395.000000	0.309815
396.000000	0.311059
397.000000	0.312492
398.000000	0.311428
399.000000	0.312195
400.000000	0.314282
401.000000	0.314978
402.000000	0.313689
403.000000	0.313163
404.000000	0.315426
405.000000	0.316558
406.000000	0.317004
407.000000	0.317271
408.000000	0.317408
409.000000	0.317606
410.000000	0.318171
411.000000	0.319388
412.000000	0.319314
413.000000	0.318993
414.000000	0.319711
415.000000	0.319640
416.000000	0.319311
417.000000	0.319411
418.000000	0.320829
419.000000	0.321786
420.000000	0.322033
421.000000	0.322569
422.000000	0.322492
423.000000	0.322375
424.000000	0.323183
425.000000	0.323972
426.000000	0.324141
427.000000	0.323612
428.000000	0.323747
429.000000	0.324053
430.000000	0.324341
431.000000	0.324817
432.000000	0.325180
433.000000	0.325588
434.000000	0.326475
435.000000	0.326271
436.000000	0.325943
437.000000	0.326492
438.000000	0.326899
439.000000	0.327021
440.000000	0.327050
441.000000	0.327279
442.000000	0.327533
443.000000	0.327716
444.000000	0.327992
445.000000	0.328233
446.000000	0.328658
447.000000	0.329203
448.000000	0.329050
449.000000	0.329287
450.000000	0.330386
451.000000	0.330568
452.000000	0.330677
453.000000	0.330904
454.000000	0.331044
455.000000	0.331245
456.000000	0.331494
457.000000	0.331506
458.000000	0.331818
459.000000	0.332181
460.000000	0.332389
461.000000	0.332626
462.000000	0.332927
463.000000	0.333093
464.000000	0.333178
465.000000	0.333505
466.000000	0.333871
467.000000	0.333890
468.000000	0.334125
469.000000	0.334364
470.000000	0.334498
471.000000	0.334827
472.000000	0.335128
473.000000	0.335290
474.000000	0.335451
475.000000	0.335654
476.000000	0.335954
477.000000	0.335916
478.000000	0.335971
479.000000	0.336350
480.000000	0.336723
481.000000	0.336878
482.000000	0.337159
483.000000	0.337568
484.000000	0.337994
485.000000	0.338117
486.000000	0.338129
487.000000	0.338370
488.000000	0.338548
489.000000	0.338685
490.000000	0.338964
491.000000	0.339128
492.000000	0.339316
493.000000	0.339576
494.000000	0.340048
495.000000	0.340461
496.000000	0.340608
497.000000	0.340762
498.000000	0.340975
499.000000	0.341320
500.000000	0.341645
501.000000	0.341966
502.000000	0.342301
503.000000	0.342562
504.000000	0.342897
505.000000	0.343120
506.000000	0.343109
507.000000	0.343231
508.000000	0.343605
509.000000	0.344135
510.000000	0.344539
511.000000	0.344813
512.000000	0.345070
513.000000	0.345469
514.000000	0.345824
515.000000	0.346208
516.000000	0.346653
517.000000	0.346926
518.000000	0.347156
519.000000	0.347395
520.000000	0.347848
521.000000	0.348186
522.000000	0.348348
523.000000	0.348659
524.000000	0.348931
525.000000	0.349156
526.000000	0.349464
527.000000	0.349676
528.000000	0.349872
529.000000	0.350214
530.000000	0.350486
531.000000	0.350710
532.000000	0.350858
533.000000	0.351196
534.000000	0.351579
535.000000	0.351891
536.000000	0.352071
537.000000	0.352256
538.000000	0.352452
539.000000	0.352612
540.000000	0.352901
541.000000	0.353168
542.000000	0.353338
543.000000	0.353632
544.000000	0.353975
545.000000	0.354253
546.000000	0.354625
547.000000	0.354944
548.000000	0.355205
549.000000	0.355379
550.000000	0.355654
551.000000	0.356027
552.000000	0.356362
553.000000	0.356665
554.000000	0.356997
555.000000	0.357389
556.000000	0.357734
557.000000	0.357961
558.000000	0.358243
559.000000	0.358610
560.000000	0.358864
561.000000	0.359146
562.000000	0.359559
563.000000	0.359857
564.000000	0.360167
565.000000	0.360519
566.000000	0.360929
567.000000	0.361309
568.000000	0.361595
569.000000	0.361903
570.000000	0.362193
571.000000	0.362444
572.000000	0.362682
573.000000	0.362956
574.000000	0.363216
575.000000	0.363467
576.000000	0.363806
577.000000	0.364133
578.000000	0.364428
579.000000	0.364637
580.000000	0.364890
581.000000	0.365222
582.000000	0.365560
583.000000	0.365758
584.000000	0.365898
585.000000	0.366208
586.000000	0.366461
587.000000	0.366693
588.000000	0.366988
589.000000	0.367363
590.000000	0.367635
591.000000	0.367743
592.000000	0.367936
593.000000	0.368156
594.000000	0.368411
595.000000	0.368780
596.000000	0.369165
597.000000	0.369495
598.000000	0.369601
599.000000	0.369675
600.000000	0.369834
601.000000	0.370037
602.000000	0.370255
603.000000	0.370407
604.000000	0.370503
605.000000	0.370670
606.000000	0.370774
607.000000	0.370846
608.000000	0.371020
609.000000	0.371250
610.000000	0.371478
611.000000	0.371650
612.000000	0.371798
613.000000	0.371924
614.000000	0.372091
615.000000	0.372333
616.000000	0.372560
617.000000	0.372704
618.000000	0.372856
619.000000	0.372955
620.000000	0.373010
621.000000	0.373133
622.000000	0.373276
623.000000	0.373405
624.000000	0.373511
625.000000	0.373685
626.000000	0.373902
627.000000	0.374117
628.000000	0.374259
629.000000	0.374455
630.000000	0.374543
631.000000	0.374576
632.000000	0.374751
633.000000	0.374929
634.000000	0.374934
635.000000	0.374980
636.000000	0.375129
637.000000	0.375354
638.000000	0.375575
639.000000	0.375737
640.000000	0.375903
641.000000	0.376026
642.000000	0.376115
643.000000	0.376231
644.000000	0.376434
645.000000	0.376561
646.000000	0.376598
647.000000	0.376573
648.000000	0.376747
649.000000	0.376862
650.000000	0.376885
651.000000	0.377167
652.000000	0.377318
653.000000	0.377401
654.000000	0.377558
655.000000	0.377666
656.000000	0.377835
657.000000	0.378078
658.000000	0.378237
659.000000	0.378373
660.000000	0.378519
661.000000	0.378726
662.000000	0.378856
663.000000	0.378962
664.000000	0.379078
665.000000	0.379228
666.000000	0.379432
667.000000	0.379646
668.000000	0.379749
669.000000	0.379874
670.000000	0.380069
671.000000	0.380109
672.000000	0.380236
673.000000	0.380445
674.000000	0.380571
675.000000	0.380660
676.000000	0.380760
677.000000	0.380932
678.000000	0.381133
679.000000	0.381279
680.000000	0.381359
681.000000	0.381525
682.000000	0.381695
683.000000	0.381777
684.000000	0.381953
685.000000	0.382138
686.000000	0.382307
687.000000	0.382389
688.000000	0.382506
689.000000	0.382628
690.000000	0.382763
691.000000	0.382921
692.000000	0.383002
693.000000	0.383096
694.000000	0.383299
695.000000	0.383511
696.000000	0.383670
697.000000	0.383752
698.000000	0.383967
699.000000	0.384204
700.000000	0.384350
701.000000	0.384408
702.000000	0.384524
703.000000	0.384689
704.000000	0.384743
705.000000	0.384832
706.000000	0.384972
707.000000	0.385230
708.000000	0.385378
709.000000	0.385458
710.000000	0.385580
711.000000	0.385785
712.000000	0.385979
713.000000	0.386163
714.000000	0.386399
715.000000	0.386648
716.000000	0.386817
717.000000	0.386779
718.000000	0.386819
719.000000	0.386923
720.000000	0.387044
721.000000	0.387125
722.000000	0.387228
723.000000	0.387440
724.000000	0.387655
725.000000	0.387765
726.000000	0.387887
727.000000	0.388021
728.000000	0.388054
729.000000	0.388095
730.000000	0.388179
731.000000	0.388311
732.000000	0.388404
733.000000	0.388497
734.000000	0.388643
735.000000	0.388724
736.000000	0.388840
737.000000	0.388864
738.000000	0.388973
739.000000	0.389153
740.000000	0.389171
741.000000	0.389228
742.000000	0.389361
743.000000	0.389499
744.000000	0.389566
745.000000	0.389563
746.000000	0.389590
747.000000	0.389652
748.000000	0.389844
749.000000	0.390016
750.000000	0.390040
751.000000	0.390079
752.000000	0.390153
753.000000	0.390218
754.000000	0.390140
755.000000	0.390250
756.000000	0.390477
757.000000	0.390593
758.000000	0.390633
759.000000	0.390658
760.000000	0.390617
761.000000	0.390564
762.000000	0.390522
763.000000	0.390510
764.000000	0.390635
765.000000	0.390733
766.000000	0.390828
767.000000	0.390952
768.000000	0.391040
769.000000	0.391044
770.000000	0.391015
771.000000	0.391138
772.000000	0.391264
773.000000	0.391301
774.000000	0.391355
775.000000	0.391415
776.000000	0.391507
777.000000	0.391608
778.000000	0.391646
779.000000	0.391609
780.000000	0.391551
781.000000	0.391557
782.000000	0.391540
783.000000	0.391580
784.000000	0.391568
785.000000	0.391616
786.000000	0.391656
787.000000	0.391656
788.000000	0.391691
789.000000	0.391727
790.000000	0.391760
791.000000	0.391848
792.000000	0.391834
793.000000	0.391836
794.000000	0.391951
795.000000	0.392014
796.000000	0.392039
797.000000	0.392048
798.000000	0.392082
799.000000	0.392092
800.000000	0.392078
801.000000	0.392060
802.000000	0.392028
803.000000	0.391999
804.000000	0.392033
805.000000	0.392100
806.000000	0.392073
807.000000	0.392029
808.000000	0.391969
809.000000	0.392161
810.000000	0.392227
811.000000	0.391931
812.000000	0.391826
813.000000	0.391808
814.000000	0.391813
815.000000	0.391834
816.000000	0.391872
817.000000	0.391948
818.000000	0.391979
819.000000	0.392058
820.000000	0.392095
821.000000	0.392036
822.000000	0.392089
823.000000	0.392146
824.000000	0.392099
825.000000	0.392008
826.000000	0.391909
827.000000	0.391839
828.000000	0.391868
829.000000	0.391946
830.000000	0.391924
831.000000	0.391863
832.000000	0.391727
833.000000	0.391574
834.000000	0.391471
835.000000	0.391485
836.000000	0.391500
837.000000	0.391536
838.000000	0.391570
839.000000	0.391489
840.000000	0.391409
841.000000	0.391378
842.000000	0.391363
843.000000	0.391357
844.000000	0.391476
845.000000	0.391619
846.000000	0.391545
847.000000	0.391386
848.000000	0.391209
849.000000	0.391091
850.000000	0.390939
851.000000	0.390801
852.000000	0.390739
853.000000	0.390684
854.000000	0.390568
855.000000	0.390539
856.000000	0.390545
857.000000	0.390572
858.000000	0.390565
859.000000	0.390417
860.000000	0.390252
861.000000	0.390105
862.000000	0.389967
863.000000	0.389742
864.000000	0.389713
865.000000	0.389770
866.000000	0.389810
867.000000	0.389670
868.000000	0.389731
869.000000	0.389763
870.000000	0.389498
871.000000	0.389274
872.000000	0.389096
873.000000	0.388898
874.000000	0.388850
875.000000	0.388691
876.000000	0.388530
877.000000	0.388492
878.000000	0.388216
879.000000	0.388034
880.000000	0.387928
881.000000	0.387710
882.000000	0.387405
883.000000	0.387154
884.000000	0.387024
885.000000	0.386829
886.000000	0.386629
887.000000	0.386490
888.000000	0.386317
889.000000	0.386269
890.000000	0.386154
891.000000	0.385973
892.000000	0.385824
893.000000	0.385687
894.000000	0.385648
895.000000	0.385474
896.000000	0.385268
897.000000	0.385127
898.000000	0.385092
899.000000	0.384901
900.000000	0.384607
901.000000	0.384250
902.000000	0.383991
903.000000	0.383746
904.000000	0.383603
905.000000	0.383530
906.000000	0.383592
907.000000	0.383523
908.000000	0.383282
909.000000	0.382862
910.000000	0.382498
911.000000	0.382303
912.000000	0.382260
913.000000	0.381911
914.000000	0.381731
915.000000	0.381793
916.000000	0.381639
917.000000	0.381314
918.000000	0.380996
919.000000	0.380763
920.000000	0.380470
921.000000	0.380222
922.000000	0.380124
923.000000	0.380170
924.000000	0.379842
925.000000	0.379440
926.000000	0.379231
927.000000	0.379121
928.000000	0.378943
929.000000	0.378682
930.000000	0.378426
931.000000	0.378441
932.000000	0.378277
933.000000	0.377909
934.000000	0.377660
935.000000	0.377402
936.000000	0.377168
937.000000	0.376885
938.000000	0.376637
939.000000	0.376459
940.000000	0.376206
941.000000	0.375848
942.000000	0.375460
943.000000	0.375125
944.000000	0.374738
945.000000	0.374398
946.000000	0.374040
947.000000	0.373709
948.000000	0.373419
949.000000	0.373390
950.000000	0.373387
951.000000	0.373263
952.000000	0.373131
953.000000	0.372956
954.000000	0.372614
955.000000	0.372044
956.000000	0.371720
957.000000	0.371632
958.000000	0.371540
959.000000	0.371329
960.000000	0.371351
961.000000	0.371431
962.000000	0.371306
963.000000	0.370763
964.000000	0.370639
965.000000	0.370583
966.000000	0.370141
967.000000	0.370076
968.000000	0.369819
969.000000	0.369372
970.000000	0.369143
971.000000	0.368886
972.000000	0.368743
973.000000	0.368665
974.000000	0.368565
975.000000	0.368034
976.000000	0.367683
977.000000	0.367838
978.000000	0.367391
979.000000	0.367049
980.000000	0.366898
981.000000	0.367190
982.000000	0.366831
983.000000	0.366563
984.000000	0.366614
985.000000	0.366357
986.000000	0.366046
987.000000	0.365655
988.000000	0.365168
989.000000	0.365257
990.000000	0.365067
991.000000	0.364850
992.000000	0.365104
993.000000	0.365240
994.000000	0.364997
995.000000	0.364676
996.000000	0.364475
997.000000	0.364420
998.000000	0.364394
999.000000	0.364354
1000.000000	0.364101
1001.000000	0.363824
1002.000000	0.363984
1003.000000	0.365040
1004.000000	0.365039
1005.000000	0.364521
1006.000000	0.364503
1007.000000	0.364626
1008.000000	0.363502
1009.000000	0.363808
1010.000000	0.363619
1011.000000	0.363326
1012.000000	0.364099
1013.000000	0.363513
1014.000000	0.363235
1015.000000	0.363473
1016.000000	0.363167
1017.000000	0.363272
1018.000000	0.363608
1019.000000	0.363648
1020.000000	0.363409
1021.000000	0.363081
1022.000000	0.362836
1023.000000	0.362887
1024.000000	0.362850
1025.000000	0.362973
1026.000000	0.363218
1027.000000	0.363107
1028.000000	0.362472
1029.000000	0.362430
1030.000000	0.362250
1031.000000	0.361856
1032.000000	0.362057
1033.000000	0.362175
1034.000000	0.362376
1035.000000	0.362657
1036.000000	0.363052
1037.000000	0.363680
1038.000000	0.363836
1039.000000	0.363884
1040.000000	0.364346
1041.000000	0.363734
1042.000000	0.363336
1043.000000	0.363417
1044.000000	0.362945
1045.000000	0.362944
1046.000000	0.363472
1047.000000	0.363824
1048.000000	0.364038
1049.000000	0.364348
1050.000000	0.365085
1051.000000	0.365154
1052.000000	0.364662
1053.000000	0.364577
1054.000000	0.364490
1055.000000	0.364620
1056.000000	0.365168
1057.000000	0.365653
1058.000000	0.365767
1059.000000	0.365424
1060.000000	0.365345
1061.000000	0.365882
1062.000000	0.366352
1063.000000	0.366707
1064.000000	0.366898
1065.000000	0.366706
1066.000000	0.366708
1067.000000	0.366623
1068.000000	0.366646
1069.000000	0.366688
1070.000000	0.366699
1071.000000	0.366781
1072.000000	0.366938
1073.000000	0.367183
1074.000000	0.367503
1075.000000	0.367722
1076.000000	0.367673
1077.000000	0.367956
1078.000000	0.368313
1079.000000	0.368522
1080.000000	0.369071
1081.000000	0.369168
1082.000000	0.368730
1083.000000	0.368872
1084.000000	0.369348
1085.000000	0.369572
1086.000000	0.369814
1087.000000	0.370198
1088.000000	0.370497
1089.000000	0.370580
1090.000000	0.370661
1091.000000	0.370840
1092.000000	0.370408
1093.000000	0.370347
1094.000000	0.370403
1095.000000	0.370436
1096.000000	0.370883
1097.000000	0.371866
1098.000000	0.372285
1099.000000	0.372705
1100.000000	0.373016
1101.000000	0.372809
1102.000000	0.372901
1103.000000	0.373157
1104.000000	0.373413
1105.000000	0.373781
1106.000000	0.373903
1107.000000	0.373764
1108.000000	0.373827
1109.000000	0.373947
1110.000000	0.373922
1111.000000	0.374194
1112.000000	0.374800
1113.000000	0.375124
1114.000000	0.375479
1115.000000	0.375715
1116.000000	0.375877
1117.000000	0.375969
1118.000000	0.375954
1119.000000	0.375877
1120.000000	0.375614
1121.000000	0.375547
1122.000000	0.375551
1123.000000	0.375876
1124.000000	0.376307
1125.000000	0.376591
1126.000000	0.376930
1127.000000	0.377033
1128.000000	0.376980
1129.000000	0.376679
1130.000000	0.376679
1131.000000	0.376601
1132.000000	0.376722
1133.000000	0.377293
1134.000000	0.377395
1135.000000	0.377234
1136.000000	0.377230
1137.000000	0.377064
1138.000000	0.376950
1139.000000	0.377061
1140.000000	0.377195
1141.000000	0.377283
1142.000000	0.377316
1143.000000	0.377142
1144.000000	0.377344
1145.000000	0.377515
1146.000000	0.377534
1147.000000	0.377715
1148.000000	0.378093
1149.000000	0.378216
1150.000000	0.378271
1151.000000	0.378266
1152.000000	0.378045
1153.000000	0.378015
1154.000000	0.377912
1155.000000	0.377857
1156.000000	0.377893
1157.000000	0.377962
1158.000000	0.377986
1159.000000	0.378067
1160.000000	0.378294
1161.000000	0.378370
1162.000000	0.378515
1163.000000	0.378576
1164.000000	0.378541
1165.000000	0.378619
1166.000000	0.378692
1167.000000	0.378689
1168.000000	0.378838
1169.000000	0.379242
1170.000000	0.379257
1171.000000	0.379255
1172.000000	0.379204
1173.000000	0.378673
1174.000000	0.378589
1175.000000	0.378832
1176.000000	0.378810
1177.000000	0.378808
1178.000000	0.378900
1179.000000	0.378985
1180.000000	0.378941
1181.000000	0.379045
1182.000000	0.379147
1183.000000	0.379028
1184.000000	0.379004
1185.000000	0.379069
1186.000000	0.379259
1187.000000	0.379289
1188.000000	0.379349
1189.000000	0.379254
1190.000000	0.379005
1191.000000	0.378940
1192.000000	0.379067
1193.000000	0.379170
1194.000000	0.379155
1195.000000	0.379210
1196.000000	0.379215
1197.000000	0.379190
1198.000000	0.379267
1199.000000	0.379260
1200.000000	0.379099
1201.000000	0.378998
1202.000000	0.379043
1203.000000	0.379050
1204.000000	0.379041
1205.000000	0.379015
1206.000000	0.378947
1207.000000	0.378893
1208.000000	0.378835
1209.000000	0.378870
1210.000000	0.378896
1211.000000	0.378886
1212.000000	0.378876
1213.000000	0.379005
1214.000000	0.378971
1215.000000	0.378781
1216.000000	0.378699
1217.000000	0.378460
1218.000000	0.378393
1219.000000	0.378500
1220.000000	0.378677
1221.000000	0.378756
1222.000000	0.378866
1223.000000	0.378920
1224.000000	0.378828
1225.000000	0.378803
1226.000000	0.378909
1227.000000	0.378837
1228.000000	0.378931
1229.000000	0.378969
1230.000000	0.378939
1231.000000	0.378875
1232.000000	0.378990
1233.000000	0.379109
1234.000000	0.379156
1235.000000	0.379216
1236.000000	0.379260
1237.000000	0.379288
1238.000000	0.379196
1239.000000	0.379151
1240.000000	0.379150
1241.000000	0.379055
1242.000000	0.378998
1243.000000	0.378860
1244.000000	0.378639
1245.000000	0.378625
1246.000000	0.378580
1247.000000	0.378678
1248.000000	0.378864
1249.000000	0.378896
1250.000000	0.378871
1251.000000	0.378724
1252.000000	0.378640
1253.000000	0.378543
1254.000000	0.378533
1255.000000	0.378583
1256.000000	0.378645
1257.000000	0.378840
1258.000000	0.378916
1259.000000	0.378847
1260.000000	0.378921
1261.000000	0.378893
1262.000000	0.378884
1263.000000	0.379023
1264.000000	0.379030
1265.000000	0.378923
1266.000000	0.378921
1267.000000	0.378912
1268.000000	0.378755
1269.000000	0.378508
1270.000000	0.378499
1271.000000	0.378317
1272.000000	0.378179
1273.000000	0.378378
1274.000000	0.378290
1275.000000	0.378254
1276.000000	0.378351
1277.000000	0.378453
1278.000000	0.378363
1279.000000	0.378364
1280.000000	0.378402
1281.000000	0.378262
1282.000000	0.378087
1283.000000	0.378051
1284.000000	0.377878
1285.000000	0.377840
1286.000000	0.377893
1287.000000	0.377889
1288.000000	0.377998
1289.000000	0.377988
1290.000000	0.377893
1291.000000	0.377732
1292.000000	0.377646
1293.000000	0.377644
1294.000000	0.377702
1295.000000	0.377828
1296.000000	0.377785
1297.000000	0.377666
1298.000000	0.377638
1299.000000	0.377649
1300.000000	0.377750
1301.000000	0.377839
1302.000000	0.377711
1303.000000	0.377476
1304.000000	0.377347
1305.000000	0.377274
1306.000000	0.377170
1307.000000	0.377256
1308.000000	0.377240
1309.000000	0.377026
1310.000000	0.376944
1311.000000	0.376907
1312.000000	0.376981
1313.000000	0.377075
1314.000000	0.377107
1315.000000	0.377159
1316.000000	0.377132
1317.000000	0.377018
1318.000000	0.377064
1319.000000	0.377043
1320.000000	0.376986
1321.000000	0.376990
1322.000000	0.376892
1323.000000	0.376730
1324.000000	0.376567
1325.000000	0.376274
1326.000000	0.376015
1327.000000	0.375873
1328.000000	0.375925
1329.000000	0.375812
1330.000000	0.375727
1331.000000	0.375510
1332.000000	0.375160
1333.000000	0.374980
1334.000000	0.374956
1335.000000	0.374917
1336.000000	0.374961
1337.000000	0.374892
1338.000000	0.374636
1339.000000	0.374485
1340.000000	0.374476
1341.000000	0.374340
1342.000000	0.374270
1343.000000	0.374188
1344.000000	0.374009
1345.000000	0.373971
1346.000000	0.373897
1347.000000	0.373740
1348.000000	0.373683
1349.000000	0.373378
1350.000000	0.373226
1351.000000	0.373065
1352.000000	0.372707
1353.000000	0.372497
1354.000000	0.372412
1355.000000	0.372263
1356.000000	0.372257
1357.000000	0.372170
1358.000000	0.371995
1359.000000	0.371824
1360.000000	0.371639
1361.000000	0.371516
1362.000000	0.371351
1363.000000	0.371130
1364.000000	0.370879
1365.000000	0.370537
1366.000000	0.370250
1367.000000	0.369948
1368.000000	0.369640
1369.000000	0.369468
1370.000000	0.369163
1371.000000	0.368691
1372.000000	0.368215
1373.000000	0.367643
1374.000000	0.366950
1375.000000	0.366129
1376.000000	0.365258
1377.000000	0.364247
1378.000000	0.363007
1379.000000	0.361585
1380.000000	0.359842
1381.000000	0.357586
1382.000000	0.355086
1383.000000	0.352476
1384.000000	0.349652
1385.000000	0.347100
1386.000000	0.344878
1387.000000	0.342733
1388.000000	0.340975
1389.000000	0.339770
1390.000000	0.338967
1391.000000	0.338408
1392.000000	0.338191
1393.000000	0.338187
1394.000000	0.338482
1395.000000	0.338855
1396.000000	0.339712
1397.000000	0.340030
1398.000000	0.340169
1399.000000	0.340195
1400.000000	0.339939
1401.000000	0.339702
1402.000000	0.339534
1403.000000	0.339130
1404.000000	0.338567
1405.000000	0.337876
1406.000000	0.337257
1407.000000	0.336647
1408.000000	0.335994
1409.000000	0.335531
1410.000000	0.335058
1411.000000	0.334517
1412.000000	0.334154
1413.000000	0.334008
1414.000000	0.333858
1415.000000	0.333830
1416.000000	0.333806
1417.000000	0.333633
1418.000000	0.333454
1419.000000	0.333440
1420.000000	0.333510
1421.000000	0.333674
1422.000000	0.333897
1423.000000	0.334138
1424.000000	0.334164
1425.000000	0.334304
1426.000000	0.334451
1427.000000	0.334528
1428.000000	0.334759
1429.000000	0.334940
1430.000000	0.335080
1431.000000	0.335232
1432.000000	0.335327
1433.000000	0.335416
1434.000000	0.335511
1435.000000	0.335637
1436.000000	0.335800
1437.000000	0.335971
1438.000000	0.336151
1439.000000	0.336519
1440.000000	0.336637
1441.000000	0.336635
1442.000000	0.336675
1443.000000	0.336504
1444.000000	0.336422
1445.000000	0.336582
1446.000000	0.336740
1447.000000	0.336798
1448.000000	0.336809
1449.000000	0.336757
1450.000000	0.336658
1451.000000	0.336651
1452.000000	0.336589
1453.000000	0.336492
1454.000000	0.336415
1455.000000	0.336248
1456.000000	0.336260
1457.000000	0.336284
1458.000000	0.336248
1459.000000	0.336322
1460.000000	0.336328
1461.000000	0.336454
1462.000000	0.336578
1463.000000	0.336603
1464.000000	0.336831
1465.000000	0.337005
1466.000000	0.337073
1467.000000	0.337302
1468.000000	0.337634
1469.000000	0.338007
1470.000000	0.338330
1471.000000	0.338732
1472.000000	0.339041
1473.000000	0.339313
1474.000000	0.339626
1475.000000	0.339909
1476.000000	0.340116
1477.000000	0.340377
1478.000000	0.340657
1479.000000	0.340928
1480.000000	0.341304
1481.000000	0.341624
1482.000000	0.341990
1483.000000	0.342370
1484.000000	0.342736
1485.000000	0.343050
1486.000000	0.343341
1487.000000	0.343642
1488.000000	0.343903
1489.000000	0.344310
1490.000000	0.344651
1491.000000	0.345063
1492.000000	0.345623
1493.000000	0.346008
1494.000000	0.346244
1495.000000	0.346542
1496.000000	0.346745
1497.000000	0.346960
1498.000000	0.347249
1499.000000	0.347501
1500.000000	0.347718
1501.000000	0.347953
1502.000000	0.348056
1503.000000	0.348236
1504.000000	0.348459
1505.000000	0.348640
1506.000000	0.348923
1507.000000	0.349114
1508.000000	0.349304
1509.000000	0.349508
1510.000000	0.349602
1511.000000	0.349852
1512.000000	0.350068
1513.000000	0.350235
1514.000000	0.350616
1515.000000	0.350960
1516.000000	0.351190
1517.000000	0.351316
1518.000000	0.351394
1519.000000	0.351406
1520.000000	0.351576
1521.000000	0.351808
1522.000000	0.352059
1523.000000	0.352298
1524.000000	0.352309
1525.000000	0.352343
1526.000000	0.352407
1527.000000	0.352467
1528.000000	0.352631
1529.000000	0.352769
1530.000000	0.352799
1531.000000	0.352948
1532.000000	0.353083
1533.000000	0.353123
1534.000000	0.353191
1535.000000	0.353200
1536.000000	0.353194
1537.000000	0.353391
1538.000000	0.353496
1539.000000	0.353501
1540.000000	0.353729
1541.000000	0.353921
1542.000000	0.354153
1543.000000	0.354534
1544.000000	0.354675
1545.000000	0.354876
1546.000000	0.355104
1547.000000	0.355137
1548.000000	0.355252
1549.000000	0.355300
1550.000000	0.355329
1551.000000	0.355456
1552.000000	0.355556
1553.000000	0.355728
1554.000000	0.355910
1555.000000	0.355977
1556.000000	0.356019
1557.000000	0.355970
1558.000000	0.355985
1559.000000	0.355919
1560.000000	0.355884
1561.000000	0.355952
1562.000000	0.355951
1563.000000	0.355882
1564.000000	0.355920
1565.000000	0.356017
1566.000000	0.355981
1567.000000	0.356067
1568.000000	0.356097
1569.000000	0.356088
1570.000000	0.356208
1571.000000	0.356408
1572.000000	0.356473
1573.000000	0.356577
1574.000000	0.356574
1575.000000	0.356449
1576.000000	0.356458
1577.000000	0.356453
1578.000000	0.356472
1579.000000	0.356620
1580.000000	0.356679
1581.000000	0.356804
1582.000000	0.356838
1583.000000	0.356788
1584.000000	0.356750
1585.000000	0.356744
1586.000000	0.356830
1587.000000	0.357036
1588.000000	0.357048
1589.000000	0.356978
1590.000000	0.356996
1591.000000	0.356919
1592.000000	0.356970
1593.000000	0.357255
1594.000000	0.357388
1595.000000	0.357565
1596.000000	0.357683
1597.000000	0.357748
1598.000000	0.357780
1599.000000	0.357764
1600.000000	0.357775
1601.000000	0.357903
1602.000000	0.357947
1603.000000	0.358025
1604.000000	0.358048
1605.000000	0.358014
1606.000000	0.358014
1607.000000	0.358058
1608.000000	0.358072
1609.000000	0.358190
1610.000000	0.358192
1611.000000	0.358107
1612.000000	0.358082
1613.000000	0.358153
1614.000000	0.358130
1615.000000	0.358222
1616.000000	0.358263
1617.000000	0.358092
1618.000000	0.358075
1619.000000	0.358102
1620.000000	0.358127
1621.000000	0.358269
1622.000000	0.358423
1623.000000	0.358543
1624.000000	0.358627
1625.000000	0.358573
1626.000000	0.358498
1627.000000	0.358399
1628.000000	0.358382
1629.000000	0.358384
1630.000000	0.358337
1631.000000	0.358178
1632.000000	0.358067
1633.000000	0.357932
1634.000000	0.357972
1635.000000	0.358213
1636.000000	0.358269
1637.000000	0.358361
1638.000000	0.358333
1639.000000	0.358163
1640.000000	0.358168
1641.000000	0.358371
1642.000000	0.358394
1643.000000	0.358459
1644.000000	0.358477
1645.000000	0.358346
1646.000000	0.358268
1647.000000	0.358227
1648.000000	0.358188
1649.000000	0.358236
1650.000000	0.358339
1651.000000	0.358596
1652.000000	0.358739
1653.000000	0.358804
1654.000000	0.358851
1655.000000	0.358755
1656.000000	0.358688
1657.000000	0.358732
1658.000000	0.358700
1659.000000	0.358727
1660.000000	0.358779
1661.000000	0.358750
1662.000000	0.358656
1663.000000	0.358481
1664.000000	0.358471
1665.000000	0.358436
1666.000000	0.358550
1667.000000	0.358811
1668.000000	0.358894
1669.000000	0.358863
1670.000000	0.358849
1671.000000	0.358867
1672.000000	0.359050
1673.000000	0.359298
1674.000000	0.359564
1675.000000	0.359867
1676.000000	0.359805
1677.000000	0.359652
1678.000000	0.359674
1679.000000	0.359736
1680.000000	0.359843
1681.000000	0.360020
1682.000000	0.360046
1683.000000	0.359881
1684.000000	0.359819
1685.000000	0.359909
1686.000000	0.359880
1687.000000	0.359918
1688.000000	0.359894
1689.000000	0.359773
1690.000000	0.359820
1691.000000	0.359891
1692.000000	0.359764
1693.000000	0.359791
1694.000000	0.359741
1695.000000	0.359600
1696.000000	0.359584
1697.000000	0.359534
1698.000000	0.359530
1699.000000	0.359522
1700.000000	0.359541
1701.000000	0.359626
1702.000000	0.359476
1703.000000	0.359409
1704.000000	0.359523
1705.000000	0.359566
1706.000000	0.359729
1707.000000	0.359742
1708.000000	0.359541
1709.000000	0.359457
1710.000000	0.359454
1711.000000	0.359477
1712.000000	0.359717
1713.000000	0.359749
1714.000000	0.359688
1715.000000	0.359658
1716.000000	0.359543
1717.000000	0.359501
1718.000000	0.359455
1719.000000	0.359454
1720.000000	0.359669
1721.000000	0.359617
1722.000000	0.359431
1723.000000	0.359333
1724.000000	0.359098
1725.000000	0.359034
1726.000000	0.359110
1727.000000	0.359016
1728.000000	0.358726
1729.000000	0.358574
1730.000000	0.358588
1731.000000	0.358522
1732.000000	0.358541
1733.000000	0.358595
1734.000000	0.358423
1735.000000	0.358405
1736.000000	0.358521
1737.000000	0.358459
1738.000000	0.358319
1739.000000	0.358291
1740.000000	0.358155
1741.000000	0.358265
1742.000000	0.358639
1743.000000	0.358728
1744.000000	0.358790
1745.000000	0.358810
1746.000000	0.358650
1747.000000	0.358591
1748.000000	0.358531
1749.000000	0.358396
1750.000000	0.358286
1751.000000	0.358447
1752.000000	0.358602
1753.000000	0.358664
1754.000000	0.358601
1755.000000	0.358341
1756.000000	0.358143
1757.000000	0.357770
1758.000000	0.357616
1759.000000	0.357635
1760.000000	0.357621
1761.000000	0.357691
1762.000000	0.357673
1763.000000	0.357639
1764.000000	0.357590
1765.000000	0.357423
1766.000000	0.357366
1767.000000	0.357308
1768.000000	0.357126
1769.000000	0.356965
1770.000000	0.356969
1771.000000	0.356943
1772.000000	0.356892
1773.000000	0.356922
1774.000000	0.356905
1775.000000	0.356833
1776.000000	0.356805
1777.000000	0.356859
1778.000000	0.356726
1779.000000	0.356388
1780.000000	0.356320
1781.000000	0.356228
1782.000000	0.356250
1783.000000	0.356572
1784.000000	0.356725
1785.000000	0.356551
1786.000000	0.356398
1787.000000	0.356402
1788.000000	0.356435
1789.000000	0.356424
1790.000000	0.356508
1791.000000	0.356486
1792.000000	0.356469
1793.000000	0.356487
1794.000000	0.356534
1795.000000	0.356539
1796.000000	0.356537
1797.000000	0.356539
1798.000000	0.356447
1799.000000	0.356451
1800.000000	0.356617
1801.000000	0.355986
1802.000000	0.356019
1803.000000	0.357509
1804.000000	0.357993
1805.000000	0.358498
1806.000000	0.358661
1807.000000	0.358663
1808.000000	0.358399
1809.000000	0.357426
1810.000000	0.356999
1811.000000	0.356636
1812.000000	0.355938
1813.000000	0.356079
1814.000000	0.357143
1815.000000	0.357543
1816.000000	0.358195
1817.000000	0.358466
1818.000000	0.358531
1819.000000	0.358291
1820.000000	0.358437
1821.000000	0.358791
1822.000000	0.358538
1823.000000	0.357544
1824.000000	0.357359
1825.000000	0.357249
1826.000000	0.357096
1827.000000	0.357201
1828.000000	0.357406
1829.000000	0.357302
1830.000000	0.356585
1831.000000	0.356132
1832.000000	0.355685
1833.000000	0.355331
1834.000000	0.354787
1835.000000	0.354544
1836.000000	0.354618
1837.000000	0.354544
1838.000000	0.354417
1839.000000	0.353937
1840.000000	0.354165
1841.000000	0.354451
1842.000000	0.354547
1843.000000	0.355052
1844.000000	0.355282
1845.000000	0.355032
1846.000000	0.354852
1847.000000	0.354992
1848.000000	0.353912
1849.000000	0.352949
1850.000000	0.352063
1851.000000	0.351808
1852.000000	0.351929
1853.000000	0.352200
1854.000000	0.353415
1855.000000	0.353160
1856.000000	0.352196
1857.000000	0.350859
1858.000000	0.349816
1859.000000	0.348889
1860.000000	0.348663
1861.000000	0.348782
1862.000000	0.348159
1863.000000	0.347285
1864.000000	0.346278
1865.000000	0.344631
1866.000000	0.343439
1867.000000	0.342411
1868.000000	0.340953
1869.000000	0.339727
1870.000000	0.338493
1871.000000	0.336840
1872.000000	0.334966
1873.000000	0.333383
1874.000000	0.332215
1875.000000	0.330471
1876.000000	0.328539
1877.000000	0.325798
1878.000000	0.322855
1879.000000	0.319825
1880.000000	0.316951
1881.000000	0.314524
1882.000000	0.311494
1883.000000	0.307735
1884.000000	0.304466
1885.000000	0.300951
1886.000000	0.297297
1887.000000	0.293753
1888.000000	0.290326
1889.000000	0.285721
1890.000000	0.280857
1891.000000	0.276630
1892.000000	0.271656
1893.000000	0.267085
1894.000000	0.263040
1895.000000	0.259199
1896.000000	0.255531
1897.000000	0.252616
1898.000000	0.249612
1899.000000	0.246812
1900.000000	0.244529
1901.000000	0.242136
1902.000000	0.239920
1903.000000	0.238179
1904.000000	0.236375
1905.000000	0.234562
1906.000000	0.233467
1907.000000	0.232979
1908.000000	0.233190
1909.000000	0.233419
1910.000000	0.233818
1911.000000	0.233891
1912.000000	0.233750
1913.000000	0.233378
1914.000000	0.233586
1915.000000	0.234584
1916.000000	0.234693
1917.000000	0.235231
1918.000000	0.236324
1919.000000	0.237253
1920.000000	0.237338
1921.000000	0.238322
1922.000000	0.239335
1923.000000	0.240194
1924.000000	0.241377
1925.000000	0.242594
1926.000000	0.243528
1927.000000	0.244311
1928.000000	0.244703
1929.000000	0.244694
1930.000000	0.244932
1931.000000	0.245187
1932.000000	0.245072
1933.000000	0.245374
1934.000000	0.246241
1935.000000	0.247109
1936.000000	0.247519
1937.000000	0.248631
1938.000000	0.249018
1939.000000	0.249304
1940.000000	0.249103
1941.000000	0.250045
1942.000000	0.250582
1943.000000	0.251067
1944.000000	0.251682
1945.000000	0.251868
1946.000000	0.251648
1947.000000	0.251368
1948.000000	0.251560
1949.000000	0.252078
1950.000000	0.252929
1951.000000	0.253574
1952.000000	0.254611
1953.000000	0.255322
1954.000000	0.255296
1955.000000	0.254994
1956.000000	0.255085
1957.000000	0.254735
1958.000000	0.254746
1959.000000	0.255050
1960.000000	0.254894
1961.000000	0.255125
1962.000000	0.255507
1963.000000	0.256178
1964.000000	0.256867
1965.000000	0.257302
1966.000000	0.257802
1967.000000	0.258082
1968.000000	0.257938
1969.000000	0.258435
1970.000000	0.258837
1971.000000	0.258994
1972.000000	0.259977
1973.000000	0.260576
1974.000000	0.261192
1975.000000	0.261837
1976.000000	0.262698
1977.000000	0.262976
1978.000000	0.263276
1979.000000	0.263586
1980.000000	0.264168
1981.000000	0.264973
1982.000000	0.265489
1983.000000	0.266152
1984.000000	0.266707
1985.000000	0.266941
1986.000000	0.267384
1987.000000	0.268061
1988.000000	0.268796
1989.000000	0.269206
1990.000000	0.269419
1991.000000	0.269947
1992.000000	0.270563
1993.000000	0.270616
1994.000000	0.271430
1995.000000	0.272225
1996.000000	0.272501
1997.000000	0.273270
1998.000000	0.274559
1999.000000	0.275675
2000.000000	0.276824
2001.000000	0.278251
2002.000000	0.279236
2003.000000	0.280433
2004.000000	0.280944
2005.000000	0.281212
2006.000000	0.281919
2007.000000	0.282094
2008.000000	0.282769
2009.000000	0.283978
2010.000000	0.284562
2011.000000	0.285000
2012.000000	0.285578
2013.000000	0.286000
2014.000000	0.285648
2015.000000	0.285959
2016.000000	0.286269
2017.000000	0.286377
2018.000000	0.286877
2019.000000	0.287914
2020.000000	0.288929
2021.000000	0.289822
2022.000000	0.290757
2023.000000	0.291667
2024.000000	0.292559
2025.000000	0.293222
2026.000000	0.293589
2027.000000	0.294285
2028.000000	0.294358
2029.000000	0.294993
2030.000000	0.295796
2031.000000	0.296106
2032.000000	0.296918
2033.000000	0.297384
2034.000000	0.297661
2035.000000	0.297854
2036.000000	0.298202
2037.000000	0.298617
2038.000000	0.298894
2039.000000	0.299541
2040.000000	0.299414
2041.000000	0.299243
2042.000000	0.299509
2043.000000	0.300081
2044.000000	0.301379
2045.000000	0.302125
2046.000000	0.302803
2047.000000	0.303471
2048.000000	0.303676
2049.000000	0.304224
2050.000000	0.304693
2051.000000	0.305018
2052.000000	0.305154
2053.000000	0.305328
2054.000000	0.305544
2055.000000	0.306314
2056.000000	0.306799
2057.000000	0.307160
2058.000000	0.307956
2059.000000	0.308367
2060.000000	0.308566
2061.000000	0.308535
2062.000000	0.308666
2063.000000	0.308686
2064.000000	0.308647
2065.000000	0.309031
2066.000000	0.309270
2067.000000	0.309704
2068.000000	0.309651
2069.000000	0.310315
2070.000000	0.310955
2071.000000	0.311382
2072.000000	0.312053
2073.000000	0.312131
2074.000000	0.312161
2075.000000	0.312254
2076.000000	0.312084
2077.000000	0.312203
2078.000000	0.312403
2079.000000	0.312716
2080.000000	0.313610
2081.000000	0.313942
2082.000000	0.314076
2083.000000	0.314206
2084.000000	0.314343
2085.000000	0.314294
2086.000000	0.314299
2087.000000	0.314576
2088.000000	0.314812
2089.000000	0.315006
2090.000000	0.315310
2091.000000	0.316148
2092.000000	0.316436
2093.000000	0.316419
2094.000000	0.316448
2095.000000	0.316380
2096.000000	0.316381
2097.000000	0.316375
2098.000000	0.316086
2099.000000	0.316044
2100.000000	0.316046
2101.000000	0.315788
2102.000000	0.316022
2103.000000	0.317012
2104.000000	0.317770
2105.000000	0.318472
2106.000000	0.319657
2107.000000	0.320473
2108.000000	0.320813
2109.000000	0.321335
2110.000000	0.321843
2111.000000	0.322210
2112.000000	0.322287
2113.000000	0.322193
2114.000000	0.322326
2115.000000	0.322546
2116.000000	0.322773
2117.000000	0.322635
2118.000000	0.322471
2119.000000	0.322519
2120.000000	0.322541
2121.000000	0.322593
2122.000000	0.322555
2123.000000	0.322404
2124.000000	0.322520
2125.000000	0.322518
2126.000000	0.322960
2127.000000	0.324205
2128.000000	0.324814
2129.000000	0.325372
2130.000000	0.325829
2131.000000	0.324903
2132.000000	0.324123
2133.000000	0.323118
2134.000000	0.322391
2135.000000	0.322953
2136.000000	0.323271
2137.000000	0.323894
2138.000000	0.325465
2139.000000	0.325868
2140.000000	0.325886
2141.000000	0.325854
2142.000000	0.325021
2143.000000	0.324648
2144.000000	0.324441
2145.000000	0.324639
2146.000000	0.325494
2147.000000	0.326067
2148.000000	0.326856
2149.000000	0.327866
2150.000000	0.327695
2151.000000	0.327526
2152.000000	0.327007
2153.000000	0.325558
2154.000000	0.324905
2155.000000	0.324123
2156.000000	0.324290
2157.000000	0.325620
2158.000000	0.325987
2159.000000	0.326772
2160.000000	0.327257
2161.000000	0.326791
2162.000000	0.326972
2163.000000	0.327492
2164.000000	0.327506
2165.000000	0.327205
2166.000000	0.327463
2167.000000	0.326519
2168.000000	0.326584
2169.000000	0.327790
2170.000000	0.328028
2171.000000	0.328368
2172.000000	0.329436
2173.000000	0.329656
2174.000000	0.329044
2175.000000	0.328824
2176.000000	0.328352
2177.000000	0.328186
2178.000000	0.328518
2179.000000	0.328182
2180.000000	0.327259
2181.000000	0.327352
2182.000000	0.327076
2183.000000	0.326467
2184.000000	0.326511
2185.000000	0.327095
2186.000000	0.326526
2187.000000	0.326281
2188.000000	0.326434
2189.000000	0.326224
2190.000000	0.326590
2191.000000	0.327424
2192.000000	0.327671
2193.000000	0.327675
2194.000000	0.327680
2195.000000	0.327534
2196.000000	0.327261
2197.000000	0.326930
2198.000000	0.326655
2199.000000	0.325462
2200.000000	0.325465
2201.000000	0.326860
2202.000000	0.327307
2203.000000	0.327312
2204.000000	0.329232
2205.000000	0.327876
2206.000000	0.325806
2207.000000	0.324951
2208.000000	0.322382
2209.000000	0.321871
2210.000000	0.323638
2211.000000	0.326078
2212.000000	0.328003
2213.000000	0.327655
2214.000000	0.325644
2215.000000	0.323812
2216.000000	0.319193
2217.000000	0.318406
2218.000000	0.319437
2219.000000	0.319762
2220.000000	0.321883
2221.000000	0.322370
2222.000000	0.321318
2223.000000	0.321511
2224.000000	0.322407
2225.000000	0.322580
2226.000000	0.322157
2227.000000	0.322929
2228.000000	0.322001
2229.000000	0.320284
2230.000000	0.320030
2231.000000	0.319456
2232.000000	0.319162
2233.000000	0.320107
2234.000000	0.320750
2235.000000	0.322731
2236.000000	0.323126
2237.000000	0.323277
2238.000000	0.322674
2239.000000	0.319831
2240.000000	0.319622
2241.000000	0.320576
2242.000000	0.320549
2243.000000	0.322300
2244.000000	0.322100
2245.000000	0.318928
2246.000000	0.319271
2247.000000	0.321315
2248.000000	0.321210
2249.000000	0.322459
2250.000000	0.322120
2251.000000	0.317901
2252.000000	0.315325
2253.000000	0.312918
2254.000000	0.311740
2255.000000	0.313212
2256.000000	0.315605
2257.000000	0.316448
2258.000000	0.317099
2259.000000	0.316388
2260.000000	0.315221
2261.000000	0.314987
2262.000000	0.315386
2263.000000	0.316165
2264.000000	0.318044
2265.000000	0.317653
2266.000000	0.316487
2267.000000	0.315907
2268.000000	0.314436
2269.000000	0.313592
2270.000000	0.315115
2271.000000	0.313735
2272.000000	0.308341
2273.000000	0.306287
2274.000000	0.303862
2275.000000	0.303070
2276.000000	0.304837
2277.000000	0.307900
2278.000000	0.307865
2279.000000	0.307517
2280.000000	0.305577
2281.000000	0.301994
2282.000000	0.298423
2283.000000	0.296188
2284.000000	0.295278
2285.000000	0.294215
2286.000000	0.294783
2287.000000	0.294541
2288.000000	0.294593
2289.000000	0.295766
2290.000000	0.294568
2291.000000	0.294246
2292.000000	0.292279
2293.000000	0.288124
2294.000000	0.285869
2295.000000	0.282963
2296.000000	0.282056
2297.000000	0.282886
2298.000000	0.284478
2299.000000	0.289654
2300.000000	0.291028
2301.000000	0.292355
2302.000000	0.290504
2303.000000	0.283844
2304.000000	0.279141
2305.000000	0.272075
2306.000000	0.268131
2307.000000	0.265347
2308.000000	0.264722
2309.000000	0.265887
2310.000000	0.267350
2311.000000	0.269132
2312.000000	0.268966
2313.000000	0.267343
2314.000000	0.267096
2315.000000	0.266611
2316.000000	0.266672
2317.000000	0.266181
2318.000000	0.265668
2319.000000	0.266376
2320.000000	0.266653
2321.000000	0.268419
2322.000000	0.270620
2323.000000	0.272198
2324.000000	0.274613
2325.000000	0.277343
2326.000000	0.282187
2327.000000	0.286015
2328.000000	0.287820
2329.000000	0.289742
2330.000000	0.289427
2331.000000	0.288971
2332.000000	0.289946
2333.000000	0.291804
2334.000000	0.293459
2335.000000	0.293195
2336.000000	0.290666
2337.000000	0.290085
2338.000000	0.287787
2339.000000	0.287099
2340.000000	0.288786
2341.000000	0.288998
2342.000000	0.289010
2343.000000	0.289013
2344.000000	0.289492
2345.000000	0.289080
2346.000000	0.288319
2347.000000	0.286164
2348.000000	0.282660
2349.000000	0.279219
2350.000000	0.275906
2351.000000	0.274475
2352.000000	0.275331
2353.000000	0.278043
2354.000000	0.277693
2355.000000	0.278061
2356.000000	0.279679
2357.000000	0.279849
2358.000000	0.281680
2359.000000	0.282322
2360.000000	0.282093
2361.000000	0.280158
2362.000000	0.277986
2363.000000	0.278259
2364.000000	0.278356
2365.000000	0.277227
2366.000000	0.277466
2367.000000	0.279015
2368.000000	0.275213
2369.000000	0.270841
2370.000000	0.267098
2371.000000	0.259144
2372.000000	0.257735
2373.000000	0.259163
2374.000000	0.259616
2375.000000	0.266949
2376.000000	0.271310
2377.000000	0.270149
2378.000000	0.267288
2379.000000	0.260938
2380.000000	0.250452
2381.000000	0.244502
2382.000000	0.247225
2383.000000	0.247818
2384.000000	0.249152
2385.000000	0.251680
2386.000000	0.248831
2387.000000	0.245213
2388.000000	0.245633
2389.000000	0.248062
2390.000000	0.249743
2391.000000	0.250375
2392.000000	0.251645
2393.000000	0.251456
2394.000000	0.247466
2395.000000	0.249140
2396.000000	0.251308
2397.000000	0.252236
2398.000000	0.256976
2399.000000	0.254410
2400.000000	0.250892
2401.000000	0.246540
2402.000000	0.245267
2403.000000	0.251676
2404.000000	0.253323
2405.000000	0.252679
2406.000000	0.248459
2407.000000	0.241351
2408.000000	0.243517
2409.000000	0.250402
2410.000000	0.246672
2411.000000	0.246162
2412.000000	0.248296
2413.000000	0.245463
2414.000000	0.252988
2415.000000	0.255288
2416.000000	0.250220
2417.000000	0.242611
2418.000000	0.232916
2419.000000	0.233049
2420.000000	0.230072
2421.000000	0.222588
2422.000000	0.217379
2423.000000	0.215367
2424.000000	0.217428
2425.000000	0.222297
2426.000000	0.237033
2427.000000	0.243414
2428.000000	0.241425
2429.000000	0.249839
2430.000000	0.253628
2431.000000	0.254622
2432.000000	0.262220
2433.000000	0.262893
2434.000000	0.257780
2435.000000	0.252309
2436.000000	0.240450
2437.000000	0.236294
2438.000000	0.229857
2439.000000	0.221920
2440.000000	0.229462
2441.000000	0.232586
2442.000000	0.233236
2443.000000	0.227288
2444.000000	0.221420
2445.000000	0.227795
2446.000000	0.231814
2447.000000	0.241340
2448.000000	0.248727
2449.000000	0.247949
2450.000000	0.250456
2451.000000	0.247876
2452.000000	0.241872
2453.000000	0.239877
2454.000000	0.224133
2455.000000	0.206141
2456.000000	0.207832
2457.000000	0.210727
2458.000000	0.216429
2459.000000	0.219930
2460.000000	0.210983
2461.000000	0.196633
2462.000000	0.175800
2463.000000	0.171716
2464.000000	0.188412
2465.000000	0.209452
2466.000000	0.220559
2467.000000	0.220185
2468.000000	0.206736
2469.000000	0.200122
2470.000000	0.217132
2471.000000	0.241300
2472.000000	0.258922
2473.000000	0.243147
2474.000000	0.213574
2475.000000	0.213286
2476.000000	0.233627
2477.000000	0.242159
2478.000000	0.252201
2479.000000	0.250095
2480.000000	0.229096
2481.000000	0.240315
2482.000000	0.269154
2483.000000	0.290403
2484.000000	0.289010
2485.000000	0.280319
2486.000000	0.280439
2487.000000	0.235957
2488.000000	0.214528
2489.000000	0.208089
2490.000000	0.173823
2491.000000	0.229077
2492.000000	0.231555
2493.000000	0.218663
2494.000000	0.210384
2495.000000	0.137874
2496.000000	0.126561
2497.000000	0.191632
2498.000000	0.207754
2499.000000	0.256233
2500.000000	0.254118
