# Wavelength	SM1200H-20_HEX-40_FV7-40_00002.asd.rts.txt
350.000000	0.234226
351.000000	0.236313
352.000000	0.240662
353.000000	0.242084
354.000000	0.242507
355.000000	0.249085
356.000000	0.252703
357.000000	0.253809
358.000000	0.254409
359.000000	0.246791
360.000000	0.245230
361.000000	0.261280
362.000000	0.259741
363.000000	0.251957
364.000000	0.248657
365.000000	0.251415
366.000000	0.251252
367.000000	0.248333
368.000000	0.251389
369.000000	0.252894
370.000000	0.255046
371.000000	0.260640
372.000000	0.254303
373.000000	0.246780
374.000000	0.247372
375.000000	0.255082
376.000000	0.259657
377.000000	0.259692
378.000000	0.262366
379.000000	0.260507
380.000000	0.256112
381.000000	0.254644
382.000000	0.255857
383.000000	0.256794
384.000000	0.256707
385.000000	0.261134
386.000000	0.263954
387.000000	0.263982
388.000000	0.264581
389.000000	0.265443
390.000000	0.265769
391.000000	0.264484
392.000000	0.265026
393.000000	0.265804
394.000000	0.265496
395.000000	0.265753
396.000000	0.267538
397.000000	0.269994
398.000000	0.269876
399.000000	0.269865
400.000000	0.270268
401.000000	0.270339
402.000000	0.270185
403.000000	0.269927
404.000000	0.269886
405.000000	0.270333
406.000000	0.271030
407.000000	0.271778
408.000000	0.272414
409.000000	0.271940
410.000000	0.271222
411.000000	0.272199
412.000000	0.273469
413.000000	0.274552
414.000000	0.275157
415.000000	0.274421
416.000000	0.274419
417.000000	0.275891
418.000000	0.276382
419.000000	0.276817
420.000000	0.277113
421.000000	0.276312
422.000000	0.276316
423.000000	0.277037
424.000000	0.277793
425.000000	0.278063
426.000000	0.277970
427.000000	0.277893
428.000000	0.278943
429.000000	0.279384
430.000000	0.278986
431.000000	0.279496
432.000000	0.279773
433.000000	0.279871
434.000000	0.280419
435.000000	0.280825
436.000000	0.280983
437.000000	0.280954
438.000000	0.281221
439.000000	0.281607
440.000000	0.281960
441.000000	0.281763
442.000000	0.281826
443.000000	0.282273
444.000000	0.282953
445.000000	0.283034
446.000000	0.282970
447.000000	0.283262
448.000000	0.283321
449.000000	0.283572
450.000000	0.284203
451.000000	0.284419
452.000000	0.284648
453.000000	0.284984
454.000000	0.285431
455.000000	0.285842
456.000000	0.286198
457.000000	0.286345
458.000000	0.286537
459.000000	0.286967
460.000000	0.287615
461.000000	0.287281
462.000000	0.287279
463.000000	0.287937
464.000000	0.288415
465.000000	0.288541
466.000000	0.288575
467.000000	0.289278
468.000000	0.289448
469.000000	0.289329
470.000000	0.289622
471.000000	0.289775
472.000000	0.289935
473.000000	0.290230
474.000000	0.290478
475.000000	0.290353
476.000000	0.290244
477.000000	0.291031
478.000000	0.291187
479.000000	0.291162
480.000000	0.291725
481.000000	0.292147
482.000000	0.292524
483.000000	0.292759
484.000000	0.292713
485.000000	0.292771
486.000000	0.293201
487.000000	0.293357
488.000000	0.293598
489.000000	0.293957
490.000000	0.294252
491.000000	0.294527
492.000000	0.294816
493.000000	0.295010
494.000000	0.295243
495.000000	0.295583
496.000000	0.295972
497.000000	0.296238
498.000000	0.296502
499.000000	0.296865
500.000000	0.297204
501.000000	0.297329
502.000000	0.297474
503.000000	0.297939
504.000000	0.298226
505.000000	0.298446
506.000000	0.298770
507.000000	0.298984
508.000000	0.299207
509.000000	0.299482
510.000000	0.299865
511.000000	0.300096
512.000000	0.300245
513.000000	0.300584
514.000000	0.301025
515.000000	0.301506
516.000000	0.301889
517.000000	0.302153
518.000000	0.302434
519.000000	0.302760
520.000000	0.303220
521.000000	0.303530
522.000000	0.303672
523.000000	0.304039
524.000000	0.304317
525.000000	0.304514
526.000000	0.304850
527.000000	0.305193
528.000000	0.305468
529.000000	0.305707
530.000000	0.306049
531.000000	0.306371
532.000000	0.306541
533.000000	0.306853
534.000000	0.307209
535.000000	0.307521
536.000000	0.307733
537.000000	0.307981
538.000000	0.308279
539.000000	0.308574
540.000000	0.308858
541.000000	0.309117
542.000000	0.309395
543.000000	0.309774
544.000000	0.310069
545.000000	0.310190
546.000000	0.310517
547.000000	0.310895
548.000000	0.311255
549.000000	0.311459
550.000000	0.311749
551.000000	0.312082
552.000000	0.312301
553.000000	0.312627
554.000000	0.313014
555.000000	0.313395
556.000000	0.313710
557.000000	0.313961
558.000000	0.314295
559.000000	0.314640
560.000000	0.314910
561.000000	0.315251
562.000000	0.315739
563.000000	0.315965
564.000000	0.316213
565.000000	0.316673
566.000000	0.317054
567.000000	0.317368
568.000000	0.317644
569.000000	0.317979
570.000000	0.318322
571.000000	0.318677
572.000000	0.319129
573.000000	0.319417
574.000000	0.319621
575.000000	0.319992
576.000000	0.320411
577.000000	0.320733
578.000000	0.320965
579.000000	0.321292
580.000000	0.321599
581.000000	0.321858
582.000000	0.322192
583.000000	0.322514
584.000000	0.322819
585.000000	0.323142
586.000000	0.323458
587.000000	0.323716
588.000000	0.323895
589.000000	0.324169
590.000000	0.324451
591.000000	0.324694
592.000000	0.325007
593.000000	0.325315
594.000000	0.325601
595.000000	0.325923
596.000000	0.326075
597.000000	0.326217
598.000000	0.326510
599.000000	0.326727
600.000000	0.326973
601.000000	0.327262
602.000000	0.327541
603.000000	0.327687
604.000000	0.327742
605.000000	0.328028
606.000000	0.328294
607.000000	0.328475
608.000000	0.328607
609.000000	0.328796
610.000000	0.328990
611.000000	0.329110
612.000000	0.329265
613.000000	0.329442
614.000000	0.329635
615.000000	0.329695
616.000000	0.329779
617.000000	0.329902
618.000000	0.330050
619.000000	0.330325
620.000000	0.330575
621.000000	0.330641
622.000000	0.330742
623.000000	0.330883
624.000000	0.331042
625.000000	0.331287
626.000000	0.331461
627.000000	0.331538
628.000000	0.331677
629.000000	0.331960
630.000000	0.332191
631.000000	0.332335
632.000000	0.332450
633.000000	0.332591
634.000000	0.332775
635.000000	0.332962
636.000000	0.333121
637.000000	0.333246
638.000000	0.333468
639.000000	0.333625
640.000000	0.333763
641.000000	0.333918
642.000000	0.334167
643.000000	0.334383
644.000000	0.334409
645.000000	0.334443
646.000000	0.334523
647.000000	0.334631
648.000000	0.334805
649.000000	0.335017
650.000000	0.335206
651.000000	0.335330
652.000000	0.335464
653.000000	0.335632
654.000000	0.335743
655.000000	0.335867
656.000000	0.336122
657.000000	0.336485
658.000000	0.336714
659.000000	0.336868
660.000000	0.336986
661.000000	0.337119
662.000000	0.337258
663.000000	0.337433
664.000000	0.337578
665.000000	0.337754
666.000000	0.337938
667.000000	0.338070
668.000000	0.338275
669.000000	0.338402
670.000000	0.338435
671.000000	0.338657
672.000000	0.338906
673.000000	0.339121
674.000000	0.339322
675.000000	0.339520
676.000000	0.339663
677.000000	0.339725
678.000000	0.339838
679.000000	0.340012
680.000000	0.340214
681.000000	0.340288
682.000000	0.340465
683.000000	0.340703
684.000000	0.340950
685.000000	0.341105
686.000000	0.341210
687.000000	0.341310
688.000000	0.341526
689.000000	0.341750
690.000000	0.341925
691.000000	0.342084
692.000000	0.342183
693.000000	0.342327
694.000000	0.342615
695.000000	0.342809
696.000000	0.342953
697.000000	0.343192
698.000000	0.343362
699.000000	0.343506
700.000000	0.343685
701.000000	0.343857
702.000000	0.344066
703.000000	0.344276
704.000000	0.344394
705.000000	0.344534
706.000000	0.344685
707.000000	0.344886
708.000000	0.345026
709.000000	0.345124
710.000000	0.345244
711.000000	0.345418
712.000000	0.345521
713.000000	0.345563
714.000000	0.345675
715.000000	0.345886
716.000000	0.346176
717.000000	0.346447
718.000000	0.346569
719.000000	0.346583
720.000000	0.346593
721.000000	0.346696
722.000000	0.346820
723.000000	0.346995
724.000000	0.347192
725.000000	0.347331
726.000000	0.347505
727.000000	0.347678
728.000000	0.347744
729.000000	0.347833
730.000000	0.347984
731.000000	0.348093
732.000000	0.348212
733.000000	0.348379
734.000000	0.348471
735.000000	0.348577
736.000000	0.348797
737.000000	0.348942
738.000000	0.349031
739.000000	0.349165
740.000000	0.349222
741.000000	0.349271
742.000000	0.349414
743.000000	0.349591
744.000000	0.349651
745.000000	0.349712
746.000000	0.349798
747.000000	0.349809
748.000000	0.349957
749.000000	0.350073
750.000000	0.350031
751.000000	0.350061
752.000000	0.350148
753.000000	0.350267
754.000000	0.350340
755.000000	0.350384
756.000000	0.350426
757.000000	0.350449
758.000000	0.350512
759.000000	0.350634
760.000000	0.350727
761.000000	0.350784
762.000000	0.350946
763.000000	0.351115
764.000000	0.351145
765.000000	0.351203
766.000000	0.351310
767.000000	0.351425
768.000000	0.351421
769.000000	0.351471
770.000000	0.351606
771.000000	0.351609
772.000000	0.351699
773.000000	0.351801
774.000000	0.351877
775.000000	0.351890
776.000000	0.351940
777.000000	0.352056
778.000000	0.352109
779.000000	0.352159
780.000000	0.352215
781.000000	0.352214
782.000000	0.352273
783.000000	0.352374
784.000000	0.352290
785.000000	0.352289
786.000000	0.352352
787.000000	0.352418
788.000000	0.352385
789.000000	0.352385
790.000000	0.352467
791.000000	0.352680
792.000000	0.352712
793.000000	0.352591
794.000000	0.352486
795.000000	0.352798
796.000000	0.353039
797.000000	0.353007
798.000000	0.352808
799.000000	0.352691
800.000000	0.352674
801.000000	0.352700
802.000000	0.352792
803.000000	0.352890
804.000000	0.352967
805.000000	0.352888
806.000000	0.352898
807.000000	0.353083
808.000000	0.353253
809.000000	0.353254
810.000000	0.353176
811.000000	0.353103
812.000000	0.353033
813.000000	0.353040
814.000000	0.353080
815.000000	0.353036
816.000000	0.353066
817.000000	0.353141
818.000000	0.353125
819.000000	0.353233
820.000000	0.353290
821.000000	0.353218
822.000000	0.353278
823.000000	0.353321
824.000000	0.353276
825.000000	0.353248
826.000000	0.353277
827.000000	0.353278
828.000000	0.353259
829.000000	0.353272
830.000000	0.353257
831.000000	0.353220
832.000000	0.353025
833.000000	0.352936
834.000000	0.352888
835.000000	0.352859
836.000000	0.352946
837.000000	0.353024
838.000000	0.353054
839.000000	0.353017
840.000000	0.352946
841.000000	0.352902
842.000000	0.352862
843.000000	0.352710
844.000000	0.352586
845.000000	0.352496
846.000000	0.352394
847.000000	0.352488
848.000000	0.352569
849.000000	0.352455
850.000000	0.352513
851.000000	0.352428
852.000000	0.352241
853.000000	0.352412
854.000000	0.352294
855.000000	0.352110
856.000000	0.352084
857.000000	0.352038
858.000000	0.352005
859.000000	0.351902
860.000000	0.351703
861.000000	0.351663
862.000000	0.351746
863.000000	0.351713
864.000000	0.351539
865.000000	0.351378
866.000000	0.351326
867.000000	0.351236
868.000000	0.351217
869.000000	0.351173
870.000000	0.351087
871.000000	0.351073
872.000000	0.350988
873.000000	0.350743
874.000000	0.350662
875.000000	0.350507
876.000000	0.350282
877.000000	0.350018
878.000000	0.349822
879.000000	0.349744
880.000000	0.349607
881.000000	0.349390
882.000000	0.349184
883.000000	0.348974
884.000000	0.348672
885.000000	0.348697
886.000000	0.348692
887.000000	0.348489
888.000000	0.348303
889.000000	0.347982
890.000000	0.347616
891.000000	0.347589
892.000000	0.347575
893.000000	0.347461
894.000000	0.347375
895.000000	0.347356
896.000000	0.347156
897.000000	0.346823
898.000000	0.346522
899.000000	0.346332
900.000000	0.346197
901.000000	0.346014
902.000000	0.345779
903.000000	0.345793
904.000000	0.345804
905.000000	0.345428
906.000000	0.345259
907.000000	0.345127
908.000000	0.345015
909.000000	0.344901
910.000000	0.344764
911.000000	0.344637
912.000000	0.344554
913.000000	0.344432
914.000000	0.344195
915.000000	0.343952
916.000000	0.343751
917.000000	0.343538
918.000000	0.343349
919.000000	0.343162
920.000000	0.342854
921.000000	0.342639
922.000000	0.342494
923.000000	0.342257
924.000000	0.342085
925.000000	0.341921
926.000000	0.341706
927.000000	0.341270
928.000000	0.341061
929.000000	0.340961
930.000000	0.340706
931.000000	0.340385
932.000000	0.340124
933.000000	0.339885
934.000000	0.339354
935.000000	0.339012
936.000000	0.338906
937.000000	0.338800
938.000000	0.338455
939.000000	0.338110
940.000000	0.337817
941.000000	0.337688
942.000000	0.337650
943.000000	0.337479
944.000000	0.337024
945.000000	0.336784
946.000000	0.336474
947.000000	0.336170
948.000000	0.335955
949.000000	0.335873
950.000000	0.335646
951.000000	0.335242
952.000000	0.335017
953.000000	0.334747
954.000000	0.334552
955.000000	0.334403
956.000000	0.334067
957.000000	0.333757
958.000000	0.333427
959.000000	0.333119
960.000000	0.333103
961.000000	0.333017
962.000000	0.332755
963.000000	0.332620
964.000000	0.332295
965.000000	0.331892
966.000000	0.331488
967.000000	0.331368
968.000000	0.331246
969.000000	0.331070
970.000000	0.331039
971.000000	0.331068
972.000000	0.330979
973.000000	0.330681
974.000000	0.330420
975.000000	0.330013
976.000000	0.329701
977.000000	0.329600
978.000000	0.329229
979.000000	0.329135
980.000000	0.329122
981.000000	0.329162
982.000000	0.328773
983.000000	0.328370
984.000000	0.328188
985.000000	0.328020
986.000000	0.327887
987.000000	0.327730
988.000000	0.327415
989.000000	0.327130
990.000000	0.326947
991.000000	0.326890
992.000000	0.326939
993.000000	0.326762
994.000000	0.326529
995.000000	0.326422
996.000000	0.326178
997.000000	0.325997
998.000000	0.325719
999.000000	0.325544
1000.000000	0.325935
1001.000000	0.325812
1002.000000	0.325612
1003.000000	0.325774
1004.000000	0.325768
1005.000000	0.325207
1006.000000	0.324916
1007.000000	0.325051
1008.000000	0.324883
1009.000000	0.323995
1010.000000	0.323753
1011.000000	0.324109
1012.000000	0.323589
1013.000000	0.323008
1014.000000	0.322618
1015.000000	0.322688
1016.000000	0.323369
1017.000000	0.323611
1018.000000	0.324035
1019.000000	0.324184
1020.000000	0.323705
1021.000000	0.323215
1022.000000	0.322820
1023.000000	0.322904
1024.000000	0.322765
1025.000000	0.323252
1026.000000	0.323864
1027.000000	0.323982
1028.000000	0.323958
1029.000000	0.323775
1030.000000	0.323259
1031.000000	0.322955
1032.000000	0.322953
1033.000000	0.322701
1034.000000	0.322854
1035.000000	0.323827
1036.000000	0.324028
1037.000000	0.323829
1038.000000	0.323827
1039.000000	0.323799
1040.000000	0.323687
1041.000000	0.323439
1042.000000	0.323639
1043.000000	0.323449
1044.000000	0.323142
1045.000000	0.323623
1046.000000	0.323566
1047.000000	0.323582
1048.000000	0.323451
1049.000000	0.323569
1050.000000	0.323816
1051.000000	0.324072
1052.000000	0.324384
1053.000000	0.324660
1054.000000	0.325012
1055.000000	0.325377
1056.000000	0.325831
1057.000000	0.326506
1058.000000	0.326813
1059.000000	0.326589
1060.000000	0.326494
1061.000000	0.326437
1062.000000	0.326304
1063.000000	0.326389
1064.000000	0.326512
1065.000000	0.326595
1066.000000	0.326844
1067.000000	0.327509
1068.000000	0.327489
1069.000000	0.326660
1070.000000	0.326766
1071.000000	0.327298
1072.000000	0.327461
1073.000000	0.328019
1074.000000	0.328724
1075.000000	0.328553
1076.000000	0.328450
1077.000000	0.328616
1078.000000	0.328561
1079.000000	0.328722
1080.000000	0.328954
1081.000000	0.328982
1082.000000	0.329121
1083.000000	0.329344
1084.000000	0.329440
1085.000000	0.329655
1086.000000	0.330147
1087.000000	0.330466
1088.000000	0.330387
1089.000000	0.330605
1090.000000	0.331091
1091.000000	0.331309
1092.000000	0.331637
1093.000000	0.332172
1094.000000	0.332347
1095.000000	0.332175
1096.000000	0.332337
1097.000000	0.332577
1098.000000	0.332666
1099.000000	0.332592
1100.000000	0.332842
1101.000000	0.333150
1102.000000	0.333313
1103.000000	0.333641
1104.000000	0.333932
1105.000000	0.333906
1106.000000	0.334090
1107.000000	0.334601
1108.000000	0.334827
1109.000000	0.335061
1110.000000	0.335077
1111.000000	0.335163
1112.000000	0.334985
1113.000000	0.335288
1114.000000	0.336000
1115.000000	0.336209
1116.000000	0.336411
1117.000000	0.336577
1118.000000	0.336453
1119.000000	0.336326
1120.000000	0.336130
1121.000000	0.336192
1122.000000	0.336359
1123.000000	0.336656
1124.000000	0.337162
1125.000000	0.337437
1126.000000	0.337267
1127.000000	0.337293
1128.000000	0.337358
1129.000000	0.337540
1130.000000	0.337559
1131.000000	0.337623
1132.000000	0.337594
1133.000000	0.337380
1134.000000	0.337434
1135.000000	0.337592
1136.000000	0.337665
1137.000000	0.337854
1138.000000	0.337852
1139.000000	0.337759
1140.000000	0.337832
1141.000000	0.337764
1142.000000	0.337875
1143.000000	0.338127
1144.000000	0.338420
1145.000000	0.338661
1146.000000	0.338821
1147.000000	0.338873
1148.000000	0.338735
1149.000000	0.338685
1150.000000	0.338530
1151.000000	0.338569
1152.000000	0.338672
1153.000000	0.338714
1154.000000	0.338811
1155.000000	0.338805
1156.000000	0.338703
1157.000000	0.338659
1158.000000	0.338507
1159.000000	0.338444
1160.000000	0.338385
1161.000000	0.338378
1162.000000	0.338495
1163.000000	0.338804
1164.000000	0.338876
1165.000000	0.338785
1166.000000	0.338722
1167.000000	0.338408
1168.000000	0.338329
1169.000000	0.338386
1170.000000	0.338439
1171.000000	0.338656
1172.000000	0.338723
1173.000000	0.338642
1174.000000	0.338682
1175.000000	0.338730
1176.000000	0.338701
1177.000000	0.338813
1178.000000	0.338826
1179.000000	0.338660
1180.000000	0.338531
1181.000000	0.338385
1182.000000	0.338465
1183.000000	0.338681
1184.000000	0.338818
1185.000000	0.338871
1186.000000	0.338993
1187.000000	0.338917
1188.000000	0.338513
1189.000000	0.338491
1190.000000	0.338655
1191.000000	0.338725
1192.000000	0.339141
1193.000000	0.339335
1194.000000	0.339148
1195.000000	0.339165
1196.000000	0.339182
1197.000000	0.339130
1198.000000	0.339087
1199.000000	0.339100
1200.000000	0.339102
1201.000000	0.339065
1202.000000	0.338981
1203.000000	0.338979
1204.000000	0.338814
1205.000000	0.338720
1206.000000	0.338704
1207.000000	0.338965
1208.000000	0.338889
1209.000000	0.338751
1210.000000	0.338721
1211.000000	0.338615
1212.000000	0.338551
1213.000000	0.338638
1214.000000	0.338678
1215.000000	0.338568
1216.000000	0.338611
1217.000000	0.338864
1218.000000	0.338877
1219.000000	0.338848
1220.000000	0.338782
1221.000000	0.338699
1222.000000	0.338690
1223.000000	0.338742
1224.000000	0.338773
1225.000000	0.338569
1226.000000	0.338405
1227.000000	0.338379
1228.000000	0.338352
1229.000000	0.338333
1230.000000	0.338405
1231.000000	0.338357
1232.000000	0.338330
1233.000000	0.338469
1234.000000	0.338739
1235.000000	0.338785
1236.000000	0.338656
1237.000000	0.338669
1238.000000	0.338580
1239.000000	0.338457
1240.000000	0.338327
1241.000000	0.338361
1242.000000	0.338328
1243.000000	0.338249
1244.000000	0.338337
1245.000000	0.338478
1246.000000	0.338394
1247.000000	0.338366
1248.000000	0.338449
1249.000000	0.338506
1250.000000	0.338595
1251.000000	0.338652
1252.000000	0.338661
1253.000000	0.338685
1254.000000	0.338576
1255.000000	0.338309
1256.000000	0.338197
1257.000000	0.338097
1258.000000	0.338069
1259.000000	0.338123
1260.000000	0.338111
1261.000000	0.337951
1262.000000	0.337875
1263.000000	0.337790
1264.000000	0.337815
1265.000000	0.337986
1266.000000	0.337918
1267.000000	0.337921
1268.000000	0.338115
1269.000000	0.338154
1270.000000	0.338321
1271.000000	0.338386
1272.000000	0.338302
1273.000000	0.338331
1274.000000	0.338337
1275.000000	0.338257
1276.000000	0.338185
1277.000000	0.338156
1278.000000	0.337893
1279.000000	0.337817
1280.000000	0.337850
1281.000000	0.337757
1282.000000	0.337695
1283.000000	0.337721
1284.000000	0.337627
1285.000000	0.337660
1286.000000	0.337799
1287.000000	0.337899
1288.000000	0.337986
1289.000000	0.337894
1290.000000	0.337666
1291.000000	0.337572
1292.000000	0.337569
1293.000000	0.337575
1294.000000	0.337558
1295.000000	0.337535
1296.000000	0.337423
1297.000000	0.337233
1298.000000	0.337267
1299.000000	0.337349
1300.000000	0.337350
1301.000000	0.337343
1302.000000	0.337244
1303.000000	0.337082
1304.000000	0.336942
1305.000000	0.336917
1306.000000	0.336897
1307.000000	0.336888
1308.000000	0.336991
1309.000000	0.337278
1310.000000	0.337292
1311.000000	0.337279
1312.000000	0.337141
1313.000000	0.336916
1314.000000	0.336770
1315.000000	0.336657
1316.000000	0.336729
1317.000000	0.336762
1318.000000	0.336714
1319.000000	0.336697
1320.000000	0.336618
1321.000000	0.336558
1322.000000	0.336557
1323.000000	0.336529
1324.000000	0.336380
1325.000000	0.336095
1326.000000	0.336007
1327.000000	0.335919
1328.000000	0.335756
1329.000000	0.335599
1330.000000	0.335466
1331.000000	0.335265
1332.000000	0.335103
1333.000000	0.334966
1334.000000	0.334762
1335.000000	0.334710
1336.000000	0.334876
1337.000000	0.334817
1338.000000	0.334703
1339.000000	0.334539
1340.000000	0.334132
1341.000000	0.333660
1342.000000	0.333402
1343.000000	0.333209
1344.000000	0.333136
1345.000000	0.333175
1346.000000	0.333157
1347.000000	0.333015
1348.000000	0.332926
1349.000000	0.332521
1350.000000	0.332165
1351.000000	0.332071
1352.000000	0.331912
1353.000000	0.331854
1354.000000	0.331851
1355.000000	0.331665
1356.000000	0.331456
1357.000000	0.331169
1358.000000	0.330948
1359.000000	0.330789
1360.000000	0.330635
1361.000000	0.330645
1362.000000	0.330510
1363.000000	0.330274
1364.000000	0.330043
1365.000000	0.329694
1366.000000	0.329482
1367.000000	0.329277
1368.000000	0.329192
1369.000000	0.329198
1370.000000	0.329064
1371.000000	0.328945
1372.000000	0.328626
1373.000000	0.328207
1374.000000	0.327949
1375.000000	0.327475
1376.000000	0.327090
1377.000000	0.326962
1378.000000	0.326487
1379.000000	0.325810
1380.000000	0.325232
1381.000000	0.324419
1382.000000	0.323452
1383.000000	0.322500
1384.000000	0.321415
1385.000000	0.320360
1386.000000	0.319412
1387.000000	0.318576
1388.000000	0.317863
1389.000000	0.317240
1390.000000	0.316805
1391.000000	0.316393
1392.000000	0.316150
1393.000000	0.315911
1394.000000	0.315724
1395.000000	0.315515
1396.000000	0.315356
1397.000000	0.315136
1398.000000	0.314925
1399.000000	0.314635
1400.000000	0.314371
1401.000000	0.313926
1402.000000	0.313398
1403.000000	0.312672
1404.000000	0.312083
1405.000000	0.311415
1406.000000	0.310801
1407.000000	0.310200
1408.000000	0.309417
1409.000000	0.308709
1410.000000	0.308053
1411.000000	0.307339
1412.000000	0.306618
1413.000000	0.306032
1414.000000	0.305460
1415.000000	0.304825
1416.000000	0.304266
1417.000000	0.303726
1418.000000	0.303044
1419.000000	0.302467
1420.000000	0.301978
1421.000000	0.301467
1422.000000	0.300947
1423.000000	0.300558
1424.000000	0.299991
1425.000000	0.299414
1426.000000	0.298855
1427.000000	0.298240
1428.000000	0.297733
1429.000000	0.297177
1430.000000	0.296652
1431.000000	0.296349
1432.000000	0.295980
1433.000000	0.295689
1434.000000	0.295319
1435.000000	0.294950
1436.000000	0.294602
1437.000000	0.294252
1438.000000	0.293892
1439.000000	0.293648
1440.000000	0.293343
1441.000000	0.292959
1442.000000	0.292668
1443.000000	0.292374
1444.000000	0.292011
1445.000000	0.291740
1446.000000	0.291434
1447.000000	0.291057
1448.000000	0.290769
1449.000000	0.290434
1450.000000	0.290115
1451.000000	0.289863
1452.000000	0.289580
1453.000000	0.289428
1454.000000	0.289242
1455.000000	0.289036
1456.000000	0.288952
1457.000000	0.288828
1458.000000	0.288654
1459.000000	0.288533
1460.000000	0.288443
1461.000000	0.288220
1462.000000	0.288008
1463.000000	0.287907
1464.000000	0.287800
1465.000000	0.287793
1466.000000	0.287935
1467.000000	0.288061
1468.000000	0.288080
1469.000000	0.288183
1470.000000	0.288246
1471.000000	0.288252
1472.000000	0.288340
1473.000000	0.288489
1474.000000	0.288575
1475.000000	0.288824
1476.000000	0.289060
1477.000000	0.289214
1478.000000	0.289428
1479.000000	0.289595
1480.000000	0.289838
1481.000000	0.290003
1482.000000	0.290168
1483.000000	0.290416
1484.000000	0.290662
1485.000000	0.290874
1486.000000	0.291150
1487.000000	0.291427
1488.000000	0.291665
1489.000000	0.291954
1490.000000	0.292163
1491.000000	0.292493
1492.000000	0.292822
1493.000000	0.293160
1494.000000	0.293627
1495.000000	0.293918
1496.000000	0.294010
1497.000000	0.294293
1498.000000	0.294638
1499.000000	0.294896
1500.000000	0.295343
1501.000000	0.295642
1502.000000	0.295618
1503.000000	0.295774
1504.000000	0.295886
1505.000000	0.296046
1506.000000	0.296409
1507.000000	0.296598
1508.000000	0.296753
1509.000000	0.296939
1510.000000	0.297031
1511.000000	0.297213
1512.000000	0.297412
1513.000000	0.297584
1514.000000	0.297857
1515.000000	0.298096
1516.000000	0.298410
1517.000000	0.298664
1518.000000	0.298802
1519.000000	0.298885
1520.000000	0.298936
1521.000000	0.298923
1522.000000	0.298934
1523.000000	0.299038
1524.000000	0.299070
1525.000000	0.299179
1526.000000	0.299320
1527.000000	0.299386
1528.000000	0.299505
1529.000000	0.299595
1530.000000	0.299618
1531.000000	0.299710
1532.000000	0.299740
1533.000000	0.299683
1534.000000	0.299710
1535.000000	0.299726
1536.000000	0.299682
1537.000000	0.299861
1538.000000	0.299974
1539.000000	0.299918
1540.000000	0.299953
1541.000000	0.299996
1542.000000	0.300057
1543.000000	0.300141
1544.000000	0.300198
1545.000000	0.300295
1546.000000	0.300388
1547.000000	0.300455
1548.000000	0.300523
1549.000000	0.300571
1550.000000	0.300543
1551.000000	0.300481
1552.000000	0.300486
1553.000000	0.300509
1554.000000	0.300529
1555.000000	0.300628
1556.000000	0.300677
1557.000000	0.300592
1558.000000	0.300610
1559.000000	0.300621
1560.000000	0.300557
1561.000000	0.300540
1562.000000	0.300466
1563.000000	0.300280
1564.000000	0.300258
1565.000000	0.300332
1566.000000	0.300264
1567.000000	0.300300
1568.000000	0.300270
1569.000000	0.300204
1570.000000	0.300239
1571.000000	0.300325
1572.000000	0.300353
1573.000000	0.300415
1574.000000	0.300404
1575.000000	0.300329
1576.000000	0.300352
1577.000000	0.300365
1578.000000	0.300368
1579.000000	0.300513
1580.000000	0.300518
1581.000000	0.300502
1582.000000	0.300481
1583.000000	0.300395
1584.000000	0.300318
1585.000000	0.300268
1586.000000	0.300312
1587.000000	0.300437
1588.000000	0.300454
1589.000000	0.300510
1590.000000	0.300557
1591.000000	0.300503
1592.000000	0.300602
1593.000000	0.300890
1594.000000	0.300940
1595.000000	0.300952
1596.000000	0.301004
1597.000000	0.301013
1598.000000	0.301028
1599.000000	0.301141
1600.000000	0.301152
1601.000000	0.301094
1602.000000	0.301080
1603.000000	0.301108
1604.000000	0.301163
1605.000000	0.301282
1606.000000	0.301332
1607.000000	0.301466
1608.000000	0.301474
1609.000000	0.301377
1610.000000	0.301359
1611.000000	0.301371
1612.000000	0.301383
1613.000000	0.301549
1614.000000	0.301588
1615.000000	0.301607
1616.000000	0.301677
1617.000000	0.301715
1618.000000	0.301686
1619.000000	0.301573
1620.000000	0.301576
1621.000000	0.301582
1622.000000	0.301679
1623.000000	0.301906
1624.000000	0.302040
1625.000000	0.302011
1626.000000	0.302001
1627.000000	0.302016
1628.000000	0.302096
1629.000000	0.302161
1630.000000	0.302256
1631.000000	0.302310
1632.000000	0.302385
1633.000000	0.302484
1634.000000	0.302610
1635.000000	0.302860
1636.000000	0.302992
1637.000000	0.303071
1638.000000	0.303167
1639.000000	0.303336
1640.000000	0.303375
1641.000000	0.303373
1642.000000	0.303457
1643.000000	0.303501
1644.000000	0.303618
1645.000000	0.303877
1646.000000	0.303974
1647.000000	0.304044
1648.000000	0.304078
1649.000000	0.304128
1650.000000	0.304269
1651.000000	0.304455
1652.000000	0.304658
1653.000000	0.304882
1654.000000	0.305099
1655.000000	0.305271
1656.000000	0.305323
1657.000000	0.305381
1658.000000	0.305460
1659.000000	0.305580
1660.000000	0.305728
1661.000000	0.305876
1662.000000	0.305976
1663.000000	0.305976
1664.000000	0.306071
1665.000000	0.306204
1666.000000	0.306349
1667.000000	0.306470
1668.000000	0.306591
1669.000000	0.306651
1670.000000	0.306725
1671.000000	0.306928
1672.000000	0.307057
1673.000000	0.307144
1674.000000	0.307258
1675.000000	0.307326
1676.000000	0.307402
1677.000000	0.307475
1678.000000	0.307419
1679.000000	0.307571
1680.000000	0.307762
1681.000000	0.307796
1682.000000	0.307943
1683.000000	0.307953
1684.000000	0.307723
1685.000000	0.307627
1686.000000	0.307695
1687.000000	0.307839
1688.000000	0.308073
1689.000000	0.308315
1690.000000	0.308274
1691.000000	0.308237
1692.000000	0.308306
1693.000000	0.308376
1694.000000	0.308494
1695.000000	0.308700
1696.000000	0.308737
1697.000000	0.308800
1698.000000	0.309006
1699.000000	0.309082
1700.000000	0.309047
1701.000000	0.309166
1702.000000	0.309107
1703.000000	0.309054
1704.000000	0.309142
1705.000000	0.309229
1706.000000	0.309389
1707.000000	0.309433
1708.000000	0.309423
1709.000000	0.309401
1710.000000	0.309321
1711.000000	0.309318
1712.000000	0.309469
1713.000000	0.309499
1714.000000	0.309514
1715.000000	0.309525
1716.000000	0.309500
1717.000000	0.309488
1718.000000	0.309354
1719.000000	0.309410
1720.000000	0.309738
1721.000000	0.309795
1722.000000	0.309749
1723.000000	0.309889
1724.000000	0.309989
1725.000000	0.310122
1726.000000	0.310462
1727.000000	0.310559
1728.000000	0.310302
1729.000000	0.310254
1730.000000	0.310389
1731.000000	0.310482
1732.000000	0.310667
1733.000000	0.310818
1734.000000	0.310790
1735.000000	0.310858
1736.000000	0.310921
1737.000000	0.311003
1738.000000	0.311144
1739.000000	0.311239
1740.000000	0.311315
1741.000000	0.311351
1742.000000	0.311357
1743.000000	0.311443
1744.000000	0.311548
1745.000000	0.311514
1746.000000	0.311464
1747.000000	0.311172
1748.000000	0.311026
1749.000000	0.311072
1750.000000	0.310991
1751.000000	0.311034
1752.000000	0.311169
1753.000000	0.311142
1754.000000	0.311128
1755.000000	0.311138
1756.000000	0.311142
1757.000000	0.311067
1758.000000	0.311082
1759.000000	0.311092
1760.000000	0.311239
1761.000000	0.311619
1762.000000	0.311688
1763.000000	0.311713
1764.000000	0.311706
1765.000000	0.311288
1766.000000	0.311234
1767.000000	0.311397
1768.000000	0.311404
1769.000000	0.311583
1770.000000	0.311666
1771.000000	0.311585
1772.000000	0.311553
1773.000000	0.311475
1774.000000	0.311425
1775.000000	0.311412
1776.000000	0.311426
1777.000000	0.311409
1778.000000	0.311465
1779.000000	0.311610
1780.000000	0.311632
1781.000000	0.311567
1782.000000	0.311662
1783.000000	0.311818
1784.000000	0.311928
1785.000000	0.311964
1786.000000	0.311917
1787.000000	0.312037
1788.000000	0.312273
1789.000000	0.312485
1790.000000	0.312448
1791.000000	0.312488
1792.000000	0.312672
1793.000000	0.312761
1794.000000	0.312878
1795.000000	0.313017
1796.000000	0.313108
1797.000000	0.313118
1798.000000	0.313056
1799.000000	0.313091
1800.000000	0.313114
1801.000000	0.312726
1802.000000	0.313258
1803.000000	0.313278
1804.000000	0.313799
1805.000000	0.314876
1806.000000	0.315030
1807.000000	0.314722
1808.000000	0.314719
1809.000000	0.314491
1810.000000	0.313573
1811.000000	0.313502
1812.000000	0.314318
1813.000000	0.314385
1814.000000	0.314424
1815.000000	0.314221
1816.000000	0.313139
1817.000000	0.312894
1818.000000	0.313130
1819.000000	0.313373
1820.000000	0.313064
1821.000000	0.313773
1822.000000	0.314178
1823.000000	0.314381
1824.000000	0.314221
1825.000000	0.314285
1826.000000	0.314139
1827.000000	0.313184
1828.000000	0.312231
1829.000000	0.312570
1830.000000	0.312440
1831.000000	0.312357
1832.000000	0.312548
1833.000000	0.312473
1834.000000	0.312196
1835.000000	0.311918
1836.000000	0.311349
1837.000000	0.310933
1838.000000	0.310303
1839.000000	0.309896
1840.000000	0.309681
1841.000000	0.309524
1842.000000	0.309475
1843.000000	0.309209
1844.000000	0.309684
1845.000000	0.311003
1846.000000	0.311614
1847.000000	0.312161
1848.000000	0.312751
1849.000000	0.312860
1850.000000	0.312238
1851.000000	0.311841
1852.000000	0.311355
1853.000000	0.310858
1854.000000	0.309893
1855.000000	0.309121
1856.000000	0.308295
1857.000000	0.307722
1858.000000	0.307057
1859.000000	0.306674
1860.000000	0.305563
1861.000000	0.304707
1862.000000	0.304140
1863.000000	0.303629
1864.000000	0.302824
1865.000000	0.302437
1866.000000	0.301776
1867.000000	0.300415
1868.000000	0.299599
1869.000000	0.299145
1870.000000	0.298304
1871.000000	0.297167
1872.000000	0.296049
1873.000000	0.294804
1874.000000	0.293106
1875.000000	0.291840
1876.000000	0.290761
1877.000000	0.288980
1878.000000	0.287117
1879.000000	0.285535
1880.000000	0.283118
1881.000000	0.280649
1882.000000	0.278091
1883.000000	0.274977
1884.000000	0.272341
1885.000000	0.269507
1886.000000	0.266886
1887.000000	0.264637
1888.000000	0.262169
1889.000000	0.259065
1890.000000	0.256490
1891.000000	0.253294
1892.000000	0.249724
1893.000000	0.246892
1894.000000	0.243800
1895.000000	0.240752
1896.000000	0.237726
1897.000000	0.235462
1898.000000	0.232926
1899.000000	0.230679
1900.000000	0.228429
1901.000000	0.225892
1902.000000	0.223927
1903.000000	0.221481
1904.000000	0.218981
1905.000000	0.216503
1906.000000	0.214368
1907.000000	0.212014
1908.000000	0.210707
1909.000000	0.209375
1910.000000	0.208367
1911.000000	0.207150
1912.000000	0.204656
1913.000000	0.202897
1914.000000	0.201264
1915.000000	0.199396
1916.000000	0.198227
1917.000000	0.197069
1918.000000	0.196083
1919.000000	0.195244
1920.000000	0.194440
1921.000000	0.194135
1922.000000	0.193751
1923.000000	0.193146
1924.000000	0.193368
1925.000000	0.193452
1926.000000	0.193412
1927.000000	0.193627
1928.000000	0.193566
1929.000000	0.193387
1930.000000	0.192812
1931.000000	0.192105
1932.000000	0.192282
1933.000000	0.192595
1934.000000	0.192881
1935.000000	0.193883
1936.000000	0.193927
1937.000000	0.193724
1938.000000	0.193862
1939.000000	0.193668
1940.000000	0.193039
1941.000000	0.193069
1942.000000	0.193266
1943.000000	0.192872
1944.000000	0.192884
1945.000000	0.192686
1946.000000	0.191893
1947.000000	0.191545
1948.000000	0.191365
1949.000000	0.191212
1950.000000	0.190959
1951.000000	0.190713
1952.000000	0.190521
1953.000000	0.190278
1954.000000	0.189636
1955.000000	0.189446
1956.000000	0.189449
1957.000000	0.189586
1958.000000	0.189987
1959.000000	0.190247
1960.000000	0.190055
1961.000000	0.189068
1962.000000	0.188557
1963.000000	0.188005
1964.000000	0.187862
1965.000000	0.187362
1966.000000	0.187537
1967.000000	0.187680
1968.000000	0.187373
1969.000000	0.187790
1970.000000	0.188235
1971.000000	0.188740
1972.000000	0.189321
1973.000000	0.189481
1974.000000	0.189595
1975.000000	0.189467
1976.000000	0.188692
1977.000000	0.188562
1978.000000	0.188612
1979.000000	0.188940
1980.000000	0.190264
1981.000000	0.191123
1982.000000	0.191280
1983.000000	0.191684
1984.000000	0.192021
1985.000000	0.191728
1986.000000	0.192002
1987.000000	0.192632
1988.000000	0.193607
1989.000000	0.194649
1990.000000	0.195544
1991.000000	0.196103
1992.000000	0.196333
1993.000000	0.195963
1994.000000	0.195605
1995.000000	0.195940
1996.000000	0.196602
1997.000000	0.197244
1998.000000	0.198543
1999.000000	0.199217
2000.000000	0.199533
2001.000000	0.200009
2002.000000	0.200432
2003.000000	0.201235
2004.000000	0.202556
2005.000000	0.203268
2006.000000	0.203567
2007.000000	0.203861
2008.000000	0.204857
2009.000000	0.206242
2010.000000	0.207545
2011.000000	0.209673
2012.000000	0.210986
2013.000000	0.212014
2014.000000	0.212104
2015.000000	0.212131
2016.000000	0.212312
2017.000000	0.212538
2018.000000	0.213491
2019.000000	0.215312
2020.000000	0.216809
2021.000000	0.218193
2022.000000	0.219966
2023.000000	0.220805
2024.000000	0.221013
2025.000000	0.221448
2026.000000	0.221447
2027.000000	0.221212
2028.000000	0.221320
2029.000000	0.221543
2030.000000	0.221389
2031.000000	0.221368
2032.000000	0.222022
2033.000000	0.222832
2034.000000	0.223645
2035.000000	0.225183
2036.000000	0.225892
2037.000000	0.226292
2038.000000	0.226789
2039.000000	0.227023
2040.000000	0.227563
2041.000000	0.227899
2042.000000	0.228322
2043.000000	0.229012
2044.000000	0.229526
2045.000000	0.230804
2046.000000	0.231881
2047.000000	0.232751
2048.000000	0.233594
2049.000000	0.234396
2050.000000	0.234616
2051.000000	0.235021
2052.000000	0.235562
2053.000000	0.235809
2054.000000	0.235905
2055.000000	0.236206
2056.000000	0.236746
2057.000000	0.237045
2058.000000	0.237959
2059.000000	0.238974
2060.000000	0.239466
2061.000000	0.239660
2062.000000	0.239963
2063.000000	0.240058
2064.000000	0.240055
2065.000000	0.240256
2066.000000	0.240391
2067.000000	0.240501
2068.000000	0.240538
2069.000000	0.241277
2070.000000	0.242526
2071.000000	0.243461
2072.000000	0.244904
2073.000000	0.245792
2074.000000	0.246028
2075.000000	0.246375
2076.000000	0.246041
2077.000000	0.246485
2078.000000	0.247630
2079.000000	0.248057
2080.000000	0.248721
2081.000000	0.249096
2082.000000	0.248750
2083.000000	0.248453
2084.000000	0.249065
2085.000000	0.249639
2086.000000	0.250990
2087.000000	0.251885
2088.000000	0.252305
2089.000000	0.253197
2090.000000	0.253668
2091.000000	0.253953
2092.000000	0.254159
2093.000000	0.253958
2094.000000	0.254138
2095.000000	0.254173
2096.000000	0.254511
2097.000000	0.255137
2098.000000	0.255994
2099.000000	0.256735
2100.000000	0.257815
2101.000000	0.257942
2102.000000	0.258198
2103.000000	0.258542
2104.000000	0.258546
2105.000000	0.258982
2106.000000	0.260090
2107.000000	0.260586
2108.000000	0.260937
2109.000000	0.261165
2110.000000	0.260787
2111.000000	0.260924
2112.000000	0.260919
2113.000000	0.261234
2114.000000	0.262142
2115.000000	0.262441
2116.000000	0.262562
2117.000000	0.262561
2118.000000	0.262546
2119.000000	0.262721
2120.000000	0.262870
2121.000000	0.263144
2122.000000	0.263429
2123.000000	0.263576
2124.000000	0.264060
2125.000000	0.264990
2126.000000	0.265592
2127.000000	0.266256
2128.000000	0.266883
2129.000000	0.267331
2130.000000	0.267762
2131.000000	0.268017
2132.000000	0.267702
2133.000000	0.267905
2134.000000	0.268056
2135.000000	0.268439
2136.000000	0.269372
2137.000000	0.269401
2138.000000	0.268708
2139.000000	0.268589
2140.000000	0.268114
2141.000000	0.267967
2142.000000	0.268173
2143.000000	0.268436
2144.000000	0.269327
2145.000000	0.269720
2146.000000	0.270308
2147.000000	0.270726
2148.000000	0.270728
2149.000000	0.269746
2150.000000	0.268255
2151.000000	0.267277
2152.000000	0.266603
2153.000000	0.266546
2154.000000	0.267163
2155.000000	0.269663
2156.000000	0.270381
2157.000000	0.270773
2158.000000	0.271012
2159.000000	0.270209
2160.000000	0.270327
2161.000000	0.271232
2162.000000	0.271561
2163.000000	0.271841
2164.000000	0.271753
2165.000000	0.270829
2166.000000	0.270480
2167.000000	0.270538
2168.000000	0.270345
2169.000000	0.270978
2170.000000	0.271078
2171.000000	0.271286
2172.000000	0.271687
2173.000000	0.271731
2174.000000	0.271203
2175.000000	0.271693
2176.000000	0.272606
2177.000000	0.273112
2178.000000	0.274782
2179.000000	0.274959
2180.000000	0.272951
2181.000000	0.272776
2182.000000	0.272321
2183.000000	0.272527
2184.000000	0.273443
2185.000000	0.274069
2186.000000	0.273192
2187.000000	0.271397
2188.000000	0.270157
2189.000000	0.269963
2190.000000	0.270163
2191.000000	0.271687
2192.000000	0.272944
2193.000000	0.274879
2194.000000	0.275619
2195.000000	0.276195
2196.000000	0.276390
2197.000000	0.275027
2198.000000	0.274839
2199.000000	0.275918
2200.000000	0.276166
2201.000000	0.276808
2202.000000	0.275953
2203.000000	0.273020
2204.000000	0.270003
2205.000000	0.269365
2206.000000	0.269033
2207.000000	0.270945
2208.000000	0.273470
2209.000000	0.272844
2210.000000	0.273972
2211.000000	0.275000
2212.000000	0.276050
2213.000000	0.276511
2214.000000	0.277118
2215.000000	0.276582
2216.000000	0.273642
2217.000000	0.273469
2218.000000	0.274912
2219.000000	0.274767
2220.000000	0.275828
2221.000000	0.276246
2222.000000	0.274623
2223.000000	0.274273
2224.000000	0.275318
2225.000000	0.274436
2226.000000	0.274650
2227.000000	0.274806
2228.000000	0.274832
2229.000000	0.274685
2230.000000	0.274015
2231.000000	0.271596
2232.000000	0.269073
2233.000000	0.268733
2234.000000	0.268446
2235.000000	0.267757
2236.000000	0.268246
2237.000000	0.270235
2238.000000	0.270556
2239.000000	0.271096
2240.000000	0.271295
2241.000000	0.269774
2242.000000	0.269653
2243.000000	0.270185
2244.000000	0.270742
2245.000000	0.271805
2246.000000	0.272671
2247.000000	0.274631
2248.000000	0.274454
2249.000000	0.273265
2250.000000	0.271677
2251.000000	0.268747
2252.000000	0.266873
2253.000000	0.267390
2254.000000	0.269277
2255.000000	0.270138
2256.000000	0.270781
2257.000000	0.274051
2258.000000	0.274896
2259.000000	0.275160
2260.000000	0.278593
2261.000000	0.277843
2262.000000	0.272517
2263.000000	0.271868
2264.000000	0.271959
2265.000000	0.270826
2266.000000	0.271466
2267.000000	0.270342
2268.000000	0.266835
2269.000000	0.265519
2270.000000	0.265595
2271.000000	0.264880
2272.000000	0.263797
2273.000000	0.263363
2274.000000	0.262727
2275.000000	0.262685
2276.000000	0.264058
2277.000000	0.264551
2278.000000	0.262952
2279.000000	0.260500
2280.000000	0.257621
2281.000000	0.255257
2282.000000	0.255861
2283.000000	0.257230
2284.000000	0.259970
2285.000000	0.262044
2286.000000	0.260503
2287.000000	0.259235
2288.000000	0.258198
2289.000000	0.256788
2290.000000	0.257672
2291.000000	0.258771
2292.000000	0.256776
2293.000000	0.254298
2294.000000	0.253109
2295.000000	0.251896
2296.000000	0.250960
2297.000000	0.251114
2298.000000	0.251267
2299.000000	0.250739
2300.000000	0.250339
2301.000000	0.251472
2302.000000	0.251035
2303.000000	0.248883
2304.000000	0.248556
2305.000000	0.249427
2306.000000	0.248977
2307.000000	0.248506
2308.000000	0.247703
2309.000000	0.246455
2310.000000	0.243319
2311.000000	0.240632
2312.000000	0.240220
2313.000000	0.241033
2314.000000	0.240896
2315.000000	0.241237
2316.000000	0.241403
2317.000000	0.238838
2318.000000	0.236314
2319.000000	0.234883
2320.000000	0.235169
2321.000000	0.235852
2322.000000	0.237212
2323.000000	0.241569
2324.000000	0.243120
2325.000000	0.243798
2326.000000	0.245221
2327.000000	0.241681
2328.000000	0.238150
2329.000000	0.236836
2330.000000	0.234878
2331.000000	0.236752
2332.000000	0.240473
2333.000000	0.241922
2334.000000	0.242171
2335.000000	0.241318
2336.000000	0.236805
2337.000000	0.234167
2338.000000	0.230809
2339.000000	0.230195
2340.000000	0.232198
2341.000000	0.231171
2342.000000	0.229824
2343.000000	0.228385
2344.000000	0.224409
2345.000000	0.223554
2346.000000	0.225910
2347.000000	0.226874
2348.000000	0.228873
2349.000000	0.228022
2350.000000	0.225196
2351.000000	0.222937
2352.000000	0.222835
2353.000000	0.223804
2354.000000	0.225032
2355.000000	0.227079
2356.000000	0.225714
2357.000000	0.219832
2358.000000	0.217466
2359.000000	0.217934
2360.000000	0.217610
2361.000000	0.221343
2362.000000	0.226042
2363.000000	0.225711
2364.000000	0.222500
2365.000000	0.221293
2366.000000	0.218316
2367.000000	0.214215
2368.000000	0.213960
2369.000000	0.210777
2370.000000	0.204983
2371.000000	0.203309
2372.000000	0.205645
2373.000000	0.207129
2374.000000	0.210063
2375.000000	0.212172
2376.000000	0.206515
2377.000000	0.204736
2378.000000	0.205642
2379.000000	0.204498
2380.000000	0.204558
2381.000000	0.205145
2382.000000	0.207148
2383.000000	0.205536
2384.000000	0.206487
2385.000000	0.208000
2386.000000	0.205397
2387.000000	0.204696
2388.000000	0.202555
2389.000000	0.200541
2390.000000	0.197653
2391.000000	0.192231
2392.000000	0.191030
2393.000000	0.189138
2394.000000	0.185107
2395.000000	0.188528
2396.000000	0.193227
2397.000000	0.195494
2398.000000	0.198165
2399.000000	0.201779
2400.000000	0.203824
2401.000000	0.198055
2402.000000	0.194963
2403.000000	0.192226
2404.000000	0.180226
2405.000000	0.177261
2406.000000	0.184710
2407.000000	0.185435
2408.000000	0.186557
2409.000000	0.190316
2410.000000	0.187616
2411.000000	0.185675
2412.000000	0.188923
2413.000000	0.196413
2414.000000	0.200255
2415.000000	0.199191
2416.000000	0.198854
2417.000000	0.186810
2418.000000	0.180850
2419.000000	0.183533
2420.000000	0.176939
2421.000000	0.185671
2422.000000	0.195112
2423.000000	0.196687
2424.000000	0.206973
2425.000000	0.203216
2426.000000	0.196001
2427.000000	0.197317
2428.000000	0.194185
2429.000000	0.203388
2430.000000	0.212327
2431.000000	0.201310
2432.000000	0.194788
2433.000000	0.191812
2434.000000	0.189344
2435.000000	0.196828
2436.000000	0.207223
2437.000000	0.211270
2438.000000	0.208084
2439.000000	0.210640
2440.000000	0.210351
2441.000000	0.199940
2442.000000	0.195493
2443.000000	0.186837
2444.000000	0.179037
2445.000000	0.187539
2446.000000	0.196253
2447.000000	0.200493
2448.000000	0.202551
2449.000000	0.197684
2450.000000	0.185472
2451.000000	0.176956
2452.000000	0.173460
2453.000000	0.176641
2454.000000	0.189122
2455.000000	0.192874
2456.000000	0.199283
2457.000000	0.197458
2458.000000	0.181097
2459.000000	0.177480
2460.000000	0.166454
2461.000000	0.166582
2462.000000	0.183199
2463.000000	0.183416
2464.000000	0.185678
2465.000000	0.178698
2466.000000	0.163231
2467.000000	0.148275
2468.000000	0.133119
2469.000000	0.127141
2470.000000	0.108993
2471.000000	0.108904
2472.000000	0.120216
2473.000000	0.135525
2474.000000	0.165610
2475.000000	0.174764
2476.000000	0.176759
2477.000000	0.175479
2478.000000	0.163715
2479.000000	0.160502
2480.000000	0.158190
2481.000000	0.143325
2482.000000	0.128291
2483.000000	0.107064
2484.000000	0.113673
2485.000000	0.134135
2486.000000	0.130187
2487.000000	0.101188
2488.000000	0.043831
2489.000000	0.032667
2490.000000	0.025924
2491.000000	0.104759
2492.000000	0.138812
2493.000000	0.129123
2494.000000	0.146563
2495.000000	0.175394
2496.000000	0.162477
2497.000000	0.124968
2498.000000	0.116139
2499.000000	0.081550
2500.000000	0.072316
