# Wavelength	SM1200H-60_FV7-40_00002.asd.rts.txt
350.000000	0.292625
351.000000	0.290419
352.000000	0.291970
353.000000	0.292860
354.000000	0.293355
355.000000	0.292973
356.000000	0.292672
357.000000	0.293726
358.000000	0.292697
359.000000	0.292605
360.000000	0.293057
361.000000	0.292946
362.000000	0.295589
363.000000	0.300688
364.000000	0.304999
365.000000	0.300796
366.000000	0.299346
367.000000	0.301506
368.000000	0.300226
369.000000	0.300695
370.000000	0.301617
371.000000	0.300461
372.000000	0.300298
373.000000	0.301165
374.000000	0.302840
375.000000	0.302643
376.000000	0.303529
377.000000	0.305408
378.000000	0.305659
379.000000	0.305355
380.000000	0.305486
381.000000	0.307662
382.000000	0.307780
383.000000	0.308305
384.000000	0.310693
385.000000	0.310150
386.000000	0.310235
387.000000	0.311495
388.000000	0.310664
389.000000	0.311129
390.000000	0.312251
391.000000	0.311901
392.000000	0.312439
393.000000	0.313069
394.000000	0.313132
395.000000	0.313919
396.000000	0.314518
397.000000	0.314665
398.000000	0.315092
399.000000	0.315769
400.000000	0.316470
401.000000	0.316706
402.000000	0.317299
403.000000	0.317987
404.000000	0.318529
405.000000	0.318497
406.000000	0.318827
407.000000	0.319656
408.000000	0.319471
409.000000	0.319627
410.000000	0.320214
411.000000	0.320587
412.000000	0.320700
413.000000	0.320742
414.000000	0.320996
415.000000	0.321720
416.000000	0.322284
417.000000	0.322421
418.000000	0.322735
419.000000	0.322984
420.000000	0.323245
421.000000	0.323864
422.000000	0.324120
423.000000	0.324178
424.000000	0.324534
425.000000	0.324774
426.000000	0.324998
427.000000	0.325292
428.000000	0.325636
429.000000	0.325836
430.000000	0.325968
431.000000	0.326487
432.000000	0.326903
433.000000	0.327089
434.000000	0.327225
435.000000	0.327478
436.000000	0.327779
437.000000	0.328013
438.000000	0.328313
439.000000	0.328451
440.000000	0.328496
441.000000	0.328646
442.000000	0.328915
443.000000	0.329159
444.000000	0.329324
445.000000	0.329399
446.000000	0.329683
447.000000	0.330205
448.000000	0.330424
449.000000	0.330554
450.000000	0.330824
451.000000	0.331252
452.000000	0.331530
453.000000	0.331567
454.000000	0.331807
455.000000	0.332130
456.000000	0.332543
457.000000	0.332844
458.000000	0.333103
459.000000	0.333325
460.000000	0.333574
461.000000	0.333822
462.000000	0.334040
463.000000	0.334102
464.000000	0.334453
465.000000	0.334635
466.000000	0.334658
467.000000	0.334999
468.000000	0.335279
469.000000	0.335354
470.000000	0.335418
471.000000	0.335733
472.000000	0.336011
473.000000	0.336115
474.000000	0.336284
475.000000	0.336339
476.000000	0.336485
477.000000	0.336907
478.000000	0.337030
479.000000	0.337166
480.000000	0.337485
481.000000	0.337634
482.000000	0.337826
483.000000	0.338002
484.000000	0.338244
485.000000	0.338400
486.000000	0.338624
487.000000	0.338846
488.000000	0.339083
489.000000	0.339361
490.000000	0.339683
491.000000	0.339978
492.000000	0.340284
493.000000	0.340486
494.000000	0.340713
495.000000	0.340962
496.000000	0.341181
497.000000	0.341463
498.000000	0.341778
499.000000	0.342139
500.000000	0.342348
501.000000	0.342504
502.000000	0.342719
503.000000	0.342989
504.000000	0.343224
505.000000	0.343466
506.000000	0.343760
507.000000	0.343978
508.000000	0.344212
509.000000	0.344465
510.000000	0.344733
511.000000	0.345051
512.000000	0.345421
513.000000	0.345732
514.000000	0.346001
515.000000	0.346303
516.000000	0.346634
517.000000	0.346935
518.000000	0.347237
519.000000	0.347471
520.000000	0.347747
521.000000	0.348018
522.000000	0.348275
523.000000	0.348552
524.000000	0.348827
525.000000	0.349091
526.000000	0.349405
527.000000	0.349692
528.000000	0.349941
529.000000	0.350217
530.000000	0.350446
531.000000	0.350727
532.000000	0.351001
533.000000	0.351253
534.000000	0.351526
535.000000	0.351799
536.000000	0.352035
537.000000	0.352240
538.000000	0.352469
539.000000	0.352775
540.000000	0.353040
541.000000	0.353273
542.000000	0.353539
543.000000	0.353764
544.000000	0.354004
545.000000	0.354215
546.000000	0.354470
547.000000	0.354737
548.000000	0.355033
549.000000	0.355282
550.000000	0.355571
551.000000	0.355900
552.000000	0.356181
553.000000	0.356427
554.000000	0.356685
555.000000	0.356992
556.000000	0.357329
557.000000	0.357589
558.000000	0.357881
559.000000	0.358113
560.000000	0.358347
561.000000	0.358677
562.000000	0.359013
563.000000	0.359340
564.000000	0.359679
565.000000	0.359930
566.000000	0.360235
567.000000	0.360498
568.000000	0.360680
569.000000	0.361007
570.000000	0.361363
571.000000	0.361689
572.000000	0.361991
573.000000	0.362306
574.000000	0.362616
575.000000	0.362949
576.000000	0.363243
577.000000	0.363484
578.000000	0.363756
579.000000	0.364042
580.000000	0.364343
581.000000	0.364650
582.000000	0.364939
583.000000	0.365173
584.000000	0.365391
585.000000	0.365682
586.000000	0.365915
587.000000	0.366125
588.000000	0.366381
589.000000	0.366694
590.000000	0.366972
591.000000	0.367172
592.000000	0.367387
593.000000	0.367657
594.000000	0.367946
595.000000	0.368145
596.000000	0.368327
597.000000	0.368563
598.000000	0.368789
599.000000	0.368964
600.000000	0.369168
601.000000	0.369369
602.000000	0.369574
603.000000	0.369728
604.000000	0.369848
605.000000	0.370048
606.000000	0.370184
607.000000	0.370288
608.000000	0.370497
609.000000	0.370685
610.000000	0.370835
611.000000	0.370959
612.000000	0.371058
613.000000	0.371186
614.000000	0.371407
615.000000	0.371615
616.000000	0.371760
617.000000	0.371805
618.000000	0.371859
619.000000	0.371981
620.000000	0.372102
621.000000	0.372189
622.000000	0.372364
623.000000	0.372544
624.000000	0.372666
625.000000	0.372864
626.000000	0.373019
627.000000	0.373113
628.000000	0.373291
629.000000	0.373506
630.000000	0.373574
631.000000	0.373590
632.000000	0.373619
633.000000	0.373723
634.000000	0.373897
635.000000	0.373973
636.000000	0.374067
637.000000	0.374220
638.000000	0.374359
639.000000	0.374464
640.000000	0.374596
641.000000	0.374681
642.000000	0.374789
643.000000	0.374931
644.000000	0.375097
645.000000	0.375222
646.000000	0.375328
647.000000	0.375425
648.000000	0.375611
649.000000	0.375811
650.000000	0.375949
651.000000	0.376016
652.000000	0.376091
653.000000	0.376218
654.000000	0.376317
655.000000	0.376458
656.000000	0.376664
657.000000	0.376855
658.000000	0.376990
659.000000	0.377138
660.000000	0.377294
661.000000	0.377387
662.000000	0.377436
663.000000	0.377517
664.000000	0.377608
665.000000	0.377720
666.000000	0.377841
667.000000	0.377921
668.000000	0.377983
669.000000	0.378066
670.000000	0.378200
671.000000	0.378376
672.000000	0.378559
673.000000	0.378723
674.000000	0.378873
675.000000	0.378974
676.000000	0.379071
677.000000	0.379235
678.000000	0.379395
679.000000	0.379527
680.000000	0.379638
681.000000	0.379748
682.000000	0.379918
683.000000	0.380084
684.000000	0.380345
685.000000	0.380543
686.000000	0.380687
687.000000	0.380777
688.000000	0.380853
689.000000	0.380942
690.000000	0.381087
691.000000	0.381203
692.000000	0.381303
693.000000	0.381469
694.000000	0.381649
695.000000	0.381840
696.000000	0.382021
697.000000	0.382172
698.000000	0.382373
699.000000	0.382555
700.000000	0.382667
701.000000	0.382737
702.000000	0.382855
703.000000	0.383017
704.000000	0.383160
705.000000	0.383282
706.000000	0.383360
707.000000	0.383481
708.000000	0.383593
709.000000	0.383695
710.000000	0.383824
711.000000	0.383996
712.000000	0.384115
713.000000	0.384206
714.000000	0.384406
715.000000	0.384551
716.000000	0.384651
717.000000	0.384757
718.000000	0.384827
719.000000	0.384900
720.000000	0.385021
721.000000	0.385124
722.000000	0.385213
723.000000	0.385337
724.000000	0.385365
725.000000	0.385405
726.000000	0.385540
727.000000	0.385626
728.000000	0.385664
729.000000	0.385714
730.000000	0.385769
731.000000	0.385905
732.000000	0.385959
733.000000	0.385972
734.000000	0.386103
735.000000	0.386187
736.000000	0.386349
737.000000	0.386482
738.000000	0.386503
739.000000	0.386587
740.000000	0.386657
741.000000	0.386753
742.000000	0.386864
743.000000	0.386933
744.000000	0.386949
745.000000	0.386978
746.000000	0.387049
747.000000	0.387055
748.000000	0.387080
749.000000	0.387151
750.000000	0.387234
751.000000	0.387344
752.000000	0.387423
753.000000	0.387484
754.000000	0.387577
755.000000	0.387680
756.000000	0.387782
757.000000	0.387819
758.000000	0.387832
759.000000	0.387889
760.000000	0.387931
761.000000	0.387998
762.000000	0.388044
763.000000	0.388032
764.000000	0.388033
765.000000	0.388029
766.000000	0.388075
767.000000	0.388191
768.000000	0.388270
769.000000	0.388281
770.000000	0.388249
771.000000	0.388254
772.000000	0.388303
773.000000	0.388367
774.000000	0.388552
775.000000	0.388633
776.000000	0.388667
777.000000	0.388700
778.000000	0.388713
779.000000	0.388741
780.000000	0.388812
781.000000	0.388924
782.000000	0.389029
783.000000	0.389191
784.000000	0.389258
785.000000	0.389253
786.000000	0.389227
787.000000	0.389194
788.000000	0.389115
789.000000	0.389006
790.000000	0.388891
791.000000	0.388864
792.000000	0.388942
793.000000	0.389018
794.000000	0.389034
795.000000	0.389145
796.000000	0.389167
797.000000	0.389072
798.000000	0.389011
799.000000	0.389004
800.000000	0.389048
801.000000	0.389122
802.000000	0.389152
803.000000	0.389129
804.000000	0.389099
805.000000	0.389022
806.000000	0.388934
807.000000	0.388968
808.000000	0.389094
809.000000	0.389227
810.000000	0.389316
811.000000	0.389320
812.000000	0.389271
813.000000	0.389269
814.000000	0.389332
815.000000	0.389430
816.000000	0.389465
817.000000	0.389445
818.000000	0.389309
819.000000	0.389200
820.000000	0.389111
821.000000	0.388973
822.000000	0.388834
823.000000	0.388791
824.000000	0.388814
825.000000	0.388951
826.000000	0.388959
827.000000	0.388884
828.000000	0.388826
829.000000	0.388718
830.000000	0.388651
831.000000	0.388666
832.000000	0.388574
833.000000	0.388576
834.000000	0.388529
835.000000	0.388361
836.000000	0.388139
837.000000	0.388053
838.000000	0.388113
839.000000	0.388120
840.000000	0.388069
841.000000	0.387996
842.000000	0.387897
843.000000	0.387793
844.000000	0.387729
845.000000	0.387682
846.000000	0.387662
847.000000	0.387648
848.000000	0.387606
849.000000	0.387547
850.000000	0.387450
851.000000	0.387377
852.000000	0.387384
853.000000	0.387385
854.000000	0.387343
855.000000	0.387391
856.000000	0.387434
857.000000	0.387314
858.000000	0.387240
859.000000	0.387194
860.000000	0.387063
861.000000	0.386955
862.000000	0.386901
863.000000	0.386798
864.000000	0.386643
865.000000	0.386472
866.000000	0.386337
867.000000	0.386201
868.000000	0.386122
869.000000	0.386026
870.000000	0.385930
871.000000	0.385772
872.000000	0.385670
873.000000	0.385601
874.000000	0.385511
875.000000	0.385353
876.000000	0.385126
877.000000	0.384782
878.000000	0.384443
879.000000	0.384250
880.000000	0.384087
881.000000	0.384006
882.000000	0.383827
883.000000	0.383614
884.000000	0.383450
885.000000	0.383406
886.000000	0.383320
887.000000	0.383128
888.000000	0.382860
889.000000	0.382700
890.000000	0.382498
891.000000	0.382293
892.000000	0.382214
893.000000	0.382076
894.000000	0.381924
895.000000	0.381722
896.000000	0.381422
897.000000	0.381130
898.000000	0.380950
899.000000	0.380610
900.000000	0.380353
901.000000	0.380244
902.000000	0.380228
903.000000	0.380195
904.000000	0.380099
905.000000	0.379827
906.000000	0.379671
907.000000	0.379427
908.000000	0.379136
909.000000	0.378890
910.000000	0.378720
911.000000	0.378585
912.000000	0.378445
913.000000	0.378218
914.000000	0.377936
915.000000	0.377683
916.000000	0.377373
917.000000	0.377034
918.000000	0.376835
919.000000	0.376799
920.000000	0.376660
921.000000	0.376430
922.000000	0.376173
923.000000	0.375941
924.000000	0.375655
925.000000	0.375319
926.000000	0.374992
927.000000	0.374662
928.000000	0.374460
929.000000	0.374206
930.000000	0.373721
931.000000	0.373381
932.000000	0.373085
933.000000	0.372838
934.000000	0.372646
935.000000	0.372272
936.000000	0.371891
937.000000	0.371566
938.000000	0.371257
939.000000	0.371059
940.000000	0.370933
941.000000	0.370935
942.000000	0.370739
943.000000	0.370441
944.000000	0.370000
945.000000	0.369566
946.000000	0.369128
947.000000	0.368812
948.000000	0.368633
949.000000	0.368397
950.000000	0.368286
951.000000	0.368225
952.000000	0.368052
953.000000	0.367920
954.000000	0.367744
955.000000	0.367393
956.000000	0.367086
957.000000	0.366717
958.000000	0.366393
959.000000	0.366376
960.000000	0.366218
961.000000	0.365994
962.000000	0.365717
963.000000	0.365356
964.000000	0.365130
965.000000	0.364992
966.000000	0.364764
967.000000	0.364764
968.000000	0.364609
969.000000	0.364263
970.000000	0.364013
971.000000	0.363720
972.000000	0.363632
973.000000	0.363673
974.000000	0.363593
975.000000	0.363540
976.000000	0.363417
977.000000	0.363113
978.000000	0.362619
979.000000	0.362474
980.000000	0.362269
981.000000	0.361874
982.000000	0.361666
983.000000	0.361436
984.000000	0.361210
985.000000	0.361099
986.000000	0.360910
987.000000	0.360666
988.000000	0.360304
989.000000	0.359976
990.000000	0.359820
991.000000	0.359688
992.000000	0.359470
993.000000	0.359444
994.000000	0.359464
995.000000	0.359497
996.000000	0.359184
997.000000	0.359161
998.000000	0.359203
999.000000	0.359213
1000.000000	0.359125
1001.000000	0.359475
1002.000000	0.359187
1003.000000	0.358878
1004.000000	0.358728
1005.000000	0.358450
1006.000000	0.358191
1007.000000	0.358240
1008.000000	0.358081
1009.000000	0.357724
1010.000000	0.357369
1011.000000	0.357339
1012.000000	0.357637
1013.000000	0.357500
1014.000000	0.357037
1015.000000	0.356725
1016.000000	0.356656
1017.000000	0.356361
1018.000000	0.356282
1019.000000	0.356375
1020.000000	0.356726
1021.000000	0.356498
1022.000000	0.356588
1023.000000	0.356716
1024.000000	0.356387
1025.000000	0.356468
1026.000000	0.356345
1027.000000	0.355860
1028.000000	0.355816
1029.000000	0.355916
1030.000000	0.356155
1031.000000	0.356484
1032.000000	0.356593
1033.000000	0.356344
1034.000000	0.356346
1035.000000	0.356517
1036.000000	0.356532
1037.000000	0.356560
1038.000000	0.356475
1039.000000	0.356436
1040.000000	0.356167
1041.000000	0.355825
1042.000000	0.355941
1043.000000	0.356208
1044.000000	0.356238
1045.000000	0.356422
1046.000000	0.356556
1047.000000	0.356821
1048.000000	0.357060
1049.000000	0.357148
1050.000000	0.357347
1051.000000	0.357431
1052.000000	0.357173
1053.000000	0.357021
1054.000000	0.357131
1055.000000	0.357333
1056.000000	0.357597
1057.000000	0.357821
1058.000000	0.358039
1059.000000	0.357891
1060.000000	0.357897
1061.000000	0.357972
1062.000000	0.358245
1063.000000	0.358836
1064.000000	0.359077
1065.000000	0.358997
1066.000000	0.359266
1067.000000	0.359581
1068.000000	0.359719
1069.000000	0.359866
1070.000000	0.360050
1071.000000	0.360080
1072.000000	0.360267
1073.000000	0.360663
1074.000000	0.361295
1075.000000	0.361363
1076.000000	0.361460
1077.000000	0.361516
1078.000000	0.361310
1079.000000	0.361494
1080.000000	0.362055
1081.000000	0.362253
1082.000000	0.362595
1083.000000	0.362768
1084.000000	0.362675
1085.000000	0.362793
1086.000000	0.362918
1087.000000	0.363124
1088.000000	0.363332
1089.000000	0.363506
1090.000000	0.363733
1091.000000	0.363840
1092.000000	0.363911
1093.000000	0.364315
1094.000000	0.364556
1095.000000	0.364732
1096.000000	0.365044
1097.000000	0.365423
1098.000000	0.365696
1099.000000	0.365951
1100.000000	0.366249
1101.000000	0.366410
1102.000000	0.366597
1103.000000	0.366825
1104.000000	0.367059
1105.000000	0.367218
1106.000000	0.367443
1107.000000	0.367737
1108.000000	0.367908
1109.000000	0.368044
1110.000000	0.368235
1111.000000	0.368400
1112.000000	0.368554
1113.000000	0.368671
1114.000000	0.368771
1115.000000	0.368907
1116.000000	0.368989
1117.000000	0.369144
1118.000000	0.369370
1119.000000	0.369521
1120.000000	0.369697
1121.000000	0.369806
1122.000000	0.369944
1123.000000	0.370293
1124.000000	0.370477
1125.000000	0.370636
1126.000000	0.370737
1127.000000	0.370807
1128.000000	0.370831
1129.000000	0.370794
1130.000000	0.370828
1131.000000	0.370881
1132.000000	0.370946
1133.000000	0.371117
1134.000000	0.371205
1135.000000	0.371210
1136.000000	0.371252
1137.000000	0.371212
1138.000000	0.371224
1139.000000	0.371451
1140.000000	0.371623
1141.000000	0.371689
1142.000000	0.371813
1143.000000	0.371912
1144.000000	0.372065
1145.000000	0.372004
1146.000000	0.371976
1147.000000	0.371976
1148.000000	0.371798
1149.000000	0.371806
1150.000000	0.371942
1151.000000	0.372087
1152.000000	0.372222
1153.000000	0.372366
1154.000000	0.372553
1155.000000	0.372635
1156.000000	0.372669
1157.000000	0.372713
1158.000000	0.372649
1159.000000	0.372617
1160.000000	0.372578
1161.000000	0.372530
1162.000000	0.372466
1163.000000	0.372669
1164.000000	0.372748
1165.000000	0.372813
1166.000000	0.372908
1167.000000	0.372961
1168.000000	0.372999
1169.000000	0.373068
1170.000000	0.373154
1171.000000	0.373304
1172.000000	0.373443
1173.000000	0.373571
1174.000000	0.373653
1175.000000	0.373691
1176.000000	0.373648
1177.000000	0.373653
1178.000000	0.373588
1179.000000	0.373342
1180.000000	0.373206
1181.000000	0.373245
1182.000000	0.373193
1183.000000	0.373133
1184.000000	0.373270
1185.000000	0.373319
1186.000000	0.373297
1187.000000	0.373319
1188.000000	0.373400
1189.000000	0.373421
1190.000000	0.373492
1191.000000	0.373491
1192.000000	0.373550
1193.000000	0.373704
1194.000000	0.373679
1195.000000	0.373753
1196.000000	0.373944
1197.000000	0.373981
1198.000000	0.373908
1199.000000	0.373941
1200.000000	0.373938
1201.000000	0.373961
1202.000000	0.374074
1203.000000	0.374114
1204.000000	0.374034
1205.000000	0.374023
1206.000000	0.373950
1207.000000	0.373979
1208.000000	0.373886
1209.000000	0.373780
1210.000000	0.373692
1211.000000	0.373567
1212.000000	0.373453
1213.000000	0.373401
1214.000000	0.373374
1215.000000	0.373283
1216.000000	0.373277
1217.000000	0.373370
1218.000000	0.373357
1219.000000	0.373316
1220.000000	0.373377
1221.000000	0.373451
1222.000000	0.373450
1223.000000	0.373534
1224.000000	0.373639
1225.000000	0.373681
1226.000000	0.373699
1227.000000	0.373649
1228.000000	0.373692
1229.000000	0.373665
1230.000000	0.373571
1231.000000	0.373429
1232.000000	0.373393
1233.000000	0.373443
1234.000000	0.373452
1235.000000	0.373469
1236.000000	0.373481
1237.000000	0.373479
1238.000000	0.373351
1239.000000	0.373286
1240.000000	0.373230
1241.000000	0.373236
1242.000000	0.373205
1243.000000	0.373183
1244.000000	0.373129
1245.000000	0.373069
1246.000000	0.372969
1247.000000	0.372959
1248.000000	0.373036
1249.000000	0.373122
1250.000000	0.373219
1251.000000	0.373301
1252.000000	0.373281
1253.000000	0.373191
1254.000000	0.373117
1255.000000	0.372965
1256.000000	0.372879
1257.000000	0.372851
1258.000000	0.372834
1259.000000	0.372753
1260.000000	0.372777
1261.000000	0.372802
1262.000000	0.372788
1263.000000	0.372859
1264.000000	0.372773
1265.000000	0.372719
1266.000000	0.372736
1267.000000	0.372774
1268.000000	0.372870
1269.000000	0.372851
1270.000000	0.372868
1271.000000	0.372888
1272.000000	0.372856
1273.000000	0.372836
1274.000000	0.372796
1275.000000	0.372752
1276.000000	0.372687
1277.000000	0.372750
1278.000000	0.372806
1279.000000	0.372783
1280.000000	0.372709
1281.000000	0.372579
1282.000000	0.372391
1283.000000	0.372368
1284.000000	0.372312
1285.000000	0.372288
1286.000000	0.372335
1287.000000	0.372307
1288.000000	0.372249
1289.000000	0.372192
1290.000000	0.372052
1291.000000	0.371946
1292.000000	0.371902
1293.000000	0.371789
1294.000000	0.371686
1295.000000	0.371651
1296.000000	0.371513
1297.000000	0.371420
1298.000000	0.371449
1299.000000	0.371398
1300.000000	0.371408
1301.000000	0.371405
1302.000000	0.371309
1303.000000	0.371227
1304.000000	0.371173
1305.000000	0.371250
1306.000000	0.371247
1307.000000	0.371295
1308.000000	0.371345
1309.000000	0.371348
1310.000000	0.371336
1311.000000	0.371344
1312.000000	0.371346
1313.000000	0.371420
1314.000000	0.371459
1315.000000	0.371432
1316.000000	0.371507
1317.000000	0.371526
1318.000000	0.371458
1319.000000	0.371353
1320.000000	0.371350
1321.000000	0.371327
1322.000000	0.371260
1323.000000	0.371344
1324.000000	0.371402
1325.000000	0.371273
1326.000000	0.371108
1327.000000	0.371007
1328.000000	0.371028
1329.000000	0.370966
1330.000000	0.370983
1331.000000	0.370966
1332.000000	0.370943
1333.000000	0.370861
1334.000000	0.370841
1335.000000	0.370855
1336.000000	0.370840
1337.000000	0.370805
1338.000000	0.370761
1339.000000	0.370633
1340.000000	0.370441
1341.000000	0.370314
1342.000000	0.370187
1343.000000	0.370021
1344.000000	0.369899
1345.000000	0.369811
1346.000000	0.369842
1347.000000	0.369779
1348.000000	0.369697
1349.000000	0.369546
1350.000000	0.369417
1351.000000	0.369272
1352.000000	0.369125
1353.000000	0.369040
1354.000000	0.369023
1355.000000	0.368993
1356.000000	0.369041
1357.000000	0.368969
1358.000000	0.368794
1359.000000	0.368669
1360.000000	0.368579
1361.000000	0.368599
1362.000000	0.368471
1363.000000	0.368253
1364.000000	0.368161
1365.000000	0.368030
1366.000000	0.367872
1367.000000	0.367799
1368.000000	0.367628
1369.000000	0.367444
1370.000000	0.367154
1371.000000	0.366819
1372.000000	0.366441
1373.000000	0.365875
1374.000000	0.365267
1375.000000	0.364690
1376.000000	0.364149
1377.000000	0.363525
1378.000000	0.362662
1379.000000	0.361514
1380.000000	0.360122
1381.000000	0.358461
1382.000000	0.356652
1383.000000	0.354807
1384.000000	0.352823
1385.000000	0.350818
1386.000000	0.349050
1387.000000	0.347474
1388.000000	0.346030
1389.000000	0.344933
1390.000000	0.344222
1391.000000	0.343828
1392.000000	0.343821
1393.000000	0.343980
1394.000000	0.344621
1395.000000	0.345108
1396.000000	0.345741
1397.000000	0.346193
1398.000000	0.346662
1399.000000	0.346919
1400.000000	0.346970
1401.000000	0.346986
1402.000000	0.346981
1403.000000	0.346752
1404.000000	0.346544
1405.000000	0.346351
1406.000000	0.346023
1407.000000	0.345730
1408.000000	0.345454
1409.000000	0.345289
1410.000000	0.345283
1411.000000	0.345231
1412.000000	0.345189
1413.000000	0.345250
1414.000000	0.345246
1415.000000	0.345264
1416.000000	0.345378
1417.000000	0.345551
1418.000000	0.345714
1419.000000	0.345987
1420.000000	0.346233
1421.000000	0.346488
1422.000000	0.346742
1423.000000	0.347027
1424.000000	0.347213
1425.000000	0.347484
1426.000000	0.347751
1427.000000	0.348049
1428.000000	0.348419
1429.000000	0.348683
1430.000000	0.348967
1431.000000	0.349277
1432.000000	0.349575
1433.000000	0.349970
1434.000000	0.350243
1435.000000	0.350548
1436.000000	0.350828
1437.000000	0.350990
1438.000000	0.351154
1439.000000	0.351408
1440.000000	0.351597
1441.000000	0.351788
1442.000000	0.351966
1443.000000	0.352043
1444.000000	0.352124
1445.000000	0.352200
1446.000000	0.352239
1447.000000	0.352352
1448.000000	0.352418
1449.000000	0.352519
1450.000000	0.352661
1451.000000	0.352701
1452.000000	0.352699
1453.000000	0.352735
1454.000000	0.352699
1455.000000	0.352704
1456.000000	0.352861
1457.000000	0.352959
1458.000000	0.353058
1459.000000	0.353176
1460.000000	0.353287
1461.000000	0.353399
1462.000000	0.353451
1463.000000	0.353515
1464.000000	0.353605
1465.000000	0.353718
1466.000000	0.353815
1467.000000	0.353904
1468.000000	0.354050
1469.000000	0.354247
1470.000000	0.354356
1471.000000	0.354531
1472.000000	0.354687
1473.000000	0.354892
1474.000000	0.355113
1475.000000	0.355329
1476.000000	0.355563
1477.000000	0.355758
1478.000000	0.355879
1479.000000	0.356002
1480.000000	0.356128
1481.000000	0.356248
1482.000000	0.356421
1483.000000	0.356647
1484.000000	0.356902
1485.000000	0.357134
1486.000000	0.357354
1487.000000	0.357602
1488.000000	0.357895
1489.000000	0.358170
1490.000000	0.358348
1491.000000	0.358552
1492.000000	0.358659
1493.000000	0.358831
1494.000000	0.359012
1495.000000	0.359134
1496.000000	0.359241
1497.000000	0.359368
1498.000000	0.359502
1499.000000	0.359559
1500.000000	0.359670
1501.000000	0.359758
1502.000000	0.359795
1503.000000	0.359931
1504.000000	0.360097
1505.000000	0.360203
1506.000000	0.360317
1507.000000	0.360396
1508.000000	0.360539
1509.000000	0.360704
1510.000000	0.360766
1511.000000	0.360857
1512.000000	0.360878
1513.000000	0.360847
1514.000000	0.360931
1515.000000	0.360991
1516.000000	0.361056
1517.000000	0.361088
1518.000000	0.361105
1519.000000	0.361079
1520.000000	0.361125
1521.000000	0.361166
1522.000000	0.361213
1523.000000	0.361365
1524.000000	0.361408
1525.000000	0.361471
1526.000000	0.361557
1527.000000	0.361614
1528.000000	0.361792
1529.000000	0.361951
1530.000000	0.361988
1531.000000	0.362051
1532.000000	0.362075
1533.000000	0.362047
1534.000000	0.362102
1535.000000	0.362244
1536.000000	0.362274
1537.000000	0.362406
1538.000000	0.362584
1539.000000	0.362590
1540.000000	0.362676
1541.000000	0.362840
1542.000000	0.362934
1543.000000	0.363077
1544.000000	0.363226
1545.000000	0.363380
1546.000000	0.363517
1547.000000	0.363556
1548.000000	0.363581
1549.000000	0.363568
1550.000000	0.363517
1551.000000	0.363537
1552.000000	0.363558
1553.000000	0.363536
1554.000000	0.363572
1555.000000	0.363631
1556.000000	0.363682
1557.000000	0.363707
1558.000000	0.363762
1559.000000	0.363738
1560.000000	0.363739
1561.000000	0.363813
1562.000000	0.363840
1563.000000	0.363870
1564.000000	0.363924
1565.000000	0.363983
1566.000000	0.363973
1567.000000	0.364069
1568.000000	0.364102
1569.000000	0.364195
1570.000000	0.364217
1571.000000	0.364143
1572.000000	0.364122
1573.000000	0.364097
1574.000000	0.364071
1575.000000	0.364124
1576.000000	0.364122
1577.000000	0.364048
1578.000000	0.363986
1579.000000	0.363966
1580.000000	0.363961
1581.000000	0.364042
1582.000000	0.364063
1583.000000	0.364076
1584.000000	0.364029
1585.000000	0.364033
1586.000000	0.364044
1587.000000	0.363986
1588.000000	0.364028
1589.000000	0.364168
1590.000000	0.364223
1591.000000	0.364341
1592.000000	0.364429
1593.000000	0.364472
1594.000000	0.364507
1595.000000	0.364615
1596.000000	0.364676
1597.000000	0.364722
1598.000000	0.364723
1599.000000	0.364764
1600.000000	0.364719
1601.000000	0.364645
1602.000000	0.364621
1603.000000	0.364645
1604.000000	0.364617
1605.000000	0.364644
1606.000000	0.364590
1607.000000	0.364500
1608.000000	0.364424
1609.000000	0.364382
1610.000000	0.364328
1611.000000	0.364303
1612.000000	0.364268
1613.000000	0.364365
1614.000000	0.364327
1615.000000	0.364286
1616.000000	0.364319
1617.000000	0.364259
1618.000000	0.364225
1619.000000	0.364255
1620.000000	0.364244
1621.000000	0.364189
1622.000000	0.364262
1623.000000	0.364386
1624.000000	0.364422
1625.000000	0.364316
1626.000000	0.364233
1627.000000	0.364126
1628.000000	0.364088
1629.000000	0.364064
1630.000000	0.364067
1631.000000	0.363993
1632.000000	0.363972
1633.000000	0.364038
1634.000000	0.364071
1635.000000	0.364162
1636.000000	0.364213
1637.000000	0.364281
1638.000000	0.364268
1639.000000	0.364268
1640.000000	0.364255
1641.000000	0.364257
1642.000000	0.364266
1643.000000	0.364353
1644.000000	0.364331
1645.000000	0.364255
1646.000000	0.364126
1647.000000	0.363934
1648.000000	0.363808
1649.000000	0.363786
1650.000000	0.363763
1651.000000	0.363828
1652.000000	0.363883
1653.000000	0.363868
1654.000000	0.363889
1655.000000	0.363877
1656.000000	0.363791
1657.000000	0.363771
1658.000000	0.363722
1659.000000	0.363777
1660.000000	0.363765
1661.000000	0.363595
1662.000000	0.363514
1663.000000	0.363376
1664.000000	0.363326
1665.000000	0.363374
1666.000000	0.363427
1667.000000	0.363437
1668.000000	0.363383
1669.000000	0.363245
1670.000000	0.363152
1671.000000	0.363149
1672.000000	0.363180
1673.000000	0.363227
1674.000000	0.363291
1675.000000	0.363400
1676.000000	0.363455
1677.000000	0.363495
1678.000000	0.363467
1679.000000	0.363345
1680.000000	0.363212
1681.000000	0.363133
1682.000000	0.363062
1683.000000	0.363070
1684.000000	0.363086
1685.000000	0.363049
1686.000000	0.362944
1687.000000	0.362872
1688.000000	0.362778
1689.000000	0.362725
1690.000000	0.362685
1691.000000	0.362667
1692.000000	0.362595
1693.000000	0.362532
1694.000000	0.362417
1695.000000	0.362386
1696.000000	0.362470
1697.000000	0.362412
1698.000000	0.362393
1699.000000	0.362416
1700.000000	0.362367
1701.000000	0.362423
1702.000000	0.362413
1703.000000	0.362328
1704.000000	0.362272
1705.000000	0.362217
1706.000000	0.362144
1707.000000	0.362161
1708.000000	0.362241
1709.000000	0.362202
1710.000000	0.362244
1711.000000	0.362318
1712.000000	0.362392
1713.000000	0.362428
1714.000000	0.362576
1715.000000	0.362656
1716.000000	0.362709
1717.000000	0.362661
1718.000000	0.362468
1719.000000	0.362365
1720.000000	0.362286
1721.000000	0.362171
1722.000000	0.362124
1723.000000	0.362047
1724.000000	0.361924
1725.000000	0.361840
1726.000000	0.361687
1727.000000	0.361585
1728.000000	0.361390
1729.000000	0.361232
1730.000000	0.361310
1731.000000	0.361277
1732.000000	0.361225
1733.000000	0.361242
1734.000000	0.361096
1735.000000	0.361058
1736.000000	0.361023
1737.000000	0.361043
1738.000000	0.361191
1739.000000	0.361150
1740.000000	0.361048
1741.000000	0.360936
1742.000000	0.360686
1743.000000	0.360662
1744.000000	0.360735
1745.000000	0.360729
1746.000000	0.360743
1747.000000	0.360729
1748.000000	0.360685
1749.000000	0.360705
1750.000000	0.360632
1751.000000	0.360627
1752.000000	0.360714
1753.000000	0.360652
1754.000000	0.360595
1755.000000	0.360506
1756.000000	0.360419
1757.000000	0.360295
1758.000000	0.360219
1759.000000	0.360184
1760.000000	0.360114
1761.000000	0.360000
1762.000000	0.359866
1763.000000	0.359703
1764.000000	0.359592
1765.000000	0.359426
1766.000000	0.359361
1767.000000	0.359281
1768.000000	0.359208
1769.000000	0.359292
1770.000000	0.359397
1771.000000	0.359529
1772.000000	0.359550
1773.000000	0.359441
1774.000000	0.359465
1775.000000	0.359570
1776.000000	0.359600
1777.000000	0.359659
1778.000000	0.359660
1779.000000	0.359545
1780.000000	0.359456
1781.000000	0.359342
1782.000000	0.359284
1783.000000	0.359232
1784.000000	0.359348
1785.000000	0.359287
1786.000000	0.359224
1787.000000	0.359297
1788.000000	0.359221
1789.000000	0.359233
1790.000000	0.359221
1791.000000	0.359133
1792.000000	0.359105
1793.000000	0.359140
1794.000000	0.359269
1795.000000	0.359328
1796.000000	0.359363
1797.000000	0.359437
1798.000000	0.359450
1799.000000	0.359452
1800.000000	0.359585
1801.000000	0.359345
1802.000000	0.359485
1803.000000	0.359657
1804.000000	0.359523
1805.000000	0.359364
1806.000000	0.359422
1807.000000	0.358992
1808.000000	0.359053
1809.000000	0.359785
1810.000000	0.360312
1811.000000	0.360803
1812.000000	0.361408
1813.000000	0.361752
1814.000000	0.362209
1815.000000	0.362312
1816.000000	0.361945
1817.000000	0.361699
1818.000000	0.361426
1819.000000	0.361231
1820.000000	0.361039
1821.000000	0.360482
1822.000000	0.360314
1823.000000	0.359962
1824.000000	0.359889
1825.000000	0.360351
1826.000000	0.360483
1827.000000	0.360469
1828.000000	0.360277
1829.000000	0.360228
1830.000000	0.359653
1831.000000	0.359626
1832.000000	0.359825
1833.000000	0.359955
1834.000000	0.360552
1835.000000	0.360658
1836.000000	0.360277
1837.000000	0.360115
1838.000000	0.359843
1839.000000	0.359167
1840.000000	0.358761
1841.000000	0.358885
1842.000000	0.358900
1843.000000	0.359050
1844.000000	0.358985
1845.000000	0.358639
1846.000000	0.358697
1847.000000	0.358451
1848.000000	0.358714
1849.000000	0.359363
1850.000000	0.359860
1851.000000	0.360026
1852.000000	0.359861
1853.000000	0.359807
1854.000000	0.359331
1855.000000	0.358930
1856.000000	0.358431
1857.000000	0.358143
1858.000000	0.357264
1859.000000	0.356478
1860.000000	0.356126
1861.000000	0.355489
1862.000000	0.355079
1863.000000	0.355360
1864.000000	0.355100
1865.000000	0.354681
1866.000000	0.354209
1867.000000	0.353715
1868.000000	0.352621
1869.000000	0.351600
1870.000000	0.350387
1871.000000	0.349317
1872.000000	0.348300
1873.000000	0.347368
1874.000000	0.346724
1875.000000	0.345762
1876.000000	0.344415
1877.000000	0.342970
1878.000000	0.341319
1879.000000	0.339387
1880.000000	0.337765
1881.000000	0.336013
1882.000000	0.333735
1883.000000	0.331293
1884.000000	0.328892
1885.000000	0.325855
1886.000000	0.322984
1887.000000	0.320312
1888.000000	0.317309
1889.000000	0.313912
1890.000000	0.310894
1891.000000	0.307684
1892.000000	0.304540
1893.000000	0.301852
1894.000000	0.299158
1895.000000	0.296304
1896.000000	0.293658
1897.000000	0.291010
1898.000000	0.288247
1899.000000	0.285608
1900.000000	0.283518
1901.000000	0.282233
1902.000000	0.280711
1903.000000	0.279729
1904.000000	0.279204
1905.000000	0.278377
1906.000000	0.277999
1907.000000	0.278181
1908.000000	0.278318
1909.000000	0.278621
1910.000000	0.279397
1911.000000	0.279882
1912.000000	0.280880
1913.000000	0.281959
1914.000000	0.282696
1915.000000	0.283777
1916.000000	0.285018
1917.000000	0.286030
1918.000000	0.287060
1919.000000	0.288151
1920.000000	0.289209
1921.000000	0.290424
1922.000000	0.291529
1923.000000	0.292701
1924.000000	0.293745
1925.000000	0.294135
1926.000000	0.294752
1927.000000	0.295611
1928.000000	0.296304
1929.000000	0.297007
1930.000000	0.298059
1931.000000	0.298837
1932.000000	0.299359
1933.000000	0.300123
1934.000000	0.300552
1935.000000	0.300750
1936.000000	0.301294
1937.000000	0.301694
1938.000000	0.301890
1939.000000	0.302280
1940.000000	0.302853
1941.000000	0.303273
1942.000000	0.303666
1943.000000	0.304286
1944.000000	0.304962
1945.000000	0.305300
1946.000000	0.305790
1947.000000	0.306373
1948.000000	0.306367
1949.000000	0.306720
1950.000000	0.306968
1951.000000	0.306980
1952.000000	0.306719
1953.000000	0.306884
1954.000000	0.307194
1955.000000	0.307639
1956.000000	0.308187
1957.000000	0.308557
1958.000000	0.308626
1959.000000	0.308866
1960.000000	0.309210
1961.000000	0.309610
1962.000000	0.309912
1963.000000	0.310352
1964.000000	0.310520
1965.000000	0.310598
1966.000000	0.310623
1967.000000	0.310881
1968.000000	0.311289
1969.000000	0.311755
1970.000000	0.312807
1971.000000	0.313479
1972.000000	0.313597
1973.000000	0.313773
1974.000000	0.313716
1975.000000	0.313764
1976.000000	0.313681
1977.000000	0.314369
1978.000000	0.314694
1979.000000	0.315283
1980.000000	0.316159
1981.000000	0.316703
1982.000000	0.317375
1983.000000	0.318180
1984.000000	0.318612
1985.000000	0.318976
1986.000000	0.319007
1987.000000	0.318732
1988.000000	0.318475
1989.000000	0.318352
1990.000000	0.318583
1991.000000	0.319090
1992.000000	0.319756
1993.000000	0.320872
1994.000000	0.321459
1995.000000	0.321727
1996.000000	0.322277
1997.000000	0.322700
1998.000000	0.322764
1999.000000	0.323227
2000.000000	0.323979
2001.000000	0.324759
2002.000000	0.325308
2003.000000	0.325902
2004.000000	0.326554
2005.000000	0.326530
2006.000000	0.326798
2007.000000	0.327042
2008.000000	0.327271
2009.000000	0.327561
2010.000000	0.327940
2011.000000	0.327958
2012.000000	0.328318
2013.000000	0.328983
2014.000000	0.329242
2015.000000	0.329700
2016.000000	0.330279
2017.000000	0.330131
2018.000000	0.330271
2019.000000	0.330338
2020.000000	0.330269
2021.000000	0.330516
2022.000000	0.331099
2023.000000	0.331445
2024.000000	0.331836
2025.000000	0.332275
2026.000000	0.332648
2027.000000	0.332735
2028.000000	0.333033
2029.000000	0.333317
2030.000000	0.333441
2031.000000	0.333895
2032.000000	0.334269
2033.000000	0.334955
2034.000000	0.335413
2035.000000	0.336074
2036.000000	0.336199
2037.000000	0.336176
2038.000000	0.336071
2039.000000	0.335675
2040.000000	0.335587
2041.000000	0.335258
2042.000000	0.335302
2043.000000	0.335557
2044.000000	0.335577
2045.000000	0.336018
2046.000000	0.336299
2047.000000	0.336640
2048.000000	0.336979
2049.000000	0.337472
2050.000000	0.337760
2051.000000	0.337867
2052.000000	0.337647
2053.000000	0.337588
2054.000000	0.337621
2055.000000	0.337970
2056.000000	0.338387
2057.000000	0.338647
2058.000000	0.338863
2059.000000	0.339172
2060.000000	0.339220
2061.000000	0.339257
2062.000000	0.339185
2063.000000	0.338674
2064.000000	0.338405
2065.000000	0.338547
2066.000000	0.338484
2067.000000	0.338608
2068.000000	0.339201
2069.000000	0.339293
2070.000000	0.339385
2071.000000	0.339475
2072.000000	0.339290
2073.000000	0.339149
2074.000000	0.339114
2075.000000	0.339098
2076.000000	0.339142
2077.000000	0.338986
2078.000000	0.338820
2079.000000	0.338537
2080.000000	0.337825
2081.000000	0.337713
2082.000000	0.338009
2083.000000	0.338157
2084.000000	0.338299
2085.000000	0.338467
2086.000000	0.338143
2087.000000	0.337865
2088.000000	0.337979
2089.000000	0.338437
2090.000000	0.338822
2091.000000	0.339727
2092.000000	0.340083
2093.000000	0.340238
2094.000000	0.340218
2095.000000	0.339641
2096.000000	0.339578
2097.000000	0.339644
2098.000000	0.339642
2099.000000	0.339689
2100.000000	0.340043
2101.000000	0.339774
2102.000000	0.339793
2103.000000	0.340112
2104.000000	0.340145
2105.000000	0.340199
2106.000000	0.340264
2107.000000	0.340352
2108.000000	0.340300
2109.000000	0.340398
2110.000000	0.340486
2111.000000	0.340507
2112.000000	0.340486
2113.000000	0.340039
2114.000000	0.339898
2115.000000	0.340060
2116.000000	0.339907
2117.000000	0.339866
2118.000000	0.339896
2119.000000	0.339673
2120.000000	0.339840
2121.000000	0.340378
2122.000000	0.340763
2123.000000	0.341239
2124.000000	0.341608
2125.000000	0.342030
2126.000000	0.342200
2127.000000	0.342250
2128.000000	0.342475
2129.000000	0.342650
2130.000000	0.342493
2131.000000	0.342461
2132.000000	0.342216
2133.000000	0.342035
2134.000000	0.342065
2135.000000	0.342282
2136.000000	0.342503
2137.000000	0.342479
2138.000000	0.342256
2139.000000	0.342355
2140.000000	0.342536
2141.000000	0.342470
2142.000000	0.342491
2143.000000	0.342070
2144.000000	0.341325
2145.000000	0.340951
2146.000000	0.340566
2147.000000	0.340937
2148.000000	0.340965
2149.000000	0.340782
2150.000000	0.341208
2151.000000	0.341418
2152.000000	0.341728
2153.000000	0.342166
2154.000000	0.342341
2155.000000	0.342217
2156.000000	0.342280
2157.000000	0.342426
2158.000000	0.342638
2159.000000	0.342950
2160.000000	0.343200
2161.000000	0.343485
2162.000000	0.343703
2163.000000	0.343957
2164.000000	0.343709
2165.000000	0.343124
2166.000000	0.342468
2167.000000	0.341631
2168.000000	0.341544
2169.000000	0.341427
2170.000000	0.341287
2171.000000	0.341097
2172.000000	0.340557
2173.000000	0.340342
2174.000000	0.340286
2175.000000	0.340508
2176.000000	0.341156
2177.000000	0.341471
2178.000000	0.341993
2179.000000	0.342346
2180.000000	0.342241
2181.000000	0.342483
2182.000000	0.342250
2183.000000	0.342212
2184.000000	0.341928
2185.000000	0.341580
2186.000000	0.341248
2187.000000	0.341092
2188.000000	0.340896
2189.000000	0.340936
2190.000000	0.341011
2191.000000	0.341005
2192.000000	0.340803
2193.000000	0.340237
2194.000000	0.339797
2195.000000	0.339348
2196.000000	0.339253
2197.000000	0.339259
2198.000000	0.339531
2199.000000	0.340810
2200.000000	0.340972
2201.000000	0.340678
2202.000000	0.340296
2203.000000	0.339045
2204.000000	0.337101
2205.000000	0.336062
2206.000000	0.336029
2207.000000	0.336803
2208.000000	0.338165
2209.000000	0.339691
2210.000000	0.341771
2211.000000	0.342222
2212.000000	0.342620
2213.000000	0.341986
2214.000000	0.339551
2215.000000	0.338031
2216.000000	0.336111
2217.000000	0.334683
2218.000000	0.332884
2219.000000	0.333035
2220.000000	0.334770
2221.000000	0.336163
2222.000000	0.339596
2223.000000	0.340689
2224.000000	0.340779
2225.000000	0.339843
2226.000000	0.338066
2227.000000	0.336446
2228.000000	0.335802
2229.000000	0.333941
2230.000000	0.332627
2231.000000	0.331971
2232.000000	0.330500
2233.000000	0.330423
2234.000000	0.331154
2235.000000	0.332576
2236.000000	0.333089
2237.000000	0.334039
2238.000000	0.334098
2239.000000	0.332713
2240.000000	0.332206
2241.000000	0.331924
2242.000000	0.331594
2243.000000	0.331918
2244.000000	0.331032
2245.000000	0.328957
2246.000000	0.328311
2247.000000	0.326347
2248.000000	0.326599
2249.000000	0.329211
2250.000000	0.331753
2251.000000	0.333950
2252.000000	0.336557
2253.000000	0.337368
2254.000000	0.336928
2255.000000	0.336173
2256.000000	0.335651
2257.000000	0.336491
2258.000000	0.336673
2259.000000	0.336281
2260.000000	0.336224
2261.000000	0.335869
2262.000000	0.334947
2263.000000	0.334221
2264.000000	0.333992
2265.000000	0.333420
2266.000000	0.332030
2267.000000	0.331022
2268.000000	0.329926
2269.000000	0.329298
2270.000000	0.329154
2271.000000	0.328751
2272.000000	0.329272
2273.000000	0.328892
2274.000000	0.327060
2275.000000	0.326023
2276.000000	0.325650
2277.000000	0.323674
2278.000000	0.322544
2279.000000	0.323112
2280.000000	0.321547
2281.000000	0.320230
2282.000000	0.318015
2283.000000	0.314989
2284.000000	0.312763
2285.000000	0.310884
2286.000000	0.311318
2287.000000	0.311673
2288.000000	0.311779
2289.000000	0.312105
2290.000000	0.310859
2291.000000	0.309492
2292.000000	0.308407
2293.000000	0.307253
2294.000000	0.306755
2295.000000	0.307051
2296.000000	0.306436
2297.000000	0.306096
2298.000000	0.305079
2299.000000	0.302804
2300.000000	0.301325
2301.000000	0.300264
2302.000000	0.298634
2303.000000	0.296259
2304.000000	0.294785
2305.000000	0.293874
2306.000000	0.292455
2307.000000	0.291175
2308.000000	0.290533
2309.000000	0.288488
2310.000000	0.286466
2311.000000	0.284793
2312.000000	0.283680
2313.000000	0.283587
2314.000000	0.283307
2315.000000	0.284804
2316.000000	0.286537
2317.000000	0.287509
2318.000000	0.289962
2319.000000	0.292716
2320.000000	0.293548
2321.000000	0.294455
2322.000000	0.295493
2323.000000	0.296105
2324.000000	0.298767
2325.000000	0.301643
2326.000000	0.303708
2327.000000	0.305842
2328.000000	0.307192
2329.000000	0.308395
2330.000000	0.309728
2331.000000	0.309895
2332.000000	0.309985
2333.000000	0.310819
2334.000000	0.310475
2335.000000	0.311059
2336.000000	0.311720
2337.000000	0.312210
2338.000000	0.313002
2339.000000	0.314059
2340.000000	0.315933
2341.000000	0.315446
2342.000000	0.313587
2343.000000	0.312090
2344.000000	0.307943
2345.000000	0.306354
2346.000000	0.307031
2347.000000	0.307140
2348.000000	0.307576
2349.000000	0.308723
2350.000000	0.310213
2351.000000	0.310503
2352.000000	0.310720
2353.000000	0.311804
2354.000000	0.309960
2355.000000	0.310335
2356.000000	0.310488
2357.000000	0.309299
2358.000000	0.312411
2359.000000	0.312828
2360.000000	0.312297
2361.000000	0.313389
2362.000000	0.311735
2363.000000	0.310969
2364.000000	0.308225
2365.000000	0.306102
2366.000000	0.306200
2367.000000	0.303935
2368.000000	0.305999
2369.000000	0.307625
2370.000000	0.306916
2371.000000	0.308575
2372.000000	0.308325
2373.000000	0.308243
2374.000000	0.305191
2375.000000	0.301856
2376.000000	0.301127
2377.000000	0.298977
2378.000000	0.299199
2379.000000	0.297903
2380.000000	0.294103
2381.000000	0.290877
2382.000000	0.289703
2383.000000	0.291520
2384.000000	0.293466
2385.000000	0.296474
2386.000000	0.299008
2387.000000	0.298775
2388.000000	0.296559
2389.000000	0.293373
2390.000000	0.289288
2391.000000	0.285089
2392.000000	0.283755
2393.000000	0.284097
2394.000000	0.284063
2395.000000	0.288099
2396.000000	0.291601
2397.000000	0.292074
2398.000000	0.292931
2399.000000	0.289403
2400.000000	0.287710
2401.000000	0.290870
2402.000000	0.293008
2403.000000	0.296387
2404.000000	0.298406
2405.000000	0.295162
2406.000000	0.291771
2407.000000	0.287127
2408.000000	0.283228
2409.000000	0.281925
2410.000000	0.283075
2411.000000	0.287146
2412.000000	0.289090
2413.000000	0.290623
2414.000000	0.293820
2415.000000	0.294518
2416.000000	0.295601
2417.000000	0.298771
2418.000000	0.294982
2419.000000	0.293662
2420.000000	0.296631
2421.000000	0.293860
2422.000000	0.292855
2423.000000	0.289727
2424.000000	0.281575
2425.000000	0.279966
2426.000000	0.281029
2427.000000	0.283648
2428.000000	0.291562
2429.000000	0.289881
2430.000000	0.288734
2431.000000	0.292901
2432.000000	0.288929
2433.000000	0.287596
2434.000000	0.284310
2435.000000	0.276887
2436.000000	0.271076
2437.000000	0.266742
2438.000000	0.272470
2439.000000	0.278705
2440.000000	0.285513
2441.000000	0.298127
2442.000000	0.306284
2443.000000	0.310072
2444.000000	0.309083
2445.000000	0.307878
2446.000000	0.301180
2447.000000	0.292600
2448.000000	0.292535
2449.000000	0.286654
2450.000000	0.280402
2451.000000	0.278676
2452.000000	0.269824
2453.000000	0.263798
2454.000000	0.262101
2455.000000	0.260550
2456.000000	0.255885
2457.000000	0.260264
2458.000000	0.272962
2459.000000	0.277879
2460.000000	0.293695
2461.000000	0.301879
2462.000000	0.295950
2463.000000	0.289786
2464.000000	0.283527
2465.000000	0.282255
2466.000000	0.272988
2467.000000	0.272247
2468.000000	0.276037
2469.000000	0.271842
2470.000000	0.272176
2471.000000	0.256848
2472.000000	0.243295
2473.000000	0.233566
2474.000000	0.220322
2475.000000	0.246428
2476.000000	0.273615
2477.000000	0.276733
2478.000000	0.294881
2479.000000	0.282052
2480.000000	0.247144
2481.000000	0.244614
2482.000000	0.237826
2483.000000	0.238037
2484.000000	0.245290
2485.000000	0.215297
2486.000000	0.214994
2487.000000	0.241327
2488.000000	0.244663
2489.000000	0.260361
2490.000000	0.264374
2491.000000	0.231866
2492.000000	0.224214
2493.000000	0.240078
2494.000000	0.265041
2495.000000	0.318858
2496.000000	0.326518
2497.000000	0.312186
2498.000000	0.308467
2499.000000	0.273387
2500.000000	0.259035
