# Wavelength	SM1200H-30_HEX-20_FV7-50_00002.asd.rts.txt
350.000000	0.249118
351.000000	0.229821
352.000000	0.240075
353.000000	0.250366
354.000000	0.249627
355.000000	0.262438
356.000000	0.256401
357.000000	0.243292
358.000000	0.262624
359.000000	0.265587
360.000000	0.258575
361.000000	0.257473
362.000000	0.251288
363.000000	0.249190
364.000000	0.254283
365.000000	0.255930
366.000000	0.252620
367.000000	0.249829
368.000000	0.261204
369.000000	0.262303
370.000000	0.257034
371.000000	0.256552
372.000000	0.255809
373.000000	0.258606
374.000000	0.265309
375.000000	0.263434
376.000000	0.257376
377.000000	0.251698
378.000000	0.251861
379.000000	0.253398
380.000000	0.255032
381.000000	0.257310
382.000000	0.260287
383.000000	0.259448
384.000000	0.254225
385.000000	0.254112
386.000000	0.256829
387.000000	0.260063
388.000000	0.260756
389.000000	0.261134
390.000000	0.260598
391.000000	0.257796
392.000000	0.257225
393.000000	0.257984
394.000000	0.258930
395.000000	0.261251
396.000000	0.262456
397.000000	0.262103
398.000000	0.262495
399.000000	0.262693
400.000000	0.262648
401.000000	0.262514
402.000000	0.263668
403.000000	0.264922
404.000000	0.265170
405.000000	0.264475
406.000000	0.264209
407.000000	0.264998
408.000000	0.266423
409.000000	0.266630
410.000000	0.265984
411.000000	0.266135
412.000000	0.266673
413.000000	0.267242
414.000000	0.267578
415.000000	0.267871
416.000000	0.268290
417.000000	0.268824
418.000000	0.269024
419.000000	0.269447
420.000000	0.270008
421.000000	0.270048
422.000000	0.270350
423.000000	0.270924
424.000000	0.271557
425.000000	0.271481
426.000000	0.271420
427.000000	0.271890
428.000000	0.272372
429.000000	0.272415
430.000000	0.272209
431.000000	0.272793
432.000000	0.273806
433.000000	0.274441
434.000000	0.273832
435.000000	0.273463
436.000000	0.273348
437.000000	0.273350
438.000000	0.274359
439.000000	0.275061
440.000000	0.275002
441.000000	0.275066
442.000000	0.275209
443.000000	0.275368
444.000000	0.275600
445.000000	0.275715
446.000000	0.275969
447.000000	0.276449
448.000000	0.276744
449.000000	0.276875
450.000000	0.277012
451.000000	0.277583
452.000000	0.277973
453.000000	0.278020
454.000000	0.278296
455.000000	0.278649
456.000000	0.278937
457.000000	0.278853
458.000000	0.279232
459.000000	0.279519
460.000000	0.279312
461.000000	0.279562
462.000000	0.280002
463.000000	0.280232
464.000000	0.280192
465.000000	0.280360
466.000000	0.280764
467.000000	0.281289
468.000000	0.281216
469.000000	0.281021
470.000000	0.281510
471.000000	0.281778
472.000000	0.281922
473.000000	0.282110
474.000000	0.282351
475.000000	0.282241
476.000000	0.282083
477.000000	0.282644
478.000000	0.282891
479.000000	0.282980
480.000000	0.283152
481.000000	0.283592
482.000000	0.284064
483.000000	0.284164
484.000000	0.284500
485.000000	0.284648
486.000000	0.284667
487.000000	0.284874
488.000000	0.285203
489.000000	0.285570
490.000000	0.285831
491.000000	0.286049
492.000000	0.286303
493.000000	0.286506
494.000000	0.286619
495.000000	0.286843
496.000000	0.287238
497.000000	0.287665
498.000000	0.287933
499.000000	0.288079
500.000000	0.288184
501.000000	0.288402
502.000000	0.288727
503.000000	0.288968
504.000000	0.289131
505.000000	0.289402
506.000000	0.289878
507.000000	0.290029
508.000000	0.290254
509.000000	0.290647
510.000000	0.290731
511.000000	0.290823
512.000000	0.291106
513.000000	0.291629
514.000000	0.291996
515.000000	0.292234
516.000000	0.292444
517.000000	0.292695
518.000000	0.293033
519.000000	0.293367
520.000000	0.293631
521.000000	0.293894
522.000000	0.294193
523.000000	0.294493
524.000000	0.294809
525.000000	0.295101
526.000000	0.295351
527.000000	0.295636
528.000000	0.295876
529.000000	0.296057
530.000000	0.296378
531.000000	0.296681
532.000000	0.296829
533.000000	0.297212
534.000000	0.297539
535.000000	0.297751
536.000000	0.298063
537.000000	0.298365
538.000000	0.298587
539.000000	0.298673
540.000000	0.298904
541.000000	0.299235
542.000000	0.299582
543.000000	0.299753
544.000000	0.299961
545.000000	0.300235
546.000000	0.300522
547.000000	0.300839
548.000000	0.301191
549.000000	0.301477
550.000000	0.301718
551.000000	0.301977
552.000000	0.302259
553.000000	0.302547
554.000000	0.302809
555.000000	0.303050
556.000000	0.303367
557.000000	0.303621
558.000000	0.303912
559.000000	0.304247
560.000000	0.304604
561.000000	0.304953
562.000000	0.305100
563.000000	0.305373
564.000000	0.305737
565.000000	0.305993
566.000000	0.306327
567.000000	0.306647
568.000000	0.306900
569.000000	0.307238
570.000000	0.307554
571.000000	0.307808
572.000000	0.308039
573.000000	0.308282
574.000000	0.308589
575.000000	0.309049
576.000000	0.309415
577.000000	0.309665
578.000000	0.309906
579.000000	0.310239
580.000000	0.310579
581.000000	0.310874
582.000000	0.311118
583.000000	0.311307
584.000000	0.311515
585.000000	0.311867
586.000000	0.312166
587.000000	0.312373
588.000000	0.312524
589.000000	0.312795
590.000000	0.313104
591.000000	0.313377
592.000000	0.313604
593.000000	0.313854
594.000000	0.314124
595.000000	0.314355
596.000000	0.314530
597.000000	0.314725
598.000000	0.314928
599.000000	0.315006
600.000000	0.315148
601.000000	0.315414
602.000000	0.315607
603.000000	0.315797
604.000000	0.316046
605.000000	0.316375
606.000000	0.316589
607.000000	0.316723
608.000000	0.316956
609.000000	0.317141
610.000000	0.317312
611.000000	0.317528
612.000000	0.317699
613.000000	0.317777
614.000000	0.317825
615.000000	0.318012
616.000000	0.318190
617.000000	0.318288
618.000000	0.318418
619.000000	0.318511
620.000000	0.318579
621.000000	0.318715
622.000000	0.318819
623.000000	0.318873
624.000000	0.318901
625.000000	0.319028
626.000000	0.319092
627.000000	0.319076
628.000000	0.319195
629.000000	0.319439
630.000000	0.319617
631.000000	0.319740
632.000000	0.319851
633.000000	0.319992
634.000000	0.320168
635.000000	0.320339
636.000000	0.320531
637.000000	0.320738
638.000000	0.320971
639.000000	0.321172
640.000000	0.321364
641.000000	0.321463
642.000000	0.321548
643.000000	0.321660
644.000000	0.321822
645.000000	0.321980
646.000000	0.322133
647.000000	0.322250
648.000000	0.322294
649.000000	0.322429
650.000000	0.322633
651.000000	0.322692
652.000000	0.322763
653.000000	0.322899
654.000000	0.323025
655.000000	0.323162
656.000000	0.323281
657.000000	0.323336
658.000000	0.323606
659.000000	0.323830
660.000000	0.323910
661.000000	0.324119
662.000000	0.324247
663.000000	0.324335
664.000000	0.324451
665.000000	0.324626
666.000000	0.324837
667.000000	0.325014
668.000000	0.325181
669.000000	0.325272
670.000000	0.325307
671.000000	0.325492
672.000000	0.325710
673.000000	0.325904
674.000000	0.326078
675.000000	0.326260
676.000000	0.326429
677.000000	0.326579
678.000000	0.326736
679.000000	0.326885
680.000000	0.327010
681.000000	0.327039
682.000000	0.327160
683.000000	0.327326
684.000000	0.327493
685.000000	0.327578
686.000000	0.327672
687.000000	0.327853
688.000000	0.328012
689.000000	0.328132
690.000000	0.328254
691.000000	0.328387
692.000000	0.328548
693.000000	0.328763
694.000000	0.328870
695.000000	0.328983
696.000000	0.329100
697.000000	0.329194
698.000000	0.329368
699.000000	0.329539
700.000000	0.329652
701.000000	0.329814
702.000000	0.329998
703.000000	0.330148
704.000000	0.330221
705.000000	0.330399
706.000000	0.330621
707.000000	0.330822
708.000000	0.331023
709.000000	0.331210
710.000000	0.331377
711.000000	0.331466
712.000000	0.331545
713.000000	0.331665
714.000000	0.331789
715.000000	0.331909
716.000000	0.332034
717.000000	0.332155
718.000000	0.332351
719.000000	0.332528
720.000000	0.332636
721.000000	0.332807
722.000000	0.332928
723.000000	0.333032
724.000000	0.333154
725.000000	0.333205
726.000000	0.333282
727.000000	0.333378
728.000000	0.333525
729.000000	0.333675
730.000000	0.333743
731.000000	0.333857
732.000000	0.333969
733.000000	0.334083
734.000000	0.334150
735.000000	0.334147
736.000000	0.334240
737.000000	0.334382
738.000000	0.334459
739.000000	0.334550
740.000000	0.334556
741.000000	0.334613
742.000000	0.334662
743.000000	0.334688
744.000000	0.334814
745.000000	0.334886
746.000000	0.334976
747.000000	0.335109
748.000000	0.335231
749.000000	0.335351
750.000000	0.335436
751.000000	0.335470
752.000000	0.335503
753.000000	0.335565
754.000000	0.335648
755.000000	0.335769
756.000000	0.335887
757.000000	0.335910
758.000000	0.335926
759.000000	0.335975
760.000000	0.335979
761.000000	0.335921
762.000000	0.335914
763.000000	0.335960
764.000000	0.336073
765.000000	0.336133
766.000000	0.336166
767.000000	0.336216
768.000000	0.336302
769.000000	0.336372
770.000000	0.336422
771.000000	0.336498
772.000000	0.336629
773.000000	0.336723
774.000000	0.336785
775.000000	0.336751
776.000000	0.336727
777.000000	0.336765
778.000000	0.336773
779.000000	0.336826
780.000000	0.336912
781.000000	0.336915
782.000000	0.336882
783.000000	0.336926
784.000000	0.336965
785.000000	0.337008
786.000000	0.337025
787.000000	0.337004
788.000000	0.336980
789.000000	0.337039
790.000000	0.337133
791.000000	0.337188
792.000000	0.337270
793.000000	0.337352
794.000000	0.337408
795.000000	0.337433
796.000000	0.337394
797.000000	0.337342
798.000000	0.337432
799.000000	0.337384
800.000000	0.337294
801.000000	0.337334
802.000000	0.337374
803.000000	0.337367
804.000000	0.337356
805.000000	0.337381
806.000000	0.337457
807.000000	0.337570
808.000000	0.337530
809.000000	0.337513
810.000000	0.337552
811.000000	0.337602
812.000000	0.337516
813.000000	0.337491
814.000000	0.337533
815.000000	0.337511
816.000000	0.337542
817.000000	0.337575
818.000000	0.337468
819.000000	0.337461
820.000000	0.337461
821.000000	0.337377
822.000000	0.337300
823.000000	0.337256
824.000000	0.337226
825.000000	0.337287
826.000000	0.337264
827.000000	0.337185
828.000000	0.337143
829.000000	0.337159
830.000000	0.337148
831.000000	0.337132
832.000000	0.337010
833.000000	0.336894
834.000000	0.336846
835.000000	0.336903
836.000000	0.336909
837.000000	0.336866
838.000000	0.336823
839.000000	0.336812
840.000000	0.336813
841.000000	0.336828
842.000000	0.336815
843.000000	0.336764
844.000000	0.336710
845.000000	0.336639
846.000000	0.336571
847.000000	0.336570
848.000000	0.336548
849.000000	0.336443
850.000000	0.336312
851.000000	0.336190
852.000000	0.336130
853.000000	0.336082
854.000000	0.335999
855.000000	0.336006
856.000000	0.336041
857.000000	0.335969
858.000000	0.335918
859.000000	0.335863
860.000000	0.335764
861.000000	0.335595
862.000000	0.335431
863.000000	0.335297
864.000000	0.335229
865.000000	0.335239
866.000000	0.335289
867.000000	0.335165
868.000000	0.335047
869.000000	0.334876
870.000000	0.334652
871.000000	0.334511
872.000000	0.334387
873.000000	0.334188
874.000000	0.334045
875.000000	0.333866
876.000000	0.333704
877.000000	0.333584
878.000000	0.333431
879.000000	0.333394
880.000000	0.333376
881.000000	0.333323
882.000000	0.333173
883.000000	0.332946
884.000000	0.332652
885.000000	0.332560
886.000000	0.332467
887.000000	0.332285
888.000000	0.332114
889.000000	0.332073
890.000000	0.331926
891.000000	0.331612
892.000000	0.331448
893.000000	0.331352
894.000000	0.331328
895.000000	0.331160
896.000000	0.330865
897.000000	0.330569
898.000000	0.330394
899.000000	0.330121
900.000000	0.329918
901.000000	0.329792
902.000000	0.329648
903.000000	0.329468
904.000000	0.329282
905.000000	0.329036
906.000000	0.328883
907.000000	0.328773
908.000000	0.328732
909.000000	0.328680
910.000000	0.328445
911.000000	0.328177
912.000000	0.328046
913.000000	0.327914
914.000000	0.327636
915.000000	0.327299
916.000000	0.326987
917.000000	0.326633
918.000000	0.326276
919.000000	0.325963
920.000000	0.325815
921.000000	0.325723
922.000000	0.325677
923.000000	0.325653
924.000000	0.325359
925.000000	0.325094
926.000000	0.324971
927.000000	0.324539
928.000000	0.324165
929.000000	0.323980
930.000000	0.323950
931.000000	0.323627
932.000000	0.323193
933.000000	0.322835
934.000000	0.322592
935.000000	0.322484
936.000000	0.322427
937.000000	0.322204
938.000000	0.321749
939.000000	0.321460
940.000000	0.321280
941.000000	0.321039
942.000000	0.320706
943.000000	0.320463
944.000000	0.320228
945.000000	0.319842
946.000000	0.319472
947.000000	0.319259
948.000000	0.319173
949.000000	0.318866
950.000000	0.318631
951.000000	0.318532
952.000000	0.318507
953.000000	0.318312
954.000000	0.317917
955.000000	0.317372
956.000000	0.317079
957.000000	0.316912
958.000000	0.316649
959.000000	0.316241
960.000000	0.316081
961.000000	0.315951
962.000000	0.315680
963.000000	0.315286
964.000000	0.315215
965.000000	0.315323
966.000000	0.315250
967.000000	0.314983
968.000000	0.314834
969.000000	0.314680
970.000000	0.314376
971.000000	0.314238
972.000000	0.314002
973.000000	0.313515
974.000000	0.313029
975.000000	0.312900
976.000000	0.312868
977.000000	0.312696
978.000000	0.312679
979.000000	0.312748
980.000000	0.312593
981.000000	0.312332
982.000000	0.311918
983.000000	0.311372
984.000000	0.310949
985.000000	0.310942
986.000000	0.311015
987.000000	0.310946
988.000000	0.310533
989.000000	0.309949
990.000000	0.309775
991.000000	0.309855
992.000000	0.309824
993.000000	0.309560
994.000000	0.309270
995.000000	0.309190
996.000000	0.309110
997.000000	0.308853
998.000000	0.308528
999.000000	0.308440
1000.000000	0.308819
1001.000000	0.309220
1002.000000	0.308767
1003.000000	0.307799
1004.000000	0.307263
1005.000000	0.306722
1006.000000	0.306472
1007.000000	0.306774
1008.000000	0.306570
1009.000000	0.306309
1010.000000	0.305866
1011.000000	0.305839
1012.000000	0.306258
1013.000000	0.306179
1014.000000	0.306049
1015.000000	0.306052
1016.000000	0.306237
1017.000000	0.306153
1018.000000	0.306368
1019.000000	0.306559
1020.000000	0.306693
1021.000000	0.306302
1022.000000	0.306139
1023.000000	0.305934
1024.000000	0.305065
1025.000000	0.304780
1026.000000	0.304666
1027.000000	0.304738
1028.000000	0.304776
1029.000000	0.304968
1030.000000	0.305314
1031.000000	0.305393
1032.000000	0.305539
1033.000000	0.305859
1034.000000	0.305925
1035.000000	0.305672
1036.000000	0.305677
1037.000000	0.305579
1038.000000	0.305627
1039.000000	0.305811
1040.000000	0.306681
1041.000000	0.306687
1042.000000	0.306316
1043.000000	0.306203
1044.000000	0.305770
1045.000000	0.305983
1046.000000	0.306468
1047.000000	0.306558
1048.000000	0.306455
1049.000000	0.306489
1050.000000	0.306197
1051.000000	0.306338
1052.000000	0.306893
1053.000000	0.307020
1054.000000	0.307360
1055.000000	0.307665
1056.000000	0.307923
1057.000000	0.307821
1058.000000	0.308095
1059.000000	0.308036
1060.000000	0.308183
1061.000000	0.308732
1062.000000	0.308800
1063.000000	0.309130
1064.000000	0.309219
1065.000000	0.308884
1066.000000	0.308863
1067.000000	0.308703
1068.000000	0.308876
1069.000000	0.309572
1070.000000	0.309827
1071.000000	0.309889
1072.000000	0.310288
1073.000000	0.310954
1074.000000	0.311072
1075.000000	0.311380
1076.000000	0.312098
1077.000000	0.311648
1078.000000	0.311038
1079.000000	0.311126
1080.000000	0.311408
1081.000000	0.311655
1082.000000	0.312670
1083.000000	0.313031
1084.000000	0.312952
1085.000000	0.313179
1086.000000	0.313367
1087.000000	0.313560
1088.000000	0.313683
1089.000000	0.313842
1090.000000	0.313849
1091.000000	0.314256
1092.000000	0.314163
1093.000000	0.314265
1094.000000	0.314346
1095.000000	0.314052
1096.000000	0.314312
1097.000000	0.315057
1098.000000	0.315463
1099.000000	0.315949
1100.000000	0.316306
1101.000000	0.316518
1102.000000	0.316541
1103.000000	0.316240
1104.000000	0.316299
1105.000000	0.316331
1106.000000	0.316420
1107.000000	0.316765
1108.000000	0.316971
1109.000000	0.316861
1110.000000	0.317226
1111.000000	0.317506
1112.000000	0.317931
1113.000000	0.318217
1114.000000	0.318561
1115.000000	0.318772
1116.000000	0.318722
1117.000000	0.319035
1118.000000	0.319628
1119.000000	0.319837
1120.000000	0.320147
1121.000000	0.320228
1122.000000	0.319899
1123.000000	0.320002
1124.000000	0.319913
1125.000000	0.320073
1126.000000	0.320612
1127.000000	0.320779
1128.000000	0.320840
1129.000000	0.320816
1130.000000	0.321070
1131.000000	0.321318
1132.000000	0.321409
1133.000000	0.321764
1134.000000	0.321935
1135.000000	0.321624
1136.000000	0.321681
1137.000000	0.322145
1138.000000	0.322183
1139.000000	0.322002
1140.000000	0.322151
1141.000000	0.322347
1142.000000	0.322396
1143.000000	0.322573
1144.000000	0.322707
1145.000000	0.322524
1146.000000	0.322080
1147.000000	0.321930
1148.000000	0.321717
1149.000000	0.321748
1150.000000	0.321980
1151.000000	0.322130
1152.000000	0.322378
1153.000000	0.322511
1154.000000	0.322565
1155.000000	0.322536
1156.000000	0.322324
1157.000000	0.322349
1158.000000	0.322441
1159.000000	0.322438
1160.000000	0.322500
1161.000000	0.322555
1162.000000	0.322623
1163.000000	0.322691
1164.000000	0.322551
1165.000000	0.322612
1166.000000	0.322744
1167.000000	0.322794
1168.000000	0.322849
1169.000000	0.323172
1170.000000	0.323258
1171.000000	0.323193
1172.000000	0.323188
1173.000000	0.323083
1174.000000	0.323105
1175.000000	0.323094
1176.000000	0.323104
1177.000000	0.323382
1178.000000	0.323471
1179.000000	0.323418
1180.000000	0.323394
1181.000000	0.323412
1182.000000	0.323392
1183.000000	0.323519
1184.000000	0.323631
1185.000000	0.323683
1186.000000	0.323726
1187.000000	0.323704
1188.000000	0.323590
1189.000000	0.323537
1190.000000	0.323569
1191.000000	0.323509
1192.000000	0.323459
1193.000000	0.323581
1194.000000	0.323656
1195.000000	0.323662
1196.000000	0.323679
1197.000000	0.323673
1198.000000	0.323562
1199.000000	0.323511
1200.000000	0.323478
1201.000000	0.323504
1202.000000	0.323580
1203.000000	0.323561
1204.000000	0.323528
1205.000000	0.323596
1206.000000	0.323564
1207.000000	0.323553
1208.000000	0.323510
1209.000000	0.323500
1210.000000	0.323493
1211.000000	0.323519
1212.000000	0.323445
1213.000000	0.323343
1214.000000	0.323320
1215.000000	0.323228
1216.000000	0.323167
1217.000000	0.323178
1218.000000	0.323131
1219.000000	0.323031
1220.000000	0.323038
1221.000000	0.323046
1222.000000	0.323039
1223.000000	0.323020
1224.000000	0.323014
1225.000000	0.323098
1226.000000	0.323266
1227.000000	0.323334
1228.000000	0.323360
1229.000000	0.323320
1230.000000	0.323072
1231.000000	0.322931
1232.000000	0.322918
1233.000000	0.323055
1234.000000	0.323343
1235.000000	0.323381
1236.000000	0.323358
1237.000000	0.323322
1238.000000	0.322897
1239.000000	0.322789
1240.000000	0.322935
1241.000000	0.322937
1242.000000	0.322865
1243.000000	0.322967
1244.000000	0.322901
1245.000000	0.322792
1246.000000	0.322759
1247.000000	0.322666
1248.000000	0.322529
1249.000000	0.322555
1250.000000	0.322624
1251.000000	0.322737
1252.000000	0.322760
1253.000000	0.322816
1254.000000	0.322777
1255.000000	0.322553
1256.000000	0.322502
1257.000000	0.322567
1258.000000	0.322651
1259.000000	0.322786
1260.000000	0.322868
1261.000000	0.322830
1262.000000	0.322848
1263.000000	0.322848
1264.000000	0.322910
1265.000000	0.323081
1266.000000	0.323026
1267.000000	0.323013
1268.000000	0.323112
1269.000000	0.323063
1270.000000	0.323221
1271.000000	0.323297
1272.000000	0.323107
1273.000000	0.323123
1274.000000	0.323117
1275.000000	0.323024
1276.000000	0.322948
1277.000000	0.322986
1278.000000	0.322873
1279.000000	0.322805
1280.000000	0.322760
1281.000000	0.322696
1282.000000	0.322663
1283.000000	0.322667
1284.000000	0.322621
1285.000000	0.322669
1286.000000	0.322724
1287.000000	0.322762
1288.000000	0.322963
1289.000000	0.322971
1290.000000	0.322646
1291.000000	0.322414
1292.000000	0.322379
1293.000000	0.322334
1294.000000	0.322383
1295.000000	0.322637
1296.000000	0.322524
1297.000000	0.322277
1298.000000	0.322356
1299.000000	0.322192
1300.000000	0.322157
1301.000000	0.322371
1302.000000	0.322319
1303.000000	0.322190
1304.000000	0.322182
1305.000000	0.322314
1306.000000	0.322207
1307.000000	0.322152
1308.000000	0.322066
1309.000000	0.321655
1310.000000	0.321522
1311.000000	0.321614
1312.000000	0.321610
1313.000000	0.321561
1314.000000	0.321540
1315.000000	0.321394
1316.000000	0.321381
1317.000000	0.321458
1318.000000	0.321482
1319.000000	0.321386
1320.000000	0.321152
1321.000000	0.320907
1322.000000	0.320737
1323.000000	0.320660
1324.000000	0.320612
1325.000000	0.320504
1326.000000	0.320391
1327.000000	0.320370
1328.000000	0.320379
1329.000000	0.320270
1330.000000	0.320166
1331.000000	0.320098
1332.000000	0.320016
1333.000000	0.319930
1334.000000	0.319939
1335.000000	0.319927
1336.000000	0.319852
1337.000000	0.319772
1338.000000	0.319655
1339.000000	0.319614
1340.000000	0.319505
1341.000000	0.319334
1342.000000	0.319236
1343.000000	0.319202
1344.000000	0.319226
1345.000000	0.319254
1346.000000	0.319274
1347.000000	0.319104
1348.000000	0.318851
1349.000000	0.318543
1350.000000	0.318419
1351.000000	0.318450
1352.000000	0.318355
1353.000000	0.318321
1354.000000	0.318349
1355.000000	0.318156
1356.000000	0.318062
1357.000000	0.317942
1358.000000	0.317875
1359.000000	0.317973
1360.000000	0.317912
1361.000000	0.317898
1362.000000	0.317767
1363.000000	0.317381
1364.000000	0.317218
1365.000000	0.317193
1366.000000	0.317099
1367.000000	0.317069
1368.000000	0.316845
1369.000000	0.316754
1370.000000	0.316509
1371.000000	0.316198
1372.000000	0.316038
1373.000000	0.315798
1374.000000	0.315587
1375.000000	0.315525
1376.000000	0.315403
1377.000000	0.315083
1378.000000	0.314701
1379.000000	0.314139
1380.000000	0.313346
1381.000000	0.312520
1382.000000	0.311685
1383.000000	0.310709
1384.000000	0.309750
1385.000000	0.308851
1386.000000	0.307840
1387.000000	0.307049
1388.000000	0.306411
1389.000000	0.305761
1390.000000	0.305311
1391.000000	0.304954
1392.000000	0.304750
1393.000000	0.304651
1394.000000	0.304844
1395.000000	0.304970
1396.000000	0.305208
1397.000000	0.305281
1398.000000	0.305319
1399.000000	0.305245
1400.000000	0.305015
1401.000000	0.304743
1402.000000	0.304426
1403.000000	0.304128
1404.000000	0.303874
1405.000000	0.303452
1406.000000	0.303051
1407.000000	0.302794
1408.000000	0.302431
1409.000000	0.302226
1410.000000	0.302031
1411.000000	0.301673
1412.000000	0.301389
1413.000000	0.301150
1414.000000	0.300934
1415.000000	0.300683
1416.000000	0.300328
1417.000000	0.300012
1418.000000	0.299639
1419.000000	0.299421
1420.000000	0.299284
1421.000000	0.299076
1422.000000	0.298919
1423.000000	0.298909
1424.000000	0.298750
1425.000000	0.298621
1426.000000	0.298488
1427.000000	0.298285
1428.000000	0.298188
1429.000000	0.298155
1430.000000	0.298089
1431.000000	0.298009
1432.000000	0.297891
1433.000000	0.297703
1434.000000	0.297591
1435.000000	0.297578
1436.000000	0.297540
1437.000000	0.297555
1438.000000	0.297482
1439.000000	0.297436
1440.000000	0.297363
1441.000000	0.297216
1442.000000	0.297100
1443.000000	0.296926
1444.000000	0.296779
1445.000000	0.296643
1446.000000	0.296513
1447.000000	0.296270
1448.000000	0.296051
1449.000000	0.295794
1450.000000	0.295530
1451.000000	0.295424
1452.000000	0.295302
1453.000000	0.295240
1454.000000	0.295160
1455.000000	0.295091
1456.000000	0.295150
1457.000000	0.295154
1458.000000	0.295171
1459.000000	0.295200
1460.000000	0.295134
1461.000000	0.295024
1462.000000	0.294941
1463.000000	0.294812
1464.000000	0.294740
1465.000000	0.294869
1466.000000	0.294938
1467.000000	0.294962
1468.000000	0.295034
1469.000000	0.295038
1470.000000	0.295020
1471.000000	0.295171
1472.000000	0.295264
1473.000000	0.295257
1474.000000	0.295207
1475.000000	0.295280
1476.000000	0.295503
1477.000000	0.295683
1478.000000	0.295819
1479.000000	0.295921
1480.000000	0.295904
1481.000000	0.296050
1482.000000	0.296458
1483.000000	0.296745
1484.000000	0.297066
1485.000000	0.297305
1486.000000	0.297396
1487.000000	0.297568
1488.000000	0.297817
1489.000000	0.298057
1490.000000	0.298199
1491.000000	0.298356
1492.000000	0.298407
1493.000000	0.298523
1494.000000	0.298620
1495.000000	0.298773
1496.000000	0.299090
1497.000000	0.299270
1498.000000	0.299434
1499.000000	0.299434
1500.000000	0.299541
1501.000000	0.299554
1502.000000	0.299583
1503.000000	0.299866
1504.000000	0.300084
1505.000000	0.300209
1506.000000	0.300431
1507.000000	0.300618
1508.000000	0.300722
1509.000000	0.300830
1510.000000	0.300988
1511.000000	0.301133
1512.000000	0.301340
1513.000000	0.301623
1514.000000	0.301724
1515.000000	0.301834
1516.000000	0.302067
1517.000000	0.302127
1518.000000	0.302231
1519.000000	0.302257
1520.000000	0.302151
1521.000000	0.302068
1522.000000	0.302081
1523.000000	0.302185
1524.000000	0.302298
1525.000000	0.302352
1526.000000	0.302302
1527.000000	0.302317
1528.000000	0.302338
1529.000000	0.302331
1530.000000	0.302343
1531.000000	0.302435
1532.000000	0.302481
1533.000000	0.302462
1534.000000	0.302522
1535.000000	0.302474
1536.000000	0.302352
1537.000000	0.302509
1538.000000	0.302624
1539.000000	0.302564
1540.000000	0.302633
1541.000000	0.302733
1542.000000	0.302777
1543.000000	0.302926
1544.000000	0.303062
1545.000000	0.303080
1546.000000	0.303155
1547.000000	0.303311
1548.000000	0.303453
1549.000000	0.303521
1550.000000	0.303513
1551.000000	0.303603
1552.000000	0.303629
1553.000000	0.303573
1554.000000	0.303672
1555.000000	0.303640
1556.000000	0.303518
1557.000000	0.303553
1558.000000	0.303599
1559.000000	0.303572
1560.000000	0.303541
1561.000000	0.303616
1562.000000	0.303650
1563.000000	0.303685
1564.000000	0.303661
1565.000000	0.303629
1566.000000	0.303541
1567.000000	0.303413
1568.000000	0.303392
1569.000000	0.303520
1570.000000	0.303592
1571.000000	0.303609
1572.000000	0.303681
1573.000000	0.303925
1574.000000	0.303926
1575.000000	0.303790
1576.000000	0.303794
1577.000000	0.303679
1578.000000	0.303594
1579.000000	0.303739
1580.000000	0.303766
1581.000000	0.303736
1582.000000	0.303700
1583.000000	0.303625
1584.000000	0.303584
1585.000000	0.303652
1586.000000	0.303638
1587.000000	0.303625
1588.000000	0.303590
1589.000000	0.303439
1590.000000	0.303401
1591.000000	0.303474
1592.000000	0.303552
1593.000000	0.303665
1594.000000	0.303772
1595.000000	0.304013
1596.000000	0.304128
1597.000000	0.304221
1598.000000	0.304273
1599.000000	0.304232
1600.000000	0.304250
1601.000000	0.304415
1602.000000	0.304411
1603.000000	0.304370
1604.000000	0.304330
1605.000000	0.304183
1606.000000	0.304147
1607.000000	0.304240
1608.000000	0.304290
1609.000000	0.304401
1610.000000	0.304424
1611.000000	0.304511
1612.000000	0.304495
1613.000000	0.304448
1614.000000	0.304377
1615.000000	0.304243
1616.000000	0.304262
1617.000000	0.304312
1618.000000	0.304344
1619.000000	0.304465
1620.000000	0.304490
1621.000000	0.304446
1622.000000	0.304530
1623.000000	0.304597
1624.000000	0.304684
1625.000000	0.304710
1626.000000	0.304734
1627.000000	0.304805
1628.000000	0.304860
1629.000000	0.304919
1630.000000	0.304921
1631.000000	0.304750
1632.000000	0.304739
1633.000000	0.304845
1634.000000	0.304823
1635.000000	0.304835
1636.000000	0.304820
1637.000000	0.304736
1638.000000	0.304616
1639.000000	0.304543
1640.000000	0.304525
1641.000000	0.304497
1642.000000	0.304521
1643.000000	0.304747
1644.000000	0.304857
1645.000000	0.304836
1646.000000	0.304887
1647.000000	0.305030
1648.000000	0.305047
1649.000000	0.305170
1650.000000	0.305241
1651.000000	0.305235
1652.000000	0.305302
1653.000000	0.305307
1654.000000	0.305369
1655.000000	0.305456
1656.000000	0.305402
1657.000000	0.305407
1658.000000	0.305364
1659.000000	0.305294
1660.000000	0.305332
1661.000000	0.305334
1662.000000	0.305344
1663.000000	0.305345
1664.000000	0.305374
1665.000000	0.305426
1666.000000	0.305523
1667.000000	0.305585
1668.000000	0.305667
1669.000000	0.305781
1670.000000	0.305697
1671.000000	0.305625
1672.000000	0.305652
1673.000000	0.305531
1674.000000	0.305651
1675.000000	0.305832
1676.000000	0.305794
1677.000000	0.305743
1678.000000	0.305644
1679.000000	0.305458
1680.000000	0.305300
1681.000000	0.305305
1682.000000	0.305497
1683.000000	0.305742
1684.000000	0.305928
1685.000000	0.305969
1686.000000	0.305739
1687.000000	0.305475
1688.000000	0.305338
1689.000000	0.305322
1690.000000	0.305367
1691.000000	0.305543
1692.000000	0.305658
1693.000000	0.305758
1694.000000	0.305864
1695.000000	0.305927
1696.000000	0.306005
1697.000000	0.306061
1698.000000	0.306223
1699.000000	0.306325
1700.000000	0.306348
1701.000000	0.306469
1702.000000	0.306460
1703.000000	0.306422
1704.000000	0.306518
1705.000000	0.306514
1706.000000	0.306491
1707.000000	0.306390
1708.000000	0.306080
1709.000000	0.305905
1710.000000	0.305801
1711.000000	0.305787
1712.000000	0.306056
1713.000000	0.306090
1714.000000	0.305982
1715.000000	0.306029
1716.000000	0.306095
1717.000000	0.306126
1718.000000	0.306306
1719.000000	0.306284
1720.000000	0.306034
1721.000000	0.306011
1722.000000	0.306111
1723.000000	0.306074
1724.000000	0.306052
1725.000000	0.306122
1726.000000	0.306031
1727.000000	0.306052
1728.000000	0.306249
1729.000000	0.306205
1730.000000	0.306168
1731.000000	0.306080
1732.000000	0.305911
1733.000000	0.305857
1734.000000	0.305685
1735.000000	0.305520
1736.000000	0.305291
1737.000000	0.305265
1738.000000	0.305307
1739.000000	0.305372
1740.000000	0.305604
1741.000000	0.305716
1742.000000	0.305751
1743.000000	0.305896
1744.000000	0.306099
1745.000000	0.306218
1746.000000	0.306338
1747.000000	0.306198
1748.000000	0.306168
1749.000000	0.306181
1750.000000	0.306119
1751.000000	0.306294
1752.000000	0.306433
1753.000000	0.306288
1754.000000	0.306226
1755.000000	0.306164
1756.000000	0.306080
1757.000000	0.305960
1758.000000	0.305923
1759.000000	0.305933
1760.000000	0.305898
1761.000000	0.305804
1762.000000	0.305805
1763.000000	0.305875
1764.000000	0.305885
1765.000000	0.305887
1766.000000	0.305956
1767.000000	0.305924
1768.000000	0.305899
1769.000000	0.306128
1770.000000	0.306159
1771.000000	0.305973
1772.000000	0.305870
1773.000000	0.305644
1774.000000	0.305564
1775.000000	0.305603
1776.000000	0.305670
1777.000000	0.305856
1778.000000	0.305807
1779.000000	0.305618
1780.000000	0.305615
1781.000000	0.305533
1782.000000	0.305524
1783.000000	0.305756
1784.000000	0.305692
1785.000000	0.305519
1786.000000	0.305536
1787.000000	0.305849
1788.000000	0.306284
1789.000000	0.306499
1790.000000	0.306838
1791.000000	0.306936
1792.000000	0.306824
1793.000000	0.306920
1794.000000	0.306997
1795.000000	0.307076
1796.000000	0.307402
1797.000000	0.307516
1798.000000	0.307391
1799.000000	0.307378
1800.000000	0.307373
1801.000000	0.307985
1802.000000	0.307612
1803.000000	0.306546
1804.000000	0.306298
1805.000000	0.306074
1806.000000	0.306122
1807.000000	0.306957
1808.000000	0.307213
1809.000000	0.307325
1810.000000	0.307363
1811.000000	0.307274
1812.000000	0.306940
1813.000000	0.306817
1814.000000	0.306458
1815.000000	0.306599
1816.000000	0.307318
1817.000000	0.307299
1818.000000	0.307013
1819.000000	0.307526
1820.000000	0.306829
1821.000000	0.306105
1822.000000	0.306051
1823.000000	0.306202
1824.000000	0.306324
1825.000000	0.307031
1826.000000	0.307412
1827.000000	0.307526
1828.000000	0.307672
1829.000000	0.307909
1830.000000	0.307511
1831.000000	0.307265
1832.000000	0.306698
1833.000000	0.306561
1834.000000	0.306965
1835.000000	0.306552
1836.000000	0.305580
1837.000000	0.305001
1838.000000	0.303659
1839.000000	0.302904
1840.000000	0.303365
1841.000000	0.303826
1842.000000	0.303784
1843.000000	0.303599
1844.000000	0.303504
1845.000000	0.302835
1846.000000	0.302724
1847.000000	0.302849
1848.000000	0.303272
1849.000000	0.303227
1850.000000	0.302801
1851.000000	0.302713
1852.000000	0.302283
1853.000000	0.302448
1854.000000	0.303285
1855.000000	0.303157
1856.000000	0.302642
1857.000000	0.302424
1858.000000	0.301302
1859.000000	0.300305
1860.000000	0.299829
1861.000000	0.299547
1862.000000	0.299366
1863.000000	0.299733
1864.000000	0.299623
1865.000000	0.299424
1866.000000	0.299158
1867.000000	0.298864
1868.000000	0.297983
1869.000000	0.297060
1870.000000	0.296388
1871.000000	0.295429
1872.000000	0.294732
1873.000000	0.293890
1874.000000	0.293239
1875.000000	0.292170
1876.000000	0.290613
1877.000000	0.288728
1878.000000	0.287097
1879.000000	0.285998
1880.000000	0.284951
1881.000000	0.283782
1882.000000	0.282644
1883.000000	0.281402
1884.000000	0.279854
1885.000000	0.277923
1886.000000	0.275965
1887.000000	0.273879
1888.000000	0.271171
1889.000000	0.268631
1890.000000	0.266171
1891.000000	0.263345
1892.000000	0.260685
1893.000000	0.258670
1894.000000	0.256565
1895.000000	0.254306
1896.000000	0.252396
1897.000000	0.250482
1898.000000	0.247832
1899.000000	0.245651
1900.000000	0.244170
1901.000000	0.242609
1902.000000	0.240898
1903.000000	0.239799
1904.000000	0.238668
1905.000000	0.237328
1906.000000	0.236346
1907.000000	0.236011
1908.000000	0.235033
1909.000000	0.233750
1910.000000	0.233328
1911.000000	0.232779
1912.000000	0.232386
1913.000000	0.232729
1914.000000	0.233006
1915.000000	0.232518
1916.000000	0.231868
1917.000000	0.231352
1918.000000	0.230805
1919.000000	0.229879
1920.000000	0.229700
1921.000000	0.230149
1922.000000	0.230388
1923.000000	0.231270
1924.000000	0.231910
1925.000000	0.231766
1926.000000	0.231890
1927.000000	0.231782
1928.000000	0.231471
1929.000000	0.230807
1930.000000	0.230841
1931.000000	0.230956
1932.000000	0.231019
1933.000000	0.231255
1934.000000	0.231615
1935.000000	0.231981
1936.000000	0.232405
1937.000000	0.233144
1938.000000	0.233590
1939.000000	0.233773
1940.000000	0.233834
1941.000000	0.233141
1942.000000	0.232394
1943.000000	0.232393
1944.000000	0.231873
1945.000000	0.232142
1946.000000	0.233299
1947.000000	0.233586
1948.000000	0.233978
1949.000000	0.234122
1950.000000	0.233701
1951.000000	0.233722
1952.000000	0.233995
1953.000000	0.234163
1954.000000	0.234651
1955.000000	0.234978
1956.000000	0.234301
1957.000000	0.233495
1958.000000	0.232552
1959.000000	0.232016
1960.000000	0.232082
1961.000000	0.232357
1962.000000	0.232488
1963.000000	0.232854
1964.000000	0.233078
1965.000000	0.233230
1966.000000	0.233134
1967.000000	0.233385
1968.000000	0.233913
1969.000000	0.233870
1970.000000	0.233970
1971.000000	0.234122
1972.000000	0.233893
1973.000000	0.233786
1974.000000	0.233816
1975.000000	0.233930
1976.000000	0.234198
1977.000000	0.234368
1978.000000	0.234091
1979.000000	0.234466
1980.000000	0.235014
1981.000000	0.236042
1982.000000	0.237540
1983.000000	0.238314
1984.000000	0.238870
1985.000000	0.238788
1986.000000	0.238971
1987.000000	0.238971
1988.000000	0.239609
1989.000000	0.239891
1990.000000	0.240483
1991.000000	0.240507
1992.000000	0.240332
1993.000000	0.240544
1994.000000	0.240007
1995.000000	0.240051
1996.000000	0.240397
1997.000000	0.240537
1998.000000	0.240718
1999.000000	0.241257
2000.000000	0.241893
2001.000000	0.242419
2002.000000	0.243345
2003.000000	0.244125
2004.000000	0.244825
2005.000000	0.245274
2006.000000	0.245780
2007.000000	0.246728
2008.000000	0.247542
2009.000000	0.248303
2010.000000	0.249205
2011.000000	0.250363
2012.000000	0.250995
2013.000000	0.251645
2014.000000	0.251542
2015.000000	0.251097
2016.000000	0.250575
2017.000000	0.249834
2018.000000	0.249940
2019.000000	0.250332
2020.000000	0.250620
2021.000000	0.251216
2022.000000	0.252227
2023.000000	0.252862
2024.000000	0.253607
2025.000000	0.254252
2026.000000	0.254505
2027.000000	0.254934
2028.000000	0.255458
2029.000000	0.256001
2030.000000	0.256725
2031.000000	0.257340
2032.000000	0.257861
2033.000000	0.257859
2034.000000	0.257878
2035.000000	0.257362
2036.000000	0.257405
2037.000000	0.257988
2038.000000	0.258401
2039.000000	0.258852
2040.000000	0.259911
2041.000000	0.260081
2042.000000	0.259914
2043.000000	0.260545
2044.000000	0.260357
2045.000000	0.260621
2046.000000	0.261251
2047.000000	0.261686
2048.000000	0.261785
2049.000000	0.262587
2050.000000	0.263914
2051.000000	0.264256
2052.000000	0.264268
2053.000000	0.264316
2054.000000	0.264017
2055.000000	0.263493
2056.000000	0.263655
2057.000000	0.264054
2058.000000	0.263875
2059.000000	0.264065
2060.000000	0.264347
2061.000000	0.264738
2062.000000	0.265026
2063.000000	0.265552
2064.000000	0.265810
2065.000000	0.266011
2066.000000	0.266421
2067.000000	0.267304
2068.000000	0.267834
2069.000000	0.268339
2070.000000	0.268787
2071.000000	0.268349
2072.000000	0.268205
2073.000000	0.268659
2074.000000	0.269052
2075.000000	0.269358
2076.000000	0.270151
2077.000000	0.270365
2078.000000	0.269942
2079.000000	0.269831
2080.000000	0.269641
2081.000000	0.269698
2082.000000	0.269920
2083.000000	0.270233
2084.000000	0.270303
2085.000000	0.270777
2086.000000	0.271389
2087.000000	0.271913
2088.000000	0.272550
2089.000000	0.273125
2090.000000	0.273536
2091.000000	0.273658
2092.000000	0.273793
2093.000000	0.273821
2094.000000	0.274036
2095.000000	0.274497
2096.000000	0.274679
2097.000000	0.274769
2098.000000	0.274821
2099.000000	0.274459
2100.000000	0.273991
2101.000000	0.274462
2102.000000	0.274571
2103.000000	0.275234
2104.000000	0.276079
2105.000000	0.276674
2106.000000	0.277501
2107.000000	0.277867
2108.000000	0.277896
2109.000000	0.277860
2110.000000	0.276956
2111.000000	0.276648
2112.000000	0.276657
2113.000000	0.276117
2114.000000	0.276047
2115.000000	0.276289
2116.000000	0.275943
2117.000000	0.275977
2118.000000	0.276059
2119.000000	0.276372
2120.000000	0.276628
2121.000000	0.277033
2122.000000	0.277317
2123.000000	0.277528
2124.000000	0.277611
2125.000000	0.277526
2126.000000	0.277777
2127.000000	0.278511
2128.000000	0.278810
2129.000000	0.279054
2130.000000	0.278955
2131.000000	0.278876
2132.000000	0.278121
2133.000000	0.277752
2134.000000	0.278321
2135.000000	0.278756
2136.000000	0.278986
2137.000000	0.279056
2138.000000	0.279129
2139.000000	0.279095
2140.000000	0.278463
2141.000000	0.278532
2142.000000	0.279139
2143.000000	0.279175
2144.000000	0.279601
2145.000000	0.279744
2146.000000	0.279539
2147.000000	0.279476
2148.000000	0.279096
2149.000000	0.279578
2150.000000	0.280513
2151.000000	0.281015
2152.000000	0.281904
2153.000000	0.282257
2154.000000	0.282563
2155.000000	0.282551
2156.000000	0.282617
2157.000000	0.282884
2158.000000	0.282448
2159.000000	0.281873
2160.000000	0.281019
2161.000000	0.279011
2162.000000	0.278185
2163.000000	0.277135
2164.000000	0.276520
2165.000000	0.276681
2166.000000	0.277001
2167.000000	0.277840
2168.000000	0.279485
2169.000000	0.280647
2170.000000	0.282535
2171.000000	0.283159
2172.000000	0.282989
2173.000000	0.282783
2174.000000	0.281680
2175.000000	0.281214
2176.000000	0.281028
2177.000000	0.280637
2178.000000	0.279926
2179.000000	0.279839
2180.000000	0.279925
2181.000000	0.280210
2182.000000	0.280258
2183.000000	0.281249
2184.000000	0.281831
2185.000000	0.282053
2186.000000	0.281480
2187.000000	0.281312
2188.000000	0.281309
2189.000000	0.280244
2190.000000	0.279617
2191.000000	0.280094
2192.000000	0.279885
2193.000000	0.278726
2194.000000	0.278964
2195.000000	0.279898
2196.000000	0.281128
2197.000000	0.284172
2198.000000	0.285383
2199.000000	0.286243
2200.000000	0.286447
2201.000000	0.284442
2202.000000	0.283949
2203.000000	0.283628
2204.000000	0.283933
2205.000000	0.282826
2206.000000	0.281643
2207.000000	0.281948
2208.000000	0.280861
2209.000000	0.280431
2210.000000	0.282686
2211.000000	0.283815
2212.000000	0.283030
2213.000000	0.281967
2214.000000	0.280472
2215.000000	0.279527
2216.000000	0.277197
2217.000000	0.276522
2218.000000	0.277995
2219.000000	0.277359
2220.000000	0.275283
2221.000000	0.275201
2222.000000	0.275026
2223.000000	0.275520
2224.000000	0.278030
2225.000000	0.279588
2226.000000	0.278353
2227.000000	0.277806
2228.000000	0.277958
2229.000000	0.277712
2230.000000	0.278084
2231.000000	0.279227
2232.000000	0.280747
2233.000000	0.280079
2234.000000	0.279348
2235.000000	0.281291
2236.000000	0.282606
2237.000000	0.284323
2238.000000	0.285223
2239.000000	0.286845
2240.000000	0.285739
2241.000000	0.281481
2242.000000	0.279023
2243.000000	0.275478
2244.000000	0.274663
2245.000000	0.276806
2246.000000	0.277058
2247.000000	0.277431
2248.000000	0.277697
2249.000000	0.277738
2250.000000	0.275998
2251.000000	0.275180
2252.000000	0.276690
2253.000000	0.276398
2254.000000	0.274606
2255.000000	0.275744
2256.000000	0.274052
2257.000000	0.273229
2258.000000	0.275681
2259.000000	0.277105
2260.000000	0.278636
2261.000000	0.279189
2262.000000	0.279718
2263.000000	0.279711
2264.000000	0.278938
2265.000000	0.278208
2266.000000	0.276616
2267.000000	0.275908
2268.000000	0.274329
2269.000000	0.274455
2270.000000	0.277244
2271.000000	0.277912
2272.000000	0.279045
2273.000000	0.278930
2274.000000	0.276778
2275.000000	0.274910
2276.000000	0.272126
2277.000000	0.270630
2278.000000	0.268405
2279.000000	0.267826
2280.000000	0.267529
2281.000000	0.265722
2282.000000	0.265330
2283.000000	0.264423
2284.000000	0.264982
2285.000000	0.267291
2286.000000	0.269239
2287.000000	0.269614
2288.000000	0.268674
2289.000000	0.266546
2290.000000	0.265008
2291.000000	0.266212
2292.000000	0.267032
2293.000000	0.267476
2294.000000	0.265683
2295.000000	0.259865
2296.000000	0.257591
2297.000000	0.255265
2298.000000	0.254540
2299.000000	0.256800
2300.000000	0.257445
2301.000000	0.258179
2302.000000	0.258169
2303.000000	0.258747
2304.000000	0.257283
2305.000000	0.252146
2306.000000	0.249788
2307.000000	0.247186
2308.000000	0.246270
2309.000000	0.246589
2310.000000	0.249647
2311.000000	0.250429
2312.000000	0.247876
2313.000000	0.247757
2314.000000	0.247761
2315.000000	0.246802
2316.000000	0.249203
2317.000000	0.250430
2318.000000	0.250172
2319.000000	0.251462
2320.000000	0.251986
2321.000000	0.251749
2322.000000	0.251012
2323.000000	0.251244
2324.000000	0.250890
2325.000000	0.250560
2326.000000	0.252457
2327.000000	0.252725
2328.000000	0.253087
2329.000000	0.253728
2330.000000	0.252521
2331.000000	0.252590
2332.000000	0.252563
2333.000000	0.253024
2334.000000	0.252731
2335.000000	0.251600
2336.000000	0.248006
2337.000000	0.247780
2338.000000	0.248148
2339.000000	0.249043
2340.000000	0.253883
2341.000000	0.254771
2342.000000	0.252716
2343.000000	0.252364
2344.000000	0.251243
2345.000000	0.249196
2346.000000	0.246740
2347.000000	0.245971
2348.000000	0.244545
2349.000000	0.245338
2350.000000	0.249134
2351.000000	0.251894
2352.000000	0.248239
2353.000000	0.245681
2354.000000	0.242563
2355.000000	0.237651
2356.000000	0.239121
2357.000000	0.240835
2358.000000	0.241209
2359.000000	0.242112
2360.000000	0.241584
2361.000000	0.241491
2362.000000	0.240162
2363.000000	0.241344
2364.000000	0.243805
2365.000000	0.246008
2366.000000	0.250358
2367.000000	0.250246
2368.000000	0.246660
2369.000000	0.242598
2370.000000	0.237590
2371.000000	0.236703
2372.000000	0.238627
2373.000000	0.239204
2374.000000	0.240617
2375.000000	0.240368
2376.000000	0.240079
2377.000000	0.242130
2378.000000	0.239023
2379.000000	0.234764
2380.000000	0.230334
2381.000000	0.224006
2382.000000	0.219287
2383.000000	0.216073
2384.000000	0.216390
2385.000000	0.218208
2386.000000	0.224530
2387.000000	0.229096
2388.000000	0.228238
2389.000000	0.229458
2390.000000	0.227993
2391.000000	0.222506
2392.000000	0.217511
2393.000000	0.215772
2394.000000	0.213249
2395.000000	0.214097
2396.000000	0.215691
2397.000000	0.211877
2398.000000	0.210862
2399.000000	0.216077
2400.000000	0.227464
2401.000000	0.234063
2402.000000	0.236500
2403.000000	0.233933
2404.000000	0.221794
2405.000000	0.211964
2406.000000	0.209391
2407.000000	0.209357
2408.000000	0.208980
2409.000000	0.212914
2410.000000	0.212914
2411.000000	0.211244
2412.000000	0.213974
2413.000000	0.212513
2414.000000	0.209004
2415.000000	0.207230
2416.000000	0.208209
2417.000000	0.212752
2418.000000	0.220364
2419.000000	0.225359
2420.000000	0.222583
2421.000000	0.219777
2422.000000	0.224190
2423.000000	0.224828
2424.000000	0.227543
2425.000000	0.233094
2426.000000	0.221809
2427.000000	0.206288
2428.000000	0.198655
2429.000000	0.197394
2430.000000	0.196694
2431.000000	0.198898
2432.000000	0.202385
2433.000000	0.198750
2434.000000	0.200782
2435.000000	0.213073
2436.000000	0.220116
2437.000000	0.216938
2438.000000	0.213090
2439.000000	0.195292
2440.000000	0.171929
2441.000000	0.162818
2442.000000	0.152028
2443.000000	0.158736
2444.000000	0.185173
2445.000000	0.195841
2446.000000	0.208170
2447.000000	0.219010
2448.000000	0.211245
2449.000000	0.211425
2450.000000	0.219508
2451.000000	0.221837
2452.000000	0.227121
2453.000000	0.231235
2454.000000	0.227987
2455.000000	0.224199
2456.000000	0.222185
2457.000000	0.218092
2458.000000	0.211769
2459.000000	0.213044
2460.000000	0.205725
2461.000000	0.186521
2462.000000	0.170293
2463.000000	0.154556
2464.000000	0.143704
2465.000000	0.151858
2466.000000	0.179641
2467.000000	0.186333
2468.000000	0.189694
2469.000000	0.194884
2470.000000	0.176476
2471.000000	0.171980
2472.000000	0.186720
2473.000000	0.204097
2474.000000	0.210031
2475.000000	0.214951
2476.000000	0.217571
2477.000000	0.215605
2478.000000	0.227997
2479.000000	0.241341
2480.000000	0.224657
2481.000000	0.184986
2482.000000	0.143617
2483.000000	0.115186
2484.000000	0.096094
2485.000000	0.096324
2486.000000	0.127903
2487.000000	0.120836
2488.000000	0.136364
2489.000000	0.192127
2490.000000	0.200035
2491.000000	0.211122
2492.000000	0.207671
2493.000000	0.168453
2494.000000	0.141111
2495.000000	0.127000
2496.000000	0.109375
2497.000000	0.073635
2498.000000	0.053014
2499.000000	0.030732
2500.000000	0.035335
