# Wavelength	SM1200H-70_FV7-30_00002.asd.rts.txt
350.000000	0.323880
351.000000	0.328680
352.000000	0.323452
353.000000	0.316136
354.000000	0.314152
355.000000	0.313566
356.000000	0.317035
357.000000	0.322386
358.000000	0.318393
359.000000	0.315151
360.000000	0.315267
361.000000	0.317950
362.000000	0.316416
363.000000	0.317117
364.000000	0.321843
365.000000	0.321964
366.000000	0.319941
367.000000	0.318433
368.000000	0.321712
369.000000	0.322649
370.000000	0.321854
371.000000	0.322127
372.000000	0.323425
373.000000	0.324899
374.000000	0.326310
375.000000	0.326499
376.000000	0.326927
377.000000	0.327640
378.000000	0.327699
379.000000	0.329079
380.000000	0.330562
381.000000	0.331226
382.000000	0.331377
383.000000	0.330891
384.000000	0.330390
385.000000	0.331393
386.000000	0.332956
387.000000	0.334164
388.000000	0.333397
389.000000	0.332729
390.000000	0.333322
391.000000	0.335323
392.000000	0.336054
393.000000	0.336128
394.000000	0.336475
395.000000	0.337546
396.000000	0.338166
397.000000	0.338030
398.000000	0.338074
399.000000	0.338146
400.000000	0.338518
401.000000	0.339368
402.000000	0.340160
403.000000	0.340587
404.000000	0.340772
405.000000	0.341241
406.000000	0.341648
407.000000	0.341960
408.000000	0.342583
409.000000	0.342808
410.000000	0.342762
411.000000	0.342991
412.000000	0.343271
413.000000	0.343506
414.000000	0.343700
415.000000	0.344069
416.000000	0.344618
417.000000	0.345254
418.000000	0.345737
419.000000	0.345912
420.000000	0.345927
421.000000	0.346185
422.000000	0.346638
423.000000	0.347025
424.000000	0.347207
425.000000	0.347866
426.000000	0.348292
427.000000	0.348073
428.000000	0.348269
429.000000	0.348712
430.000000	0.349182
431.000000	0.349309
432.000000	0.349759
433.000000	0.350266
434.000000	0.350328
435.000000	0.350657
436.000000	0.350888
437.000000	0.350684
438.000000	0.350988
439.000000	0.351274
440.000000	0.351418
441.000000	0.351736
442.000000	0.351858
443.000000	0.351828
444.000000	0.352225
445.000000	0.352517
446.000000	0.352836
447.000000	0.353189
448.000000	0.353486
449.000000	0.353708
450.000000	0.353858
451.000000	0.353870
452.000000	0.354057
453.000000	0.354386
454.000000	0.354770
455.000000	0.355001
456.000000	0.355271
457.000000	0.355656
458.000000	0.355776
459.000000	0.355992
460.000000	0.356623
461.000000	0.356947
462.000000	0.357075
463.000000	0.357002
464.000000	0.357205
465.000000	0.357488
466.000000	0.357706
467.000000	0.357913
468.000000	0.358123
469.000000	0.358262
470.000000	0.358477
471.000000	0.358654
472.000000	0.358846
473.000000	0.359107
474.000000	0.359283
475.000000	0.359265
476.000000	0.359311
477.000000	0.359620
478.000000	0.359737
479.000000	0.359894
480.000000	0.360085
481.000000	0.360264
482.000000	0.360591
483.000000	0.360879
484.000000	0.361154
485.000000	0.361308
486.000000	0.361520
487.000000	0.361642
488.000000	0.361823
489.000000	0.362116
490.000000	0.362486
491.000000	0.362794
492.000000	0.363076
493.000000	0.363241
494.000000	0.363524
495.000000	0.363860
496.000000	0.364128
497.000000	0.364408
498.000000	0.364597
499.000000	0.364802
500.000000	0.365119
501.000000	0.365405
502.000000	0.365705
503.000000	0.366016
504.000000	0.366314
505.000000	0.366583
506.000000	0.366822
507.000000	0.367037
508.000000	0.367306
509.000000	0.367602
510.000000	0.367885
511.000000	0.368143
512.000000	0.368421
513.000000	0.368735
514.000000	0.369027
515.000000	0.369324
516.000000	0.369591
517.000000	0.369887
518.000000	0.370243
519.000000	0.370552
520.000000	0.370830
521.000000	0.371079
522.000000	0.371326
523.000000	0.371627
524.000000	0.371893
525.000000	0.372114
526.000000	0.372382
527.000000	0.372613
528.000000	0.372818
529.000000	0.373085
530.000000	0.373295
531.000000	0.373563
532.000000	0.373833
533.000000	0.374065
534.000000	0.374334
535.000000	0.374637
536.000000	0.374948
537.000000	0.375240
538.000000	0.375511
539.000000	0.375757
540.000000	0.376018
541.000000	0.376288
542.000000	0.376586
543.000000	0.376806
544.000000	0.377083
545.000000	0.377375
546.000000	0.377635
547.000000	0.377927
548.000000	0.378281
549.000000	0.378564
550.000000	0.378840
551.000000	0.379124
552.000000	0.379356
553.000000	0.379624
554.000000	0.379929
555.000000	0.380266
556.000000	0.380637
557.000000	0.380896
558.000000	0.381173
559.000000	0.381445
560.000000	0.381655
561.000000	0.381914
562.000000	0.382203
563.000000	0.382478
564.000000	0.382787
565.000000	0.383041
566.000000	0.383327
567.000000	0.383643
568.000000	0.383948
569.000000	0.384228
570.000000	0.384522
571.000000	0.384820
572.000000	0.385107
573.000000	0.385393
574.000000	0.385666
575.000000	0.385980
576.000000	0.386244
577.000000	0.386478
578.000000	0.386779
579.000000	0.387032
580.000000	0.387318
581.000000	0.387646
582.000000	0.387926
583.000000	0.388155
584.000000	0.388380
585.000000	0.388689
586.000000	0.388983
587.000000	0.389248
588.000000	0.389500
589.000000	0.389788
590.000000	0.390016
591.000000	0.390157
592.000000	0.390381
593.000000	0.390591
594.000000	0.390775
595.000000	0.391008
596.000000	0.391226
597.000000	0.391444
598.000000	0.391579
599.000000	0.391748
600.000000	0.391966
601.000000	0.392115
602.000000	0.392210
603.000000	0.392291
604.000000	0.392406
605.000000	0.392574
606.000000	0.392768
607.000000	0.392976
608.000000	0.393193
609.000000	0.393423
610.000000	0.393658
611.000000	0.393878
612.000000	0.394000
613.000000	0.394133
614.000000	0.394356
615.000000	0.394425
616.000000	0.394514
617.000000	0.394622
618.000000	0.394712
619.000000	0.394873
620.000000	0.395019
621.000000	0.395099
622.000000	0.395245
623.000000	0.395409
624.000000	0.395536
625.000000	0.395676
626.000000	0.395781
627.000000	0.395846
628.000000	0.395931
629.000000	0.396084
630.000000	0.396153
631.000000	0.396249
632.000000	0.396383
633.000000	0.396559
634.000000	0.396743
635.000000	0.396877
636.000000	0.397006
637.000000	0.397134
638.000000	0.397270
639.000000	0.397364
640.000000	0.397473
641.000000	0.397517
642.000000	0.397580
643.000000	0.397688
644.000000	0.397844
645.000000	0.397954
646.000000	0.398077
647.000000	0.398214
648.000000	0.398286
649.000000	0.398356
650.000000	0.398430
651.000000	0.398526
652.000000	0.398633
653.000000	0.398770
654.000000	0.398855
655.000000	0.398958
656.000000	0.399100
657.000000	0.399216
658.000000	0.399354
659.000000	0.399535
660.000000	0.399728
661.000000	0.399893
662.000000	0.399965
663.000000	0.400042
664.000000	0.400184
665.000000	0.400344
666.000000	0.400504
667.000000	0.400620
668.000000	0.400772
669.000000	0.400875
670.000000	0.400920
671.000000	0.401056
672.000000	0.401210
673.000000	0.401341
674.000000	0.401452
675.000000	0.401496
676.000000	0.401551
677.000000	0.401732
678.000000	0.401901
679.000000	0.402046
680.000000	0.402176
681.000000	0.402258
682.000000	0.402399
683.000000	0.402528
684.000000	0.402707
685.000000	0.402855
686.000000	0.402994
687.000000	0.403104
688.000000	0.403200
689.000000	0.403291
690.000000	0.403433
691.000000	0.403629
692.000000	0.403768
693.000000	0.403905
694.000000	0.404052
695.000000	0.404187
696.000000	0.404323
697.000000	0.404485
698.000000	0.404627
699.000000	0.404769
700.000000	0.404930
701.000000	0.405038
702.000000	0.405191
703.000000	0.405363
704.000000	0.405434
705.000000	0.405548
706.000000	0.405673
707.000000	0.405829
708.000000	0.405989
709.000000	0.406119
710.000000	0.406222
711.000000	0.406298
712.000000	0.406409
713.000000	0.406577
714.000000	0.406685
715.000000	0.406780
716.000000	0.406906
717.000000	0.407063
718.000000	0.407145
719.000000	0.407177
720.000000	0.407225
721.000000	0.407314
722.000000	0.407421
723.000000	0.407576
724.000000	0.407622
725.000000	0.407621
726.000000	0.407684
727.000000	0.407728
728.000000	0.407811
729.000000	0.407919
730.000000	0.407971
731.000000	0.408056
732.000000	0.408149
733.000000	0.408256
734.000000	0.408259
735.000000	0.408214
736.000000	0.408306
737.000000	0.408423
738.000000	0.408486
739.000000	0.408632
740.000000	0.408740
741.000000	0.408873
742.000000	0.409007
743.000000	0.409095
744.000000	0.409185
745.000000	0.409210
746.000000	0.409228
747.000000	0.409203
748.000000	0.409217
749.000000	0.409264
750.000000	0.409284
751.000000	0.409276
752.000000	0.409287
753.000000	0.409367
754.000000	0.409528
755.000000	0.409700
756.000000	0.409869
757.000000	0.409975
758.000000	0.410050
759.000000	0.410102
760.000000	0.410071
761.000000	0.410127
762.000000	0.410250
763.000000	0.410388
764.000000	0.410561
765.000000	0.410651
766.000000	0.410692
767.000000	0.410724
768.000000	0.410705
769.000000	0.410635
770.000000	0.410543
771.000000	0.410485
772.000000	0.410536
773.000000	0.410586
774.000000	0.410630
775.000000	0.410681
776.000000	0.410743
777.000000	0.410792
778.000000	0.410842
779.000000	0.410887
780.000000	0.410931
781.000000	0.410958
782.000000	0.410953
783.000000	0.411055
784.000000	0.411154
785.000000	0.411123
786.000000	0.411075
787.000000	0.411069
788.000000	0.411043
789.000000	0.411043
790.000000	0.411028
791.000000	0.410986
792.000000	0.410887
793.000000	0.410803
794.000000	0.410804
795.000000	0.410892
796.000000	0.410920
797.000000	0.410847
798.000000	0.410760
799.000000	0.410726
800.000000	0.410742
801.000000	0.410781
802.000000	0.410817
803.000000	0.410846
804.000000	0.410904
805.000000	0.410912
806.000000	0.410838
807.000000	0.410810
808.000000	0.410828
809.000000	0.410938
810.000000	0.411048
811.000000	0.411072
812.000000	0.411081
813.000000	0.411010
814.000000	0.410905
815.000000	0.410939
816.000000	0.410916
817.000000	0.410876
818.000000	0.410799
819.000000	0.410788
820.000000	0.410823
821.000000	0.410821
822.000000	0.410819
823.000000	0.410857
824.000000	0.410882
825.000000	0.410961
826.000000	0.410944
827.000000	0.410864
828.000000	0.410814
829.000000	0.410766
830.000000	0.410637
831.000000	0.410521
832.000000	0.410388
833.000000	0.410322
834.000000	0.410299
835.000000	0.410298
836.000000	0.410168
837.000000	0.410046
838.000000	0.409971
839.000000	0.409854
840.000000	0.409715
841.000000	0.409629
842.000000	0.409608
843.000000	0.409669
844.000000	0.409750
845.000000	0.409771
846.000000	0.409747
847.000000	0.409690
848.000000	0.409584
849.000000	0.409475
850.000000	0.409464
851.000000	0.409404
852.000000	0.409278
853.000000	0.409115
854.000000	0.408882
855.000000	0.408782
856.000000	0.408786
857.000000	0.408724
858.000000	0.408708
859.000000	0.408681
860.000000	0.408597
861.000000	0.408565
862.000000	0.408544
863.000000	0.408347
864.000000	0.408104
865.000000	0.407964
866.000000	0.407975
867.000000	0.407890
868.000000	0.407838
869.000000	0.407779
870.000000	0.407759
871.000000	0.407694
872.000000	0.407552
873.000000	0.407293
874.000000	0.407132
875.000000	0.406930
876.000000	0.406738
877.000000	0.406579
878.000000	0.406487
879.000000	0.406446
880.000000	0.406247
881.000000	0.405983
882.000000	0.405741
883.000000	0.405585
884.000000	0.405468
885.000000	0.405412
886.000000	0.405292
887.000000	0.405083
888.000000	0.404830
889.000000	0.404704
890.000000	0.404526
891.000000	0.404309
892.000000	0.404092
893.000000	0.403884
894.000000	0.403814
895.000000	0.403684
896.000000	0.403593
897.000000	0.403512
898.000000	0.403377
899.000000	0.403193
900.000000	0.403010
901.000000	0.402843
902.000000	0.402829
903.000000	0.402621
904.000000	0.402310
905.000000	0.401980
906.000000	0.401860
907.000000	0.401723
908.000000	0.401553
909.000000	0.401354
910.000000	0.401204
911.000000	0.401029
912.000000	0.400773
913.000000	0.400457
914.000000	0.400096
915.000000	0.399836
916.000000	0.399687
917.000000	0.399599
918.000000	0.399503
919.000000	0.399323
920.000000	0.399091
921.000000	0.398790
922.000000	0.398449
923.000000	0.398078
924.000000	0.397664
925.000000	0.397294
926.000000	0.397054
927.000000	0.396858
928.000000	0.396761
929.000000	0.396643
930.000000	0.396389
931.000000	0.396202
932.000000	0.396024
933.000000	0.395812
934.000000	0.395415
935.000000	0.395067
936.000000	0.394901
937.000000	0.394815
938.000000	0.394700
939.000000	0.394598
940.000000	0.394385
941.000000	0.394075
942.000000	0.393762
943.000000	0.393484
944.000000	0.393108
945.000000	0.392788
946.000000	0.392280
947.000000	0.391772
948.000000	0.391445
949.000000	0.391238
950.000000	0.391162
951.000000	0.391083
952.000000	0.390903
953.000000	0.390771
954.000000	0.390699
955.000000	0.390554
956.000000	0.390244
957.000000	0.390050
958.000000	0.389877
959.000000	0.389660
960.000000	0.389463
961.000000	0.389192
962.000000	0.388850
963.000000	0.388642
964.000000	0.388475
965.000000	0.388312
966.000000	0.388015
967.000000	0.387802
968.000000	0.387537
969.000000	0.387193
970.000000	0.386970
971.000000	0.386860
972.000000	0.386732
973.000000	0.386442
974.000000	0.386110
975.000000	0.385781
976.000000	0.385605
977.000000	0.385610
978.000000	0.385476
979.000000	0.385399
980.000000	0.385141
981.000000	0.384939
982.000000	0.384765
983.000000	0.384431
984.000000	0.384066
985.000000	0.383922
986.000000	0.383769
987.000000	0.383682
988.000000	0.383521
989.000000	0.383068
990.000000	0.382861
991.000000	0.382784
992.000000	0.382626
993.000000	0.382642
994.000000	0.382549
995.000000	0.382412
996.000000	0.382089
997.000000	0.382029
998.000000	0.382011
999.000000	0.381984
1000.000000	0.381940
1001.000000	0.382401
1002.000000	0.381991
1003.000000	0.381543
1004.000000	0.381277
1005.000000	0.380946
1006.000000	0.380794
1007.000000	0.381018
1008.000000	0.381009
1009.000000	0.380788
1010.000000	0.380222
1011.000000	0.379822
1012.000000	0.379848
1013.000000	0.379655
1014.000000	0.379582
1015.000000	0.379783
1016.000000	0.380050
1017.000000	0.380161
1018.000000	0.380264
1019.000000	0.380209
1020.000000	0.379930
1021.000000	0.379360
1022.000000	0.378763
1023.000000	0.378728
1024.000000	0.378581
1025.000000	0.378777
1026.000000	0.379020
1027.000000	0.379049
1028.000000	0.379201
1029.000000	0.379282
1030.000000	0.379223
1031.000000	0.379384
1032.000000	0.379482
1033.000000	0.379386
1034.000000	0.379477
1035.000000	0.379917
1036.000000	0.379973
1037.000000	0.379797
1038.000000	0.379694
1039.000000	0.379591
1040.000000	0.379665
1041.000000	0.379610
1042.000000	0.379512
1043.000000	0.379663
1044.000000	0.379733
1045.000000	0.379612
1046.000000	0.379657
1047.000000	0.379865
1048.000000	0.379965
1049.000000	0.380082
1050.000000	0.380553
1051.000000	0.380796
1052.000000	0.380767
1053.000000	0.380726
1054.000000	0.380912
1055.000000	0.381061
1056.000000	0.381172
1057.000000	0.381304
1058.000000	0.381221
1059.000000	0.380932
1060.000000	0.380927
1061.000000	0.381099
1062.000000	0.381354
1063.000000	0.381759
1064.000000	0.382097
1065.000000	0.382267
1066.000000	0.382513
1067.000000	0.382846
1068.000000	0.383056
1069.000000	0.383061
1070.000000	0.383205
1071.000000	0.383567
1072.000000	0.383690
1073.000000	0.383664
1074.000000	0.383900
1075.000000	0.384015
1076.000000	0.384244
1077.000000	0.384502
1078.000000	0.384495
1079.000000	0.384620
1080.000000	0.384608
1081.000000	0.384745
1082.000000	0.385268
1083.000000	0.385470
1084.000000	0.385489
1085.000000	0.385696
1086.000000	0.385825
1087.000000	0.386050
1088.000000	0.386327
1089.000000	0.386597
1090.000000	0.386951
1091.000000	0.387080
1092.000000	0.387233
1093.000000	0.387479
1094.000000	0.387605
1095.000000	0.387467
1096.000000	0.387673
1097.000000	0.388108
1098.000000	0.388267
1099.000000	0.388259
1100.000000	0.388526
1101.000000	0.388723
1102.000000	0.388920
1103.000000	0.389328
1104.000000	0.389663
1105.000000	0.389965
1106.000000	0.390076
1107.000000	0.389916
1108.000000	0.389986
1109.000000	0.390105
1110.000000	0.390143
1111.000000	0.390341
1112.000000	0.390874
1113.000000	0.391137
1114.000000	0.391253
1115.000000	0.391458
1116.000000	0.391719
1117.000000	0.391901
1118.000000	0.392032
1119.000000	0.392116
1120.000000	0.392162
1121.000000	0.392195
1122.000000	0.392242
1123.000000	0.392574
1124.000000	0.392756
1125.000000	0.392971
1126.000000	0.393339
1127.000000	0.393451
1128.000000	0.393431
1129.000000	0.393256
1130.000000	0.393282
1131.000000	0.393272
1132.000000	0.393239
1133.000000	0.393391
1134.000000	0.393449
1135.000000	0.393260
1136.000000	0.393269
1137.000000	0.393458
1138.000000	0.393447
1139.000000	0.393475
1140.000000	0.393592
1141.000000	0.393609
1142.000000	0.393635
1143.000000	0.393592
1144.000000	0.393755
1145.000000	0.393782
1146.000000	0.393738
1147.000000	0.393735
1148.000000	0.393704
1149.000000	0.393663
1150.000000	0.393530
1151.000000	0.393596
1152.000000	0.393717
1153.000000	0.393807
1154.000000	0.393952
1155.000000	0.394016
1156.000000	0.393982
1157.000000	0.394036
1158.000000	0.394097
1159.000000	0.394110
1160.000000	0.394107
1161.000000	0.394099
1162.000000	0.394118
1163.000000	0.394250
1164.000000	0.394312
1165.000000	0.394395
1166.000000	0.394472
1167.000000	0.394466
1168.000000	0.394488
1169.000000	0.394576
1170.000000	0.394627
1171.000000	0.394733
1172.000000	0.394817
1173.000000	0.394779
1174.000000	0.394845
1175.000000	0.394939
1176.000000	0.394966
1177.000000	0.395145
1178.000000	0.395224
1179.000000	0.395207
1180.000000	0.395146
1181.000000	0.395144
1182.000000	0.395084
1183.000000	0.395152
1184.000000	0.395239
1185.000000	0.395280
1186.000000	0.395362
1187.000000	0.395361
1188.000000	0.395257
1189.000000	0.395208
1190.000000	0.395221
1191.000000	0.395228
1192.000000	0.395417
1193.000000	0.395561
1194.000000	0.395523
1195.000000	0.395543
1196.000000	0.395455
1197.000000	0.395420
1198.000000	0.395452
1199.000000	0.395463
1200.000000	0.395436
1201.000000	0.395475
1202.000000	0.395446
1203.000000	0.395502
1204.000000	0.395539
1205.000000	0.395527
1206.000000	0.395452
1207.000000	0.395442
1208.000000	0.395342
1209.000000	0.395211
1210.000000	0.395166
1211.000000	0.395147
1212.000000	0.395111
1213.000000	0.395126
1214.000000	0.395205
1215.000000	0.395345
1216.000000	0.395380
1217.000000	0.395387
1218.000000	0.395359
1219.000000	0.395261
1220.000000	0.395180
1221.000000	0.395188
1222.000000	0.395184
1223.000000	0.395234
1224.000000	0.395285
1225.000000	0.395198
1226.000000	0.395175
1227.000000	0.395208
1228.000000	0.395198
1229.000000	0.395106
1230.000000	0.395041
1231.000000	0.394867
1232.000000	0.394618
1233.000000	0.394631
1234.000000	0.394767
1235.000000	0.394755
1236.000000	0.394649
1237.000000	0.394667
1238.000000	0.394602
1239.000000	0.394559
1240.000000	0.394641
1241.000000	0.394610
1242.000000	0.394523
1243.000000	0.394582
1244.000000	0.394590
1245.000000	0.394676
1246.000000	0.394746
1247.000000	0.394710
1248.000000	0.394729
1249.000000	0.394758
1250.000000	0.394725
1251.000000	0.394755
1252.000000	0.394780
1253.000000	0.394919
1254.000000	0.394892
1255.000000	0.394766
1256.000000	0.394736
1257.000000	0.394661
1258.000000	0.394689
1259.000000	0.394815
1260.000000	0.394830
1261.000000	0.394676
1262.000000	0.394635
1263.000000	0.394609
1264.000000	0.394587
1265.000000	0.394709
1266.000000	0.394756
1267.000000	0.394732
1268.000000	0.394690
1269.000000	0.394502
1270.000000	0.394370
1271.000000	0.394287
1272.000000	0.394271
1273.000000	0.394384
1274.000000	0.394442
1275.000000	0.394444
1276.000000	0.394436
1277.000000	0.394507
1278.000000	0.394457
1279.000000	0.394450
1280.000000	0.394450
1281.000000	0.394357
1282.000000	0.394230
1283.000000	0.394237
1284.000000	0.394173
1285.000000	0.394144
1286.000000	0.394142
1287.000000	0.394176
1288.000000	0.394183
1289.000000	0.394153
1290.000000	0.394031
1291.000000	0.393877
1292.000000	0.393732
1293.000000	0.393641
1294.000000	0.393563
1295.000000	0.393527
1296.000000	0.393504
1297.000000	0.393412
1298.000000	0.393427
1299.000000	0.393450
1300.000000	0.393454
1301.000000	0.393508
1302.000000	0.393433
1303.000000	0.393417
1304.000000	0.393323
1305.000000	0.393235
1306.000000	0.393156
1307.000000	0.393155
1308.000000	0.393147
1309.000000	0.393151
1310.000000	0.393126
1311.000000	0.393128
1312.000000	0.392993
1313.000000	0.392946
1314.000000	0.392906
1315.000000	0.392880
1316.000000	0.392987
1317.000000	0.393032
1318.000000	0.393016
1319.000000	0.392865
1320.000000	0.392672
1321.000000	0.392505
1322.000000	0.392328
1323.000000	0.392212
1324.000000	0.392260
1325.000000	0.392230
1326.000000	0.392037
1327.000000	0.391886
1328.000000	0.391765
1329.000000	0.391550
1330.000000	0.391262
1331.000000	0.391143
1332.000000	0.391134
1333.000000	0.391069
1334.000000	0.391210
1335.000000	0.391219
1336.000000	0.391077
1337.000000	0.390971
1338.000000	0.390799
1339.000000	0.390602
1340.000000	0.390411
1341.000000	0.390335
1342.000000	0.390292
1343.000000	0.390257
1344.000000	0.390266
1345.000000	0.390277
1346.000000	0.390266
1347.000000	0.390084
1348.000000	0.389992
1349.000000	0.389869
1350.000000	0.389794
1351.000000	0.389722
1352.000000	0.389515
1353.000000	0.389281
1354.000000	0.389063
1355.000000	0.388853
1356.000000	0.388807
1357.000000	0.388717
1358.000000	0.388615
1359.000000	0.388520
1360.000000	0.388400
1361.000000	0.388325
1362.000000	0.388129
1363.000000	0.387807
1364.000000	0.387602
1365.000000	0.387361
1366.000000	0.387116
1367.000000	0.386917
1368.000000	0.386695
1369.000000	0.386489
1370.000000	0.386049
1371.000000	0.385550
1372.000000	0.385022
1373.000000	0.384360
1374.000000	0.383650
1375.000000	0.382833
1376.000000	0.381967
1377.000000	0.381015
1378.000000	0.379782
1379.000000	0.378190
1380.000000	0.376332
1381.000000	0.374115
1382.000000	0.371665
1383.000000	0.369114
1384.000000	0.366318
1385.000000	0.363536
1386.000000	0.360959
1387.000000	0.358639
1388.000000	0.356778
1389.000000	0.355395
1390.000000	0.354389
1391.000000	0.353811
1392.000000	0.353783
1393.000000	0.354002
1394.000000	0.354740
1395.000000	0.355454
1396.000000	0.356609
1397.000000	0.357291
1398.000000	0.357894
1399.000000	0.358289
1400.000000	0.358425
1401.000000	0.358443
1402.000000	0.358396
1403.000000	0.358121
1404.000000	0.357825
1405.000000	0.357456
1406.000000	0.357036
1407.000000	0.356638
1408.000000	0.356234
1409.000000	0.355921
1410.000000	0.355663
1411.000000	0.355481
1412.000000	0.355310
1413.000000	0.355170
1414.000000	0.355166
1415.000000	0.355199
1416.000000	0.355245
1417.000000	0.355393
1418.000000	0.355563
1419.000000	0.355894
1420.000000	0.356182
1421.000000	0.356573
1422.000000	0.357040
1423.000000	0.357508
1424.000000	0.357947
1425.000000	0.358443
1426.000000	0.358864
1427.000000	0.359314
1428.000000	0.359798
1429.000000	0.360212
1430.000000	0.360652
1431.000000	0.361075
1432.000000	0.361461
1433.000000	0.361889
1434.000000	0.362272
1435.000000	0.362711
1436.000000	0.363103
1437.000000	0.363460
1438.000000	0.363772
1439.000000	0.364109
1440.000000	0.364382
1441.000000	0.364627
1442.000000	0.364871
1443.000000	0.364984
1444.000000	0.365175
1445.000000	0.365402
1446.000000	0.365564
1447.000000	0.365722
1448.000000	0.365831
1449.000000	0.365864
1450.000000	0.365978
1451.000000	0.366122
1452.000000	0.366135
1453.000000	0.366152
1454.000000	0.366128
1455.000000	0.366169
1456.000000	0.366347
1457.000000	0.366457
1458.000000	0.366552
1459.000000	0.366605
1460.000000	0.366598
1461.000000	0.366679
1462.000000	0.366817
1463.000000	0.366905
1464.000000	0.367082
1465.000000	0.367352
1466.000000	0.367583
1467.000000	0.367910
1468.000000	0.368288
1469.000000	0.368663
1470.000000	0.368978
1471.000000	0.369355
1472.000000	0.369691
1473.000000	0.370102
1474.000000	0.370537
1475.000000	0.370891
1476.000000	0.371230
1477.000000	0.371586
1478.000000	0.371901
1479.000000	0.372194
1480.000000	0.372483
1481.000000	0.372735
1482.000000	0.372994
1483.000000	0.373265
1484.000000	0.373552
1485.000000	0.373782
1486.000000	0.373953
1487.000000	0.374138
1488.000000	0.374303
1489.000000	0.374536
1490.000000	0.374664
1491.000000	0.374838
1492.000000	0.375000
1493.000000	0.375180
1494.000000	0.375324
1495.000000	0.375454
1496.000000	0.375568
1497.000000	0.375702
1498.000000	0.375862
1499.000000	0.375994
1500.000000	0.376122
1501.000000	0.376236
1502.000000	0.376284
1503.000000	0.376424
1504.000000	0.376613
1505.000000	0.376773
1506.000000	0.376948
1507.000000	0.377084
1508.000000	0.377276
1509.000000	0.377487
1510.000000	0.377684
1511.000000	0.377870
1512.000000	0.377943
1513.000000	0.378034
1514.000000	0.378203
1515.000000	0.378295
1516.000000	0.378443
1517.000000	0.378631
1518.000000	0.378747
1519.000000	0.378793
1520.000000	0.378914
1521.000000	0.378953
1522.000000	0.379018
1523.000000	0.379200
1524.000000	0.379311
1525.000000	0.379397
1526.000000	0.379413
1527.000000	0.379468
1528.000000	0.379558
1529.000000	0.379587
1530.000000	0.379580
1531.000000	0.379644
1532.000000	0.379772
1533.000000	0.379900
1534.000000	0.380037
1535.000000	0.380161
1536.000000	0.380170
1537.000000	0.380269
1538.000000	0.380422
1539.000000	0.380482
1540.000000	0.380550
1541.000000	0.380653
1542.000000	0.380784
1543.000000	0.380946
1544.000000	0.381078
1545.000000	0.381218
1546.000000	0.381270
1547.000000	0.381286
1548.000000	0.381404
1549.000000	0.381444
1550.000000	0.381420
1551.000000	0.381487
1552.000000	0.381557
1553.000000	0.381631
1554.000000	0.381754
1555.000000	0.381878
1556.000000	0.381978
1557.000000	0.382018
1558.000000	0.382139
1559.000000	0.382251
1560.000000	0.382335
1561.000000	0.382502
1562.000000	0.382567
1563.000000	0.382614
1564.000000	0.382668
1565.000000	0.382670
1566.000000	0.382639
1567.000000	0.382725
1568.000000	0.382744
1569.000000	0.382807
1570.000000	0.382849
1571.000000	0.382799
1572.000000	0.382856
1573.000000	0.382995
1574.000000	0.383078
1575.000000	0.383228
1576.000000	0.383352
1577.000000	0.383394
1578.000000	0.383465
1579.000000	0.383666
1580.000000	0.383769
1581.000000	0.383932
1582.000000	0.383991
1583.000000	0.383921
1584.000000	0.383881
1585.000000	0.383920
1586.000000	0.383935
1587.000000	0.383949
1588.000000	0.383944
1589.000000	0.383935
1590.000000	0.383890
1591.000000	0.383847
1592.000000	0.383821
1593.000000	0.383768
1594.000000	0.383764
1595.000000	0.383902
1596.000000	0.383957
1597.000000	0.384029
1598.000000	0.384052
1599.000000	0.384063
1600.000000	0.384035
1601.000000	0.384077
1602.000000	0.384091
1603.000000	0.384095
1604.000000	0.384086
1605.000000	0.384110
1606.000000	0.384099
1607.000000	0.384138
1608.000000	0.384133
1609.000000	0.384183
1610.000000	0.384133
1611.000000	0.384025
1612.000000	0.383947
1613.000000	0.383939
1614.000000	0.383895
1615.000000	0.383964
1616.000000	0.383979
1617.000000	0.383887
1618.000000	0.383800
1619.000000	0.383671
1620.000000	0.383557
1621.000000	0.383425
1622.000000	0.383461
1623.000000	0.383516
1624.000000	0.383580
1625.000000	0.383624
1626.000000	0.383587
1627.000000	0.383522
1628.000000	0.383560
1629.000000	0.383576
1630.000000	0.383665
1631.000000	0.383752
1632.000000	0.383803
1633.000000	0.383938
1634.000000	0.383961
1635.000000	0.383949
1636.000000	0.383953
1637.000000	0.383914
1638.000000	0.383875
1639.000000	0.383938
1640.000000	0.383932
1641.000000	0.383947
1642.000000	0.383966
1643.000000	0.384019
1644.000000	0.384029
1645.000000	0.384049
1646.000000	0.383977
1647.000000	0.383895
1648.000000	0.383762
1649.000000	0.383638
1650.000000	0.383589
1651.000000	0.383605
1652.000000	0.383624
1653.000000	0.383627
1654.000000	0.383614
1655.000000	0.383500
1656.000000	0.383352
1657.000000	0.383284
1658.000000	0.383211
1659.000000	0.383225
1660.000000	0.383258
1661.000000	0.383210
1662.000000	0.383238
1663.000000	0.383284
1664.000000	0.383287
1665.000000	0.383294
1666.000000	0.383406
1667.000000	0.383435
1668.000000	0.383476
1669.000000	0.383559
1670.000000	0.383565
1671.000000	0.383640
1672.000000	0.383691
1673.000000	0.383722
1674.000000	0.383702
1675.000000	0.383632
1676.000000	0.383634
1677.000000	0.383593
1678.000000	0.383459
1679.000000	0.383493
1680.000000	0.383479
1681.000000	0.383472
1682.000000	0.383573
1683.000000	0.383617
1684.000000	0.383617
1685.000000	0.383649
1686.000000	0.383616
1687.000000	0.383634
1688.000000	0.383617
1689.000000	0.383538
1690.000000	0.383456
1691.000000	0.383435
1692.000000	0.383330
1693.000000	0.383292
1694.000000	0.383234
1695.000000	0.383159
1696.000000	0.383094
1697.000000	0.382976
1698.000000	0.382860
1699.000000	0.382832
1700.000000	0.382865
1701.000000	0.382947
1702.000000	0.382906
1703.000000	0.382813
1704.000000	0.382746
1705.000000	0.382705
1706.000000	0.382740
1707.000000	0.382728
1708.000000	0.382668
1709.000000	0.382568
1710.000000	0.382521
1711.000000	0.382501
1712.000000	0.382577
1713.000000	0.382520
1714.000000	0.382398
1715.000000	0.382378
1716.000000	0.382380
1717.000000	0.382336
1718.000000	0.382315
1719.000000	0.382260
1720.000000	0.382154
1721.000000	0.382133
1722.000000	0.382228
1723.000000	0.382225
1724.000000	0.382252
1725.000000	0.382215
1726.000000	0.381957
1727.000000	0.381849
1728.000000	0.381715
1729.000000	0.381511
1730.000000	0.381456
1731.000000	0.381430
1732.000000	0.381399
1733.000000	0.381449
1734.000000	0.381465
1735.000000	0.381462
1736.000000	0.381405
1737.000000	0.381333
1738.000000	0.381266
1739.000000	0.381257
1740.000000	0.381195
1741.000000	0.381201
1742.000000	0.381328
1743.000000	0.381411
1744.000000	0.381491
1745.000000	0.381415
1746.000000	0.381260
1747.000000	0.381109
1748.000000	0.380925
1749.000000	0.380798
1750.000000	0.380661
1751.000000	0.380662
1752.000000	0.380710
1753.000000	0.380669
1754.000000	0.380604
1755.000000	0.380459
1756.000000	0.380270
1757.000000	0.379939
1758.000000	0.379814
1759.000000	0.379730
1760.000000	0.379686
1761.000000	0.379871
1762.000000	0.379813
1763.000000	0.379587
1764.000000	0.379472
1765.000000	0.379209
1766.000000	0.379122
1767.000000	0.379144
1768.000000	0.379043
1769.000000	0.379014
1770.000000	0.379078
1771.000000	0.379090
1772.000000	0.379136
1773.000000	0.379227
1774.000000	0.379297
1775.000000	0.379440
1776.000000	0.379488
1777.000000	0.379509
1778.000000	0.379412
1779.000000	0.379130
1780.000000	0.379030
1781.000000	0.378915
1782.000000	0.378789
1783.000000	0.378778
1784.000000	0.378722
1785.000000	0.378569
1786.000000	0.378367
1787.000000	0.378371
1788.000000	0.378362
1789.000000	0.378173
1790.000000	0.378100
1791.000000	0.377938
1792.000000	0.377773
1793.000000	0.377604
1794.000000	0.377452
1795.000000	0.377304
1796.000000	0.377053
1797.000000	0.376932
1798.000000	0.376901
1799.000000	0.376827
1800.000000	0.376846
1801.000000	0.376862
1802.000000	0.376930
1803.000000	0.376781
1804.000000	0.376782
1805.000000	0.376512
1806.000000	0.376353
1807.000000	0.376463
1808.000000	0.376315
1809.000000	0.375681
1810.000000	0.375604
1811.000000	0.375433
1812.000000	0.375020
1813.000000	0.375283
1814.000000	0.376310
1815.000000	0.376598
1816.000000	0.376987
1817.000000	0.377072
1818.000000	0.376775
1819.000000	0.376623
1820.000000	0.376105
1821.000000	0.375813
1822.000000	0.375407
1823.000000	0.374289
1824.000000	0.373953
1825.000000	0.374139
1826.000000	0.374108
1827.000000	0.374085
1828.000000	0.374260
1829.000000	0.374053
1830.000000	0.373802
1831.000000	0.373784
1832.000000	0.373914
1833.000000	0.374023
1834.000000	0.374334
1835.000000	0.374419
1836.000000	0.374213
1837.000000	0.374140
1838.000000	0.373952
1839.000000	0.373844
1840.000000	0.373491
1841.000000	0.372913
1842.000000	0.372514
1843.000000	0.371699
1844.000000	0.371500
1845.000000	0.371576
1846.000000	0.371793
1847.000000	0.372285
1848.000000	0.372498
1849.000000	0.372624
1850.000000	0.372728
1851.000000	0.372561
1852.000000	0.371920
1853.000000	0.371695
1854.000000	0.371142
1855.000000	0.370761
1856.000000	0.370670
1857.000000	0.370118
1858.000000	0.369369
1859.000000	0.369195
1860.000000	0.368449
1861.000000	0.368025
1862.000000	0.367326
1863.000000	0.366481
1864.000000	0.365679
1865.000000	0.364736
1866.000000	0.363987
1867.000000	0.363491
1868.000000	0.362778
1869.000000	0.361582
1870.000000	0.360185
1871.000000	0.358568
1872.000000	0.357165
1873.000000	0.355811
1874.000000	0.354837
1875.000000	0.353406
1876.000000	0.351671
1877.000000	0.349336
1878.000000	0.346780
1879.000000	0.344255
1880.000000	0.341403
1881.000000	0.338581
1882.000000	0.335946
1883.000000	0.332862
1884.000000	0.329711
1885.000000	0.326420
1886.000000	0.322638
1887.000000	0.318297
1888.000000	0.313997
1889.000000	0.309566
1890.000000	0.305166
1891.000000	0.301573
1892.000000	0.297713
1893.000000	0.293559
1894.000000	0.289796
1895.000000	0.286041
1896.000000	0.282136
1897.000000	0.278895
1898.000000	0.276295
1899.000000	0.273852
1900.000000	0.271806
1901.000000	0.269620
1902.000000	0.267486
1903.000000	0.265967
1904.000000	0.264833
1905.000000	0.264154
1906.000000	0.263709
1907.000000	0.263751
1908.000000	0.264009
1909.000000	0.264353
1910.000000	0.264684
1911.000000	0.265603
1912.000000	0.266472
1913.000000	0.267298
1914.000000	0.268688
1915.000000	0.270031
1916.000000	0.271563
1917.000000	0.273059
1918.000000	0.274985
1919.000000	0.276696
1920.000000	0.277853
1921.000000	0.278994
1922.000000	0.279827
1923.000000	0.280969
1924.000000	0.282710
1925.000000	0.284221
1926.000000	0.286006
1927.000000	0.287459
1928.000000	0.288482
1929.000000	0.289084
1930.000000	0.289697
1931.000000	0.290085
1932.000000	0.290813
1933.000000	0.291738
1934.000000	0.292691
1935.000000	0.293977
1936.000000	0.295038
1937.000000	0.296009
1938.000000	0.296789
1939.000000	0.297432
1940.000000	0.297772
1941.000000	0.298418
1942.000000	0.298927
1943.000000	0.299074
1944.000000	0.299433
1945.000000	0.299785
1946.000000	0.300045
1947.000000	0.300518
1948.000000	0.300990
1949.000000	0.301346
1950.000000	0.301794
1951.000000	0.301981
1952.000000	0.302129
1953.000000	0.302295
1954.000000	0.302873
1955.000000	0.303131
1956.000000	0.303641
1957.000000	0.304405
1958.000000	0.304612
1959.000000	0.304788
1960.000000	0.304958
1961.000000	0.305425
1962.000000	0.305857
1963.000000	0.306333
1964.000000	0.306925
1965.000000	0.307735
1966.000000	0.308326
1967.000000	0.309102
1968.000000	0.309696
1969.000000	0.310095
1970.000000	0.310505
1971.000000	0.310641
1972.000000	0.310757
1973.000000	0.311052
1974.000000	0.311827
1975.000000	0.312275
1976.000000	0.312555
1977.000000	0.313295
1978.000000	0.313877
1979.000000	0.314334
1980.000000	0.315491
1981.000000	0.316485
1982.000000	0.317028
1983.000000	0.317494
1984.000000	0.317728
1985.000000	0.317334
1986.000000	0.317464
1987.000000	0.317692
1988.000000	0.318311
1989.000000	0.319120
1990.000000	0.319991
1991.000000	0.320868
1992.000000	0.321560
1993.000000	0.322314
1994.000000	0.323179
1995.000000	0.323707
1996.000000	0.324010
1997.000000	0.324515
1998.000000	0.324959
1999.000000	0.325531
2000.000000	0.326252
2001.000000	0.327178
2002.000000	0.327989
2003.000000	0.328433
2004.000000	0.328466
2005.000000	0.328205
2006.000000	0.328000
2007.000000	0.328062
2008.000000	0.328603
2009.000000	0.329899
2010.000000	0.330767
2011.000000	0.331576
2012.000000	0.332379
2013.000000	0.332974
2014.000000	0.333626
2015.000000	0.334579
2016.000000	0.335393
2017.000000	0.335302
2018.000000	0.335157
2019.000000	0.335079
2020.000000	0.334427
2021.000000	0.334239
2022.000000	0.334196
2023.000000	0.334493
2024.000000	0.335233
2025.000000	0.335814
2026.000000	0.336554
2027.000000	0.337084
2028.000000	0.337478
2029.000000	0.337799
2030.000000	0.338106
2031.000000	0.338577
2032.000000	0.338942
2033.000000	0.339309
2034.000000	0.339714
2035.000000	0.340389
2036.000000	0.340771
2037.000000	0.341149
2038.000000	0.341642
2039.000000	0.342186
2040.000000	0.342930
2041.000000	0.343450
2042.000000	0.343669
2043.000000	0.343917
2044.000000	0.343883
2045.000000	0.343704
2046.000000	0.343889
2047.000000	0.344120
2048.000000	0.344279
2049.000000	0.344604
2050.000000	0.344947
2051.000000	0.344957
2052.000000	0.344422
2053.000000	0.344192
2054.000000	0.344335
2055.000000	0.344358
2056.000000	0.344323
2057.000000	0.344850
2058.000000	0.345014
2059.000000	0.345259
2060.000000	0.345639
2061.000000	0.346387
2062.000000	0.346492
2063.000000	0.346487
2064.000000	0.346258
2065.000000	0.345780
2066.000000	0.345415
2067.000000	0.345203
2068.000000	0.345269
2069.000000	0.345604
2070.000000	0.346090
2071.000000	0.346562
2072.000000	0.347165
2073.000000	0.347310
2074.000000	0.347002
2075.000000	0.346842
2076.000000	0.346443
2077.000000	0.346206
2078.000000	0.345941
2079.000000	0.345817
2080.000000	0.345921
2081.000000	0.345979
2082.000000	0.346040
2083.000000	0.346337
2084.000000	0.346441
2085.000000	0.346396
2086.000000	0.346557
2087.000000	0.346659
2088.000000	0.346399
2089.000000	0.346465
2090.000000	0.346725
2091.000000	0.347008
2092.000000	0.347532
2093.000000	0.348908
2094.000000	0.349358
2095.000000	0.349508
2096.000000	0.349612
2097.000000	0.349213
2098.000000	0.348608
2099.000000	0.348660
2100.000000	0.348795
2101.000000	0.348644
2102.000000	0.348767
2103.000000	0.348912
2104.000000	0.348916
2105.000000	0.349003
2106.000000	0.349448
2107.000000	0.349552
2108.000000	0.349265
2109.000000	0.349236
2110.000000	0.348989
2111.000000	0.348848
2112.000000	0.348590
2113.000000	0.348514
2114.000000	0.348619
2115.000000	0.348622
2116.000000	0.348484
2117.000000	0.348275
2118.000000	0.348402
2119.000000	0.348557
2120.000000	0.348798
2121.000000	0.349628
2122.000000	0.349791
2123.000000	0.349383
2124.000000	0.349455
2125.000000	0.349515
2126.000000	0.349642
2127.000000	0.350114
2128.000000	0.350452
2129.000000	0.350657
2130.000000	0.350883
2131.000000	0.350501
2132.000000	0.350424
2133.000000	0.350830
2134.000000	0.350997
2135.000000	0.351596
2136.000000	0.352447
2137.000000	0.352828
2138.000000	0.353054
2139.000000	0.353101
2140.000000	0.352770
2141.000000	0.352514
2142.000000	0.351805
2143.000000	0.351271
2144.000000	0.351252
2145.000000	0.351088
2146.000000	0.350956
2147.000000	0.351199
2148.000000	0.351329
2149.000000	0.351790
2150.000000	0.352165
2151.000000	0.352611
2152.000000	0.352597
2153.000000	0.351975
2154.000000	0.351782
2155.000000	0.351500
2156.000000	0.351499
2157.000000	0.351843
2158.000000	0.352164
2159.000000	0.352778
2160.000000	0.353248
2161.000000	0.353697
2162.000000	0.354159
2163.000000	0.354667
2164.000000	0.354753
2165.000000	0.354825
2166.000000	0.354297
2167.000000	0.353735
2168.000000	0.352824
2169.000000	0.351804
2170.000000	0.352025
2171.000000	0.351917
2172.000000	0.351958
2173.000000	0.352050
2174.000000	0.352348
2175.000000	0.352190
2176.000000	0.351858
2177.000000	0.351977
2178.000000	0.352186
2179.000000	0.352391
2180.000000	0.352964
2181.000000	0.353384
2182.000000	0.352795
2183.000000	0.352522
2184.000000	0.352540
2185.000000	0.352394
2186.000000	0.351877
2187.000000	0.351359
2188.000000	0.350968
2189.000000	0.350044
2190.000000	0.349344
2191.000000	0.349838
2192.000000	0.349450
2193.000000	0.348887
2194.000000	0.348046
2195.000000	0.345991
2196.000000	0.345758
2197.000000	0.346420
2198.000000	0.346967
2199.000000	0.349805
2200.000000	0.350816
2201.000000	0.350527
2202.000000	0.350322
2203.000000	0.348942
2204.000000	0.347499
2205.000000	0.347168
2206.000000	0.347149
2207.000000	0.348144
2208.000000	0.349599
2209.000000	0.349629
2210.000000	0.350070
2211.000000	0.350473
2212.000000	0.350581
2213.000000	0.350450
2214.000000	0.350262
2215.000000	0.349777
2216.000000	0.348794
2217.000000	0.348168
2218.000000	0.347804
2219.000000	0.347231
2220.000000	0.345875
2221.000000	0.345633
2222.000000	0.346139
2223.000000	0.346121
2224.000000	0.346044
2225.000000	0.347219
2226.000000	0.347522
2227.000000	0.346810
2228.000000	0.347305
2229.000000	0.347267
2230.000000	0.346157
2231.000000	0.346209
2232.000000	0.346887
2233.000000	0.347051
2234.000000	0.347246
2235.000000	0.348189
2236.000000	0.347067
2237.000000	0.343596
2238.000000	0.342159
2239.000000	0.339744
2240.000000	0.339126
2241.000000	0.340974
2242.000000	0.341454
2243.000000	0.342050
2244.000000	0.342283
2245.000000	0.341690
2246.000000	0.341874
2247.000000	0.342419
2248.000000	0.343054
2249.000000	0.344643
2250.000000	0.344972
2251.000000	0.344617
2252.000000	0.343059
2253.000000	0.340910
2254.000000	0.338717
2255.000000	0.338924
2256.000000	0.340139
2257.000000	0.340233
2258.000000	0.341743
2259.000000	0.342399
2260.000000	0.342385
2261.000000	0.342484
2262.000000	0.343476
2263.000000	0.343149
2264.000000	0.341089
2265.000000	0.340753
2266.000000	0.341523
2267.000000	0.340869
2268.000000	0.340433
2269.000000	0.339699
2270.000000	0.337786
2271.000000	0.336159
2272.000000	0.334510
2273.000000	0.333284
2274.000000	0.331670
2275.000000	0.330741
2276.000000	0.331040
2277.000000	0.330543
2278.000000	0.328811
2279.000000	0.326227
2280.000000	0.323722
2281.000000	0.321706
2282.000000	0.320160
2283.000000	0.319512
2284.000000	0.318382
2285.000000	0.316642
2286.000000	0.315611
2287.000000	0.313970
2288.000000	0.312054
2289.000000	0.310440
2290.000000	0.307619
2291.000000	0.306022
2292.000000	0.305438
2293.000000	0.302552
2294.000000	0.301219
2295.000000	0.300509
2296.000000	0.300167
2297.000000	0.300693
2298.000000	0.301160
2299.000000	0.302823
2300.000000	0.302481
2301.000000	0.300681
2302.000000	0.299446
2303.000000	0.297325
2304.000000	0.295121
2305.000000	0.293613
2306.000000	0.291495
2307.000000	0.288246
2308.000000	0.285972
2309.000000	0.283763
2310.000000	0.280965
2311.000000	0.278584
2312.000000	0.276606
2313.000000	0.275416
2314.000000	0.274116
2315.000000	0.274282
2316.000000	0.275821
2317.000000	0.277861
2318.000000	0.281698
2319.000000	0.284933
2320.000000	0.287283
2321.000000	0.290013
2322.000000	0.292013
2323.000000	0.293719
2324.000000	0.295685
2325.000000	0.297571
2326.000000	0.298927
2327.000000	0.300221
2328.000000	0.301019
2329.000000	0.302269
2330.000000	0.303736
2331.000000	0.305385
2332.000000	0.309270
2333.000000	0.311759
2334.000000	0.312170
2335.000000	0.312616
2336.000000	0.310786
2337.000000	0.310138
2338.000000	0.309270
2339.000000	0.309740
2340.000000	0.312297
2341.000000	0.313002
2342.000000	0.312179
2343.000000	0.313202
2344.000000	0.314779
2345.000000	0.315173
2346.000000	0.317225
2347.000000	0.317504
2348.000000	0.315651
2349.000000	0.314310
2350.000000	0.312422
2351.000000	0.311559
2352.000000	0.310544
2353.000000	0.309283
2354.000000	0.309317
2355.000000	0.309757
2356.000000	0.311152
2357.000000	0.310474
2358.000000	0.309498
2359.000000	0.310261
2360.000000	0.309425
2361.000000	0.309893
2362.000000	0.311529
2363.000000	0.312217
2364.000000	0.311638
2365.000000	0.310535
2366.000000	0.309508
2367.000000	0.308066
2368.000000	0.306202
2369.000000	0.304951
2370.000000	0.303595
2371.000000	0.301376
2372.000000	0.301067
2373.000000	0.302227
2374.000000	0.303514
2375.000000	0.303314
2376.000000	0.300396
2377.000000	0.298454
2378.000000	0.295879
2379.000000	0.292784
2380.000000	0.291537
2381.000000	0.289456
2382.000000	0.287021
2383.000000	0.284941
2384.000000	0.283903
2385.000000	0.284594
2386.000000	0.283845
2387.000000	0.281200
2388.000000	0.281697
2389.000000	0.283499
2390.000000	0.285078
2391.000000	0.288549
2392.000000	0.290741
2393.000000	0.290238
2394.000000	0.290372
2395.000000	0.291969
2396.000000	0.290723
2397.000000	0.288473
2398.000000	0.286575
2399.000000	0.282554
2400.000000	0.280190
2401.000000	0.280975
2402.000000	0.281672
2403.000000	0.279989
2404.000000	0.278405
2405.000000	0.279455
2406.000000	0.281656
2407.000000	0.285060
2408.000000	0.290532
2409.000000	0.294292
2410.000000	0.290801
2411.000000	0.285822
2412.000000	0.284617
2413.000000	0.283991
2414.000000	0.288208
2415.000000	0.291857
2416.000000	0.289692
2417.000000	0.289676
2418.000000	0.288194
2419.000000	0.287898
2420.000000	0.292261
2421.000000	0.290601
2422.000000	0.286812
2423.000000	0.288788
2424.000000	0.289699
2425.000000	0.290109
2426.000000	0.292224
2427.000000	0.290850
2428.000000	0.287757
2429.000000	0.285759
2430.000000	0.285861
2431.000000	0.287530
2432.000000	0.290772
2433.000000	0.296861
2434.000000	0.301108
2435.000000	0.296660
2436.000000	0.284781
2437.000000	0.273085
2438.000000	0.264466
2439.000000	0.258382
2440.000000	0.258876
2441.000000	0.260668
2442.000000	0.256329
2443.000000	0.254956
2444.000000	0.260611
2445.000000	0.265548
2446.000000	0.272727
2447.000000	0.278276
2448.000000	0.273269
2449.000000	0.273430
2450.000000	0.274006
2451.000000	0.264869
2452.000000	0.262403
2453.000000	0.257287
2454.000000	0.243190
2455.000000	0.240714
2456.000000	0.240144
2457.000000	0.241898
2458.000000	0.253142
2459.000000	0.250823
2460.000000	0.253829
2461.000000	0.255037
2462.000000	0.241238
2463.000000	0.235605
2464.000000	0.228621
2465.000000	0.225348
2466.000000	0.228657
2467.000000	0.237375
2468.000000	0.249556
2469.000000	0.250098
2470.000000	0.251742
2471.000000	0.250662
2472.000000	0.239418
2473.000000	0.236371
2474.000000	0.234212
2475.000000	0.241092
2476.000000	0.255064
2477.000000	0.263456
2478.000000	0.276732
2479.000000	0.273853
2480.000000	0.263787
2481.000000	0.262652
2482.000000	0.260686
2483.000000	0.261756
2484.000000	0.272669
2485.000000	0.269456
2486.000000	0.258413
2487.000000	0.260749
2488.000000	0.253677
2489.000000	0.257381
2490.000000	0.274331
2491.000000	0.298206
2492.000000	0.299039
2493.000000	0.288925
2494.000000	0.293416
2495.000000	0.290969
2496.000000	0.270383
2497.000000	0.253374
2498.000000	0.238280
2499.000000	0.203333
2500.000000	0.193140
