# Wavelength	SM1200H-80_FV7-20_00002.asd.rts.txt
350.000000	0.351069
351.000000	0.356875
352.000000	0.349670
353.000000	0.343302
354.000000	0.347511
355.000000	0.351370
356.000000	0.354553
357.000000	0.357409
358.000000	0.354605
359.000000	0.353173
360.000000	0.354316
361.000000	0.356823
362.000000	0.358976
363.000000	0.360392
364.000000	0.360505
365.000000	0.361025
366.000000	0.361152
367.000000	0.360962
368.000000	0.362311
369.000000	0.362534
370.000000	0.363025
371.000000	0.365786
372.000000	0.367523
373.000000	0.368519
374.000000	0.369502
375.000000	0.367756
376.000000	0.368158
377.000000	0.370458
378.000000	0.369864
379.000000	0.371083
380.000000	0.372337
381.000000	0.371665
382.000000	0.371950
383.000000	0.372383
384.000000	0.372712
385.000000	0.374179
386.000000	0.375177
387.000000	0.375804
388.000000	0.377585
389.000000	0.377367
390.000000	0.376926
391.000000	0.378854
392.000000	0.379190
393.000000	0.378572
394.000000	0.378330
395.000000	0.380079
396.000000	0.381128
397.000000	0.380809
398.000000	0.381280
399.000000	0.381366
400.000000	0.381654
401.000000	0.383071
402.000000	0.383533
403.000000	0.383606
404.000000	0.384250
405.000000	0.384800
406.000000	0.385162
407.000000	0.385543
408.000000	0.386492
409.000000	0.387013
410.000000	0.387078
411.000000	0.387135
412.000000	0.387300
413.000000	0.387544
414.000000	0.387826
415.000000	0.388144
416.000000	0.388469
417.000000	0.388842
418.000000	0.389525
419.000000	0.389879
420.000000	0.389926
421.000000	0.390220
422.000000	0.390906
423.000000	0.391486
424.000000	0.391501
425.000000	0.391834
426.000000	0.392151
427.000000	0.392223
428.000000	0.392789
429.000000	0.393272
430.000000	0.393498
431.000000	0.393741
432.000000	0.394292
433.000000	0.394893
434.000000	0.395187
435.000000	0.395416
436.000000	0.395553
437.000000	0.395584
438.000000	0.396015
439.000000	0.396294
440.000000	0.396365
441.000000	0.396670
442.000000	0.396884
443.000000	0.396974
444.000000	0.397363
445.000000	0.397622
446.000000	0.397920
447.000000	0.398263
448.000000	0.398621
449.000000	0.398928
450.000000	0.399194
451.000000	0.399586
452.000000	0.399930
453.000000	0.400093
454.000000	0.400327
455.000000	0.400676
456.000000	0.401141
457.000000	0.401411
458.000000	0.401723
459.000000	0.402036
460.000000	0.402350
461.000000	0.402593
462.000000	0.402870
463.000000	0.403024
464.000000	0.403253
465.000000	0.403562
466.000000	0.403874
467.000000	0.404264
468.000000	0.404566
469.000000	0.404673
470.000000	0.404799
471.000000	0.404999
472.000000	0.405160
473.000000	0.405277
474.000000	0.405531
475.000000	0.405573
476.000000	0.405615
477.000000	0.405950
478.000000	0.406089
479.000000	0.406299
480.000000	0.406573
481.000000	0.406803
482.000000	0.407119
483.000000	0.407325
484.000000	0.407694
485.000000	0.407976
486.000000	0.408295
487.000000	0.408514
488.000000	0.408717
489.000000	0.408985
490.000000	0.409370
491.000000	0.409651
492.000000	0.409919
493.000000	0.410130
494.000000	0.410405
495.000000	0.410714
496.000000	0.410974
497.000000	0.411327
498.000000	0.411571
499.000000	0.411805
500.000000	0.412184
501.000000	0.412537
502.000000	0.412883
503.000000	0.413186
504.000000	0.413507
505.000000	0.413819
506.000000	0.414094
507.000000	0.414315
508.000000	0.414596
509.000000	0.414926
510.000000	0.415267
511.000000	0.415583
512.000000	0.415929
513.000000	0.416351
514.000000	0.416670
515.000000	0.416966
516.000000	0.417289
517.000000	0.417608
518.000000	0.417973
519.000000	0.418280
520.000000	0.418537
521.000000	0.418814
522.000000	0.419134
523.000000	0.419423
524.000000	0.419707
525.000000	0.419973
526.000000	0.420269
527.000000	0.420526
528.000000	0.420772
529.000000	0.421116
530.000000	0.421371
531.000000	0.421651
532.000000	0.421904
533.000000	0.422138
534.000000	0.422433
535.000000	0.422779
536.000000	0.423144
537.000000	0.423416
538.000000	0.423629
539.000000	0.423859
540.000000	0.424146
541.000000	0.424451
542.000000	0.424778
543.000000	0.425063
544.000000	0.425410
545.000000	0.425750
546.000000	0.426060
547.000000	0.426338
548.000000	0.426648
549.000000	0.426953
550.000000	0.427269
551.000000	0.427600
552.000000	0.427867
553.000000	0.428085
554.000000	0.428341
555.000000	0.428688
556.000000	0.429038
557.000000	0.429302
558.000000	0.429637
559.000000	0.429947
560.000000	0.430216
561.000000	0.430571
562.000000	0.430974
563.000000	0.431338
564.000000	0.431707
565.000000	0.431980
566.000000	0.432249
567.000000	0.432536
568.000000	0.432820
569.000000	0.433112
570.000000	0.433404
571.000000	0.433685
572.000000	0.433984
573.000000	0.434320
574.000000	0.434628
575.000000	0.434906
576.000000	0.435192
577.000000	0.435484
578.000000	0.435854
579.000000	0.436194
580.000000	0.436528
581.000000	0.436853
582.000000	0.437130
583.000000	0.437379
584.000000	0.437630
585.000000	0.437926
586.000000	0.438258
587.000000	0.438544
588.000000	0.438723
589.000000	0.438977
590.000000	0.439212
591.000000	0.439386
592.000000	0.439649
593.000000	0.439924
594.000000	0.440187
595.000000	0.440470
596.000000	0.440687
597.000000	0.440917
598.000000	0.441142
599.000000	0.441302
600.000000	0.441487
601.000000	0.441651
602.000000	0.441779
603.000000	0.441893
604.000000	0.442016
605.000000	0.442099
606.000000	0.442214
607.000000	0.442357
608.000000	0.442476
609.000000	0.442622
610.000000	0.442804
611.000000	0.443012
612.000000	0.443180
613.000000	0.443348
614.000000	0.443583
615.000000	0.443779
616.000000	0.443927
617.000000	0.444001
618.000000	0.444116
619.000000	0.444275
620.000000	0.444438
621.000000	0.444639
622.000000	0.444874
623.000000	0.445117
624.000000	0.445338
625.000000	0.445501
626.000000	0.445672
627.000000	0.445882
628.000000	0.446092
629.000000	0.446388
630.000000	0.446592
631.000000	0.446818
632.000000	0.447043
633.000000	0.447255
634.000000	0.447405
635.000000	0.447407
636.000000	0.447363
637.000000	0.447319
638.000000	0.447268
639.000000	0.447274
640.000000	0.447387
641.000000	0.447407
642.000000	0.447430
643.000000	0.447526
644.000000	0.447731
645.000000	0.447808
646.000000	0.447894
647.000000	0.448055
648.000000	0.448186
649.000000	0.448297
650.000000	0.448379
651.000000	0.448496
652.000000	0.448615
653.000000	0.448766
654.000000	0.448875
655.000000	0.448978
656.000000	0.449108
657.000000	0.449215
658.000000	0.449404
659.000000	0.449629
660.000000	0.449820
661.000000	0.449949
662.000000	0.450033
663.000000	0.450165
664.000000	0.450323
665.000000	0.450517
666.000000	0.450702
667.000000	0.450801
668.000000	0.450954
669.000000	0.451105
670.000000	0.451224
671.000000	0.451335
672.000000	0.451483
673.000000	0.451651
674.000000	0.451796
675.000000	0.451876
676.000000	0.451957
677.000000	0.452145
678.000000	0.452316
679.000000	0.452475
680.000000	0.452641
681.000000	0.452760
682.000000	0.452920
683.000000	0.453026
684.000000	0.453142
685.000000	0.453252
686.000000	0.453377
687.000000	0.453468
688.000000	0.453548
689.000000	0.453642
690.000000	0.453798
691.000000	0.453924
692.000000	0.454035
693.000000	0.454222
694.000000	0.454400
695.000000	0.454562
696.000000	0.454721
697.000000	0.454895
698.000000	0.454988
699.000000	0.455080
700.000000	0.455252
701.000000	0.455420
702.000000	0.455601
703.000000	0.455746
704.000000	0.455783
705.000000	0.455865
706.000000	0.455939
707.000000	0.456010
708.000000	0.456119
709.000000	0.456220
710.000000	0.456307
711.000000	0.456413
712.000000	0.456613
713.000000	0.456890
714.000000	0.456996
715.000000	0.457093
716.000000	0.457233
717.000000	0.457384
718.000000	0.457496
719.000000	0.457560
720.000000	0.457617
721.000000	0.457747
722.000000	0.457846
723.000000	0.457953
724.000000	0.458023
725.000000	0.458050
726.000000	0.458137
727.000000	0.458188
728.000000	0.458272
729.000000	0.458399
730.000000	0.458493
731.000000	0.458609
732.000000	0.458718
733.000000	0.458839
734.000000	0.458871
735.000000	0.458881
736.000000	0.459042
737.000000	0.459183
738.000000	0.459276
739.000000	0.459459
740.000000	0.459576
741.000000	0.459701
742.000000	0.459829
743.000000	0.459898
744.000000	0.459907
745.000000	0.459901
746.000000	0.459948
747.000000	0.459964
748.000000	0.459989
749.000000	0.460075
750.000000	0.460177
751.000000	0.460215
752.000000	0.460218
753.000000	0.460240
754.000000	0.460318
755.000000	0.460450
756.000000	0.460617
757.000000	0.460727
758.000000	0.460822
759.000000	0.460914
760.000000	0.460924
761.000000	0.460990
762.000000	0.461091
763.000000	0.461193
764.000000	0.461359
765.000000	0.461450
766.000000	0.461516
767.000000	0.461609
768.000000	0.461692
769.000000	0.461744
770.000000	0.461787
771.000000	0.461883
772.000000	0.462012
773.000000	0.462061
774.000000	0.462090
775.000000	0.462117
776.000000	0.462139
777.000000	0.462125
778.000000	0.462078
779.000000	0.462040
780.000000	0.462028
781.000000	0.461998
782.000000	0.461993
783.000000	0.462119
784.000000	0.462199
785.000000	0.462251
786.000000	0.462259
787.000000	0.462219
788.000000	0.462163
789.000000	0.462098
790.000000	0.462039
791.000000	0.462067
792.000000	0.462088
793.000000	0.462099
794.000000	0.462135
795.000000	0.462284
796.000000	0.462370
797.000000	0.462352
798.000000	0.462347
799.000000	0.462309
800.000000	0.462299
801.000000	0.462379
802.000000	0.462356
803.000000	0.462280
804.000000	0.462254
805.000000	0.462268
806.000000	0.462212
807.000000	0.462191
808.000000	0.462187
809.000000	0.462238
810.000000	0.462305
811.000000	0.462336
812.000000	0.462380
813.000000	0.462368
814.000000	0.462309
815.000000	0.462320
816.000000	0.462320
817.000000	0.462321
818.000000	0.462219
819.000000	0.462095
820.000000	0.462035
821.000000	0.462003
822.000000	0.462025
823.000000	0.462050
824.000000	0.462008
825.000000	0.462001
826.000000	0.461945
827.000000	0.461842
828.000000	0.461779
829.000000	0.461751
830.000000	0.461729
831.000000	0.461760
832.000000	0.461694
833.000000	0.461716
834.000000	0.461787
835.000000	0.461858
836.000000	0.461751
837.000000	0.461585
838.000000	0.461479
839.000000	0.461478
840.000000	0.461511
841.000000	0.461570
842.000000	0.461590
843.000000	0.461560
844.000000	0.461514
845.000000	0.461398
846.000000	0.461176
847.000000	0.461013
848.000000	0.460915
849.000000	0.460884
850.000000	0.460841
851.000000	0.460723
852.000000	0.460612
853.000000	0.460612
854.000000	0.460580
855.000000	0.460635
856.000000	0.460663
857.000000	0.460584
858.000000	0.460547
859.000000	0.460512
860.000000	0.460472
861.000000	0.460483
862.000000	0.460486
863.000000	0.460291
864.000000	0.460079
865.000000	0.459952
866.000000	0.459933
867.000000	0.459790
868.000000	0.459752
869.000000	0.459703
870.000000	0.459580
871.000000	0.459463
872.000000	0.459331
873.000000	0.459102
874.000000	0.458907
875.000000	0.458659
876.000000	0.458450
877.000000	0.458317
878.000000	0.458121
879.000000	0.458009
880.000000	0.457856
881.000000	0.457725
882.000000	0.457567
883.000000	0.457439
884.000000	0.457328
885.000000	0.457242
886.000000	0.457104
887.000000	0.456930
888.000000	0.456782
889.000000	0.456587
890.000000	0.456223
891.000000	0.455915
892.000000	0.455740
893.000000	0.455572
894.000000	0.455476
895.000000	0.455261
896.000000	0.455098
897.000000	0.455001
898.000000	0.454914
899.000000	0.454743
900.000000	0.454567
901.000000	0.454401
902.000000	0.454361
903.000000	0.454225
904.000000	0.453998
905.000000	0.453633
906.000000	0.453471
907.000000	0.453290
908.000000	0.453115
909.000000	0.452990
910.000000	0.452826
911.000000	0.452650
912.000000	0.452519
913.000000	0.452371
914.000000	0.452168
915.000000	0.452026
916.000000	0.451921
917.000000	0.451695
918.000000	0.451416
919.000000	0.451120
920.000000	0.450777
921.000000	0.450336
922.000000	0.449947
923.000000	0.449774
924.000000	0.449533
925.000000	0.449276
926.000000	0.449065
927.000000	0.448727
928.000000	0.448527
929.000000	0.448400
930.000000	0.448199
931.000000	0.447992
932.000000	0.447798
933.000000	0.447629
934.000000	0.447337
935.000000	0.446981
936.000000	0.446752
937.000000	0.446605
938.000000	0.446387
939.000000	0.446095
940.000000	0.445700
941.000000	0.445380
942.000000	0.444808
943.000000	0.444300
944.000000	0.443865
945.000000	0.443461
946.000000	0.442907
947.000000	0.442480
948.000000	0.442373
949.000000	0.442163
950.000000	0.442106
951.000000	0.442129
952.000000	0.442007
953.000000	0.441881
954.000000	0.441744
955.000000	0.441492
956.000000	0.441263
957.000000	0.441175
958.000000	0.441054
959.000000	0.440834
960.000000	0.440705
961.000000	0.440443
962.000000	0.440058
963.000000	0.439930
964.000000	0.439785
965.000000	0.439641
966.000000	0.439386
967.000000	0.439128
968.000000	0.438855
969.000000	0.438498
970.000000	0.438194
971.000000	0.438208
972.000000	0.438171
973.000000	0.437902
974.000000	0.437785
975.000000	0.437378
976.000000	0.437031
977.000000	0.436997
978.000000	0.436818
979.000000	0.436689
980.000000	0.436361
981.000000	0.436124
982.000000	0.435818
983.000000	0.435505
984.000000	0.435329
985.000000	0.435264
986.000000	0.435205
987.000000	0.435218
988.000000	0.435124
989.000000	0.434719
990.000000	0.434371
991.000000	0.434119
992.000000	0.433962
993.000000	0.433935
994.000000	0.433787
995.000000	0.433720
996.000000	0.433681
997.000000	0.433729
998.000000	0.433669
999.000000	0.433563
1000.000000	0.433518
1001.000000	0.434457
1002.000000	0.433526
1003.000000	0.432767
1004.000000	0.432380
1005.000000	0.432185
1006.000000	0.431866
1007.000000	0.431906
1008.000000	0.431863
1009.000000	0.431501
1010.000000	0.431134
1011.000000	0.431552
1012.000000	0.431947
1013.000000	0.431753
1014.000000	0.431227
1015.000000	0.430674
1016.000000	0.430659
1017.000000	0.430700
1018.000000	0.431096
1019.000000	0.431335
1020.000000	0.431830
1021.000000	0.431278
1022.000000	0.430292
1023.000000	0.430329
1024.000000	0.430131
1025.000000	0.430297
1026.000000	0.430948
1027.000000	0.430943
1028.000000	0.430647
1029.000000	0.430556
1030.000000	0.430525
1031.000000	0.430577
1032.000000	0.430638
1033.000000	0.430463
1034.000000	0.430413
1035.000000	0.430509
1036.000000	0.430601
1037.000000	0.430615
1038.000000	0.430570
1039.000000	0.430764
1040.000000	0.430928
1041.000000	0.430519
1042.000000	0.430534
1043.000000	0.430709
1044.000000	0.430720
1045.000000	0.430973
1046.000000	0.431144
1047.000000	0.431310
1048.000000	0.431317
1049.000000	0.431282
1050.000000	0.431232
1051.000000	0.431269
1052.000000	0.431096
1053.000000	0.431000
1054.000000	0.431481
1055.000000	0.431710
1056.000000	0.431747
1057.000000	0.431984
1058.000000	0.432276
1059.000000	0.431778
1060.000000	0.431937
1061.000000	0.432564
1062.000000	0.432714
1063.000000	0.433128
1064.000000	0.433402
1065.000000	0.433219
1066.000000	0.433463
1067.000000	0.434040
1068.000000	0.434315
1069.000000	0.434504
1070.000000	0.434721
1071.000000	0.434972
1072.000000	0.435090
1073.000000	0.435221
1074.000000	0.435422
1075.000000	0.435314
1076.000000	0.435288
1077.000000	0.435507
1078.000000	0.435830
1079.000000	0.436087
1080.000000	0.436593
1081.000000	0.436743
1082.000000	0.436825
1083.000000	0.436880
1084.000000	0.436750
1085.000000	0.436905
1086.000000	0.437117
1087.000000	0.437337
1088.000000	0.437572
1089.000000	0.437803
1090.000000	0.437991
1091.000000	0.438165
1092.000000	0.438280
1093.000000	0.438745
1094.000000	0.439033
1095.000000	0.439137
1096.000000	0.439475
1097.000000	0.440068
1098.000000	0.440287
1099.000000	0.440300
1100.000000	0.440534
1101.000000	0.440585
1102.000000	0.440661
1103.000000	0.440813
1104.000000	0.441045
1105.000000	0.441308
1106.000000	0.441431
1107.000000	0.441446
1108.000000	0.441575
1109.000000	0.441704
1110.000000	0.441768
1111.000000	0.442035
1112.000000	0.442658
1113.000000	0.442890
1114.000000	0.443014
1115.000000	0.443121
1116.000000	0.443042
1117.000000	0.443126
1118.000000	0.443237
1119.000000	0.443305
1120.000000	0.443430
1121.000000	0.443507
1122.000000	0.443603
1123.000000	0.444020
1124.000000	0.444341
1125.000000	0.444594
1126.000000	0.444842
1127.000000	0.444969
1128.000000	0.444997
1129.000000	0.444911
1130.000000	0.444889
1131.000000	0.444854
1132.000000	0.444791
1133.000000	0.444756
1134.000000	0.444773
1135.000000	0.444775
1136.000000	0.444704
1137.000000	0.444560
1138.000000	0.444480
1139.000000	0.444524
1140.000000	0.444592
1141.000000	0.444647
1142.000000	0.444728
1143.000000	0.444650
1144.000000	0.444817
1145.000000	0.444945
1146.000000	0.444930
1147.000000	0.444977
1148.000000	0.444947
1149.000000	0.444893
1150.000000	0.444790
1151.000000	0.444824
1152.000000	0.444785
1153.000000	0.444826
1154.000000	0.444958
1155.000000	0.445000
1156.000000	0.444979
1157.000000	0.445046
1158.000000	0.445099
1159.000000	0.445118
1160.000000	0.445092
1161.000000	0.445131
1162.000000	0.445253
1163.000000	0.445566
1164.000000	0.445620
1165.000000	0.445650
1166.000000	0.445707
1167.000000	0.445541
1168.000000	0.445527
1169.000000	0.445679
1170.000000	0.445789
1171.000000	0.445980
1172.000000	0.446107
1173.000000	0.446182
1174.000000	0.446250
1175.000000	0.446188
1176.000000	0.446180
1177.000000	0.446355
1178.000000	0.446432
1179.000000	0.446480
1180.000000	0.446439
1181.000000	0.446458
1182.000000	0.446368
1183.000000	0.446431
1184.000000	0.446604
1185.000000	0.446646
1186.000000	0.446708
1187.000000	0.446710
1188.000000	0.446572
1189.000000	0.446529
1190.000000	0.446641
1191.000000	0.446644
1192.000000	0.446742
1193.000000	0.446921
1194.000000	0.446918
1195.000000	0.446960
1196.000000	0.447037
1197.000000	0.447021
1198.000000	0.446930
1199.000000	0.446906
1200.000000	0.446894
1201.000000	0.446785
1202.000000	0.446712
1203.000000	0.446708
1204.000000	0.446659
1205.000000	0.446621
1206.000000	0.446528
1207.000000	0.446555
1208.000000	0.446512
1209.000000	0.446474
1210.000000	0.446502
1211.000000	0.446592
1212.000000	0.446626
1213.000000	0.446746
1214.000000	0.446810
1215.000000	0.446766
1216.000000	0.446801
1217.000000	0.446804
1218.000000	0.446793
1219.000000	0.446850
1220.000000	0.446948
1221.000000	0.446966
1222.000000	0.447001
1223.000000	0.447024
1224.000000	0.447033
1225.000000	0.446983
1226.000000	0.446992
1227.000000	0.447055
1228.000000	0.447062
1229.000000	0.446974
1230.000000	0.446822
1231.000000	0.446635
1232.000000	0.446464
1233.000000	0.446510
1234.000000	0.446655
1235.000000	0.446663
1236.000000	0.446553
1237.000000	0.446578
1238.000000	0.446519
1239.000000	0.446494
1240.000000	0.446572
1241.000000	0.446611
1242.000000	0.446559
1243.000000	0.446568
1244.000000	0.446586
1245.000000	0.446627
1246.000000	0.446637
1247.000000	0.446673
1248.000000	0.446734
1249.000000	0.446795
1250.000000	0.446782
1251.000000	0.446795
1252.000000	0.446750
1253.000000	0.446687
1254.000000	0.446601
1255.000000	0.446464
1256.000000	0.446356
1257.000000	0.446254
1258.000000	0.446245
1259.000000	0.446214
1260.000000	0.446254
1261.000000	0.446319
1262.000000	0.446298
1263.000000	0.446304
1264.000000	0.446176
1265.000000	0.446133
1266.000000	0.446089
1267.000000	0.445994
1268.000000	0.445915
1269.000000	0.445737
1270.000000	0.445600
1271.000000	0.445520
1272.000000	0.445521
1273.000000	0.445565
1274.000000	0.445544
1275.000000	0.445502
1276.000000	0.445445
1277.000000	0.445558
1278.000000	0.445611
1279.000000	0.445648
1280.000000	0.445690
1281.000000	0.445677
1282.000000	0.445657
1283.000000	0.445739
1284.000000	0.445805
1285.000000	0.445852
1286.000000	0.445856
1287.000000	0.445850
1288.000000	0.445962
1289.000000	0.445893
1290.000000	0.445683
1291.000000	0.445579
1292.000000	0.445440
1293.000000	0.445242
1294.000000	0.445145
1295.000000	0.445146
1296.000000	0.444975
1297.000000	0.444816
1298.000000	0.444927
1299.000000	0.444976
1300.000000	0.445048
1301.000000	0.445188
1302.000000	0.445127
1303.000000	0.444983
1304.000000	0.444874
1305.000000	0.444900
1306.000000	0.444834
1307.000000	0.444801
1308.000000	0.444774
1309.000000	0.444709
1310.000000	0.444622
1311.000000	0.444569
1312.000000	0.444447
1313.000000	0.444382
1314.000000	0.444221
1315.000000	0.443973
1316.000000	0.443883
1317.000000	0.443762
1318.000000	0.443685
1319.000000	0.443658
1320.000000	0.443682
1321.000000	0.443627
1322.000000	0.443447
1323.000000	0.443288
1324.000000	0.443176
1325.000000	0.443020
1326.000000	0.442784
1327.000000	0.442617
1328.000000	0.442604
1329.000000	0.442415
1330.000000	0.442215
1331.000000	0.442057
1332.000000	0.441875
1333.000000	0.441679
1334.000000	0.441652
1335.000000	0.441581
1336.000000	0.441384
1337.000000	0.441276
1338.000000	0.441179
1339.000000	0.441006
1340.000000	0.440816
1341.000000	0.440735
1342.000000	0.440655
1343.000000	0.440548
1344.000000	0.440469
1345.000000	0.440455
1346.000000	0.440482
1347.000000	0.440265
1348.000000	0.440092
1349.000000	0.439859
1350.000000	0.439633
1351.000000	0.439487
1352.000000	0.439355
1353.000000	0.439108
1354.000000	0.438897
1355.000000	0.438754
1356.000000	0.438699
1357.000000	0.438633
1358.000000	0.438466
1359.000000	0.438228
1360.000000	0.437984
1361.000000	0.437696
1362.000000	0.437419
1363.000000	0.437116
1364.000000	0.436868
1365.000000	0.436627
1366.000000	0.436340
1367.000000	0.436066
1368.000000	0.435725
1369.000000	0.435410
1370.000000	0.434844
1371.000000	0.434157
1372.000000	0.433355
1373.000000	0.432381
1374.000000	0.431383
1375.000000	0.430254
1376.000000	0.429026
1377.000000	0.427578
1378.000000	0.425590
1379.000000	0.423165
1380.000000	0.420392
1381.000000	0.417063
1382.000000	0.413464
1383.000000	0.409658
1384.000000	0.405520
1385.000000	0.401468
1386.000000	0.397722
1387.000000	0.394350
1388.000000	0.391559
1389.000000	0.389413
1390.000000	0.387934
1391.000000	0.387142
1392.000000	0.387024
1393.000000	0.387267
1394.000000	0.388300
1395.000000	0.389225
1396.000000	0.390624
1397.000000	0.391575
1398.000000	0.392558
1399.000000	0.393125
1400.000000	0.393406
1401.000000	0.393424
1402.000000	0.393216
1403.000000	0.392767
1404.000000	0.392296
1405.000000	0.391707
1406.000000	0.391020
1407.000000	0.390376
1408.000000	0.389559
1409.000000	0.388869
1410.000000	0.388473
1411.000000	0.388127
1412.000000	0.387964
1413.000000	0.388013
1414.000000	0.388106
1415.000000	0.388233
1416.000000	0.388414
1417.000000	0.388667
1418.000000	0.388915
1419.000000	0.389412
1420.000000	0.389943
1421.000000	0.390563
1422.000000	0.391307
1423.000000	0.392038
1424.000000	0.392568
1425.000000	0.393190
1426.000000	0.393748
1427.000000	0.394313
1428.000000	0.395065
1429.000000	0.395768
1430.000000	0.396478
1431.000000	0.397170
1432.000000	0.397762
1433.000000	0.398308
1434.000000	0.398873
1435.000000	0.399502
1436.000000	0.400088
1437.000000	0.400676
1438.000000	0.401153
1439.000000	0.401622
1440.000000	0.402051
1441.000000	0.402464
1442.000000	0.402864
1443.000000	0.403160
1444.000000	0.403405
1445.000000	0.403668
1446.000000	0.403875
1447.000000	0.404084
1448.000000	0.404296
1449.000000	0.404464
1450.000000	0.404586
1451.000000	0.404705
1452.000000	0.404745
1453.000000	0.404738
1454.000000	0.404763
1455.000000	0.404784
1456.000000	0.404869
1457.000000	0.405022
1458.000000	0.405133
1459.000000	0.405261
1460.000000	0.405382
1461.000000	0.405425
1462.000000	0.405548
1463.000000	0.405694
1464.000000	0.405884
1465.000000	0.406253
1466.000000	0.406642
1467.000000	0.407076
1468.000000	0.407576
1469.000000	0.408089
1470.000000	0.408534
1471.000000	0.409019
1472.000000	0.409514
1473.000000	0.410150
1474.000000	0.410674
1475.000000	0.411125
1476.000000	0.411645
1477.000000	0.412109
1478.000000	0.412542
1479.000000	0.412983
1480.000000	0.413410
1481.000000	0.413728
1482.000000	0.413965
1483.000000	0.414291
1484.000000	0.414604
1485.000000	0.414916
1486.000000	0.415246
1487.000000	0.415600
1488.000000	0.415959
1489.000000	0.416350
1490.000000	0.416666
1491.000000	0.416978
1492.000000	0.417211
1493.000000	0.417492
1494.000000	0.417676
1495.000000	0.417939
1496.000000	0.418300
1497.000000	0.418587
1498.000000	0.418906
1499.000000	0.419152
1500.000000	0.419359
1501.000000	0.419561
1502.000000	0.419727
1503.000000	0.420006
1504.000000	0.420351
1505.000000	0.420633
1506.000000	0.420982
1507.000000	0.421283
1508.000000	0.421549
1509.000000	0.421762
1510.000000	0.421896
1511.000000	0.422104
1512.000000	0.422252
1513.000000	0.422417
1514.000000	0.422686
1515.000000	0.422854
1516.000000	0.423098
1517.000000	0.423341
1518.000000	0.423513
1519.000000	0.423598
1520.000000	0.423663
1521.000000	0.423657
1522.000000	0.423715
1523.000000	0.423939
1524.000000	0.424055
1525.000000	0.424200
1526.000000	0.424358
1527.000000	0.424398
1528.000000	0.424550
1529.000000	0.424724
1530.000000	0.424725
1531.000000	0.424891
1532.000000	0.425132
1533.000000	0.425243
1534.000000	0.425464
1535.000000	0.425706
1536.000000	0.425772
1537.000000	0.426026
1538.000000	0.426270
1539.000000	0.426359
1540.000000	0.426583
1541.000000	0.426792
1542.000000	0.426945
1543.000000	0.427142
1544.000000	0.427261
1545.000000	0.427386
1546.000000	0.427547
1547.000000	0.427697
1548.000000	0.427883
1549.000000	0.428017
1550.000000	0.428050
1551.000000	0.428165
1552.000000	0.428351
1553.000000	0.428484
1554.000000	0.428647
1555.000000	0.428872
1556.000000	0.429040
1557.000000	0.429132
1558.000000	0.429292
1559.000000	0.429436
1560.000000	0.429486
1561.000000	0.429563
1562.000000	0.429581
1563.000000	0.429560
1564.000000	0.429600
1565.000000	0.429647
1566.000000	0.429581
1567.000000	0.429612
1568.000000	0.429624
1569.000000	0.429673
1570.000000	0.429709
1571.000000	0.429719
1572.000000	0.429761
1573.000000	0.429834
1574.000000	0.429889
1575.000000	0.430001
1576.000000	0.430114
1577.000000	0.430165
1578.000000	0.430210
1579.000000	0.430402
1580.000000	0.430457
1581.000000	0.430507
1582.000000	0.430552
1583.000000	0.430517
1584.000000	0.430515
1585.000000	0.430663
1586.000000	0.430757
1587.000000	0.430866
1588.000000	0.430873
1589.000000	0.430778
1590.000000	0.430796
1591.000000	0.430845
1592.000000	0.430905
1593.000000	0.431126
1594.000000	0.431177
1595.000000	0.431183
1596.000000	0.431229
1597.000000	0.431263
1598.000000	0.431293
1599.000000	0.431390
1600.000000	0.431401
1601.000000	0.431476
1602.000000	0.431545
1603.000000	0.431617
1604.000000	0.431684
1605.000000	0.431806
1606.000000	0.431855
1607.000000	0.431956
1608.000000	0.431995
1609.000000	0.432047
1610.000000	0.432026
1611.000000	0.431972
1612.000000	0.431928
1613.000000	0.431971
1614.000000	0.431947
1615.000000	0.431997
1616.000000	0.432035
1617.000000	0.431977
1618.000000	0.431938
1619.000000	0.431895
1620.000000	0.431794
1621.000000	0.431636
1622.000000	0.431664
1623.000000	0.431715
1624.000000	0.431743
1625.000000	0.431669
1626.000000	0.431594
1627.000000	0.431498
1628.000000	0.431473
1629.000000	0.431486
1630.000000	0.431562
1631.000000	0.431571
1632.000000	0.431587
1633.000000	0.431758
1634.000000	0.431750
1635.000000	0.431662
1636.000000	0.431597
1637.000000	0.431460
1638.000000	0.431366
1639.000000	0.431431
1640.000000	0.431370
1641.000000	0.431293
1642.000000	0.431317
1643.000000	0.431378
1644.000000	0.431461
1645.000000	0.431713
1646.000000	0.431709
1647.000000	0.431594
1648.000000	0.431501
1649.000000	0.431417
1650.000000	0.431431
1651.000000	0.431606
1652.000000	0.431689
1653.000000	0.431679
1654.000000	0.431704
1655.000000	0.431624
1656.000000	0.431476
1657.000000	0.431405
1658.000000	0.431348
1659.000000	0.431389
1660.000000	0.431436
1661.000000	0.431405
1662.000000	0.431428
1663.000000	0.431430
1664.000000	0.431413
1665.000000	0.431424
1666.000000	0.431534
1667.000000	0.431522
1668.000000	0.431562
1669.000000	0.431662
1670.000000	0.431643
1671.000000	0.431706
1672.000000	0.431798
1673.000000	0.431866
1674.000000	0.431917
1675.000000	0.431957
1676.000000	0.431942
1677.000000	0.431894
1678.000000	0.431849
1679.000000	0.431747
1680.000000	0.431628
1681.000000	0.431640
1682.000000	0.431768
1683.000000	0.431909
1684.000000	0.431927
1685.000000	0.431934
1686.000000	0.431842
1687.000000	0.431773
1688.000000	0.431850
1689.000000	0.431912
1690.000000	0.431860
1691.000000	0.431901
1692.000000	0.431827
1693.000000	0.431751
1694.000000	0.431700
1695.000000	0.431682
1696.000000	0.431652
1697.000000	0.431516
1698.000000	0.431454
1699.000000	0.431332
1700.000000	0.430998
1701.000000	0.430959
1702.000000	0.430816
1703.000000	0.430642
1704.000000	0.430734
1705.000000	0.430742
1706.000000	0.430722
1707.000000	0.430714
1708.000000	0.430688
1709.000000	0.430590
1710.000000	0.430575
1711.000000	0.430542
1712.000000	0.430526
1713.000000	0.430471
1714.000000	0.430413
1715.000000	0.430405
1716.000000	0.430449
1717.000000	0.430439
1718.000000	0.430400
1719.000000	0.430327
1720.000000	0.430317
1721.000000	0.430192
1722.000000	0.429978
1723.000000	0.429838
1724.000000	0.429643
1725.000000	0.429572
1726.000000	0.429519
1727.000000	0.429443
1728.000000	0.429310
1729.000000	0.429120
1730.000000	0.429082
1731.000000	0.428999
1732.000000	0.428928
1733.000000	0.428865
1734.000000	0.428557
1735.000000	0.428478
1736.000000	0.428430
1737.000000	0.428368
1738.000000	0.428451
1739.000000	0.428449
1740.000000	0.428337
1741.000000	0.428290
1742.000000	0.428303
1743.000000	0.428369
1744.000000	0.428430
1745.000000	0.428429
1746.000000	0.428452
1747.000000	0.428413
1748.000000	0.428277
1749.000000	0.428074
1750.000000	0.427900
1751.000000	0.427893
1752.000000	0.427917
1753.000000	0.427819
1754.000000	0.427715
1755.000000	0.427445
1756.000000	0.427253
1757.000000	0.427119
1758.000000	0.427000
1759.000000	0.426886
1760.000000	0.426786
1761.000000	0.426642
1762.000000	0.426519
1763.000000	0.426486
1764.000000	0.426375
1765.000000	0.426140
1766.000000	0.426033
1767.000000	0.425828
1768.000000	0.425650
1769.000000	0.425677
1770.000000	0.425722
1771.000000	0.425750
1772.000000	0.425704
1773.000000	0.425593
1774.000000	0.425529
1775.000000	0.425503
1776.000000	0.425428
1777.000000	0.425363
1778.000000	0.425211
1779.000000	0.424874
1780.000000	0.424774
1781.000000	0.424729
1782.000000	0.424636
1783.000000	0.424702
1784.000000	0.424573
1785.000000	0.424371
1786.000000	0.424206
1787.000000	0.424224
1788.000000	0.424258
1789.000000	0.424149
1790.000000	0.424011
1791.000000	0.423856
1792.000000	0.423760
1793.000000	0.423710
1794.000000	0.423835
1795.000000	0.423821
1796.000000	0.423680
1797.000000	0.423597
1798.000000	0.423388
1799.000000	0.423299
1800.000000	0.423437
1801.000000	0.422755
1802.000000	0.423192
1803.000000	0.424176
1804.000000	0.424572
1805.000000	0.425215
1806.000000	0.425260
1807.000000	0.424569
1808.000000	0.424260
1809.000000	0.423688
1810.000000	0.423408
1811.000000	0.423190
1812.000000	0.423220
1813.000000	0.423138
1814.000000	0.423049
1815.000000	0.423107
1816.000000	0.423464
1817.000000	0.423287
1818.000000	0.422763
1819.000000	0.422816
1820.000000	0.423104
1821.000000	0.422808
1822.000000	0.422959
1823.000000	0.423793
1824.000000	0.423721
1825.000000	0.422901
1826.000000	0.422873
1827.000000	0.423091
1828.000000	0.422554
1829.000000	0.422561
1830.000000	0.422167
1831.000000	0.422040
1832.000000	0.421731
1833.000000	0.421659
1834.000000	0.422192
1835.000000	0.422020
1836.000000	0.421040
1837.000000	0.420535
1838.000000	0.419739
1839.000000	0.419207
1840.000000	0.419230
1841.000000	0.419263
1842.000000	0.419158
1843.000000	0.419017
1844.000000	0.419008
1845.000000	0.418749
1846.000000	0.418861
1847.000000	0.419079
1848.000000	0.419205
1849.000000	0.419667
1850.000000	0.419640
1851.000000	0.419464
1852.000000	0.418954
1853.000000	0.418630
1854.000000	0.417920
1855.000000	0.417228
1856.000000	0.416470
1857.000000	0.415709
1858.000000	0.414620
1859.000000	0.413765
1860.000000	0.412919
1861.000000	0.411920
1862.000000	0.410761
1863.000000	0.409298
1864.000000	0.408300
1865.000000	0.407611
1866.000000	0.406717
1867.000000	0.406048
1868.000000	0.405155
1869.000000	0.404043
1870.000000	0.401994
1871.000000	0.399570
1872.000000	0.397516
1873.000000	0.395317
1874.000000	0.392809
1875.000000	0.390389
1876.000000	0.387994
1877.000000	0.384877
1878.000000	0.381574
1879.000000	0.377802
1880.000000	0.373661
1881.000000	0.369633
1882.000000	0.365357
1883.000000	0.361016
1884.000000	0.356706
1885.000000	0.352381
1886.000000	0.347476
1887.000000	0.342166
1888.000000	0.336805
1889.000000	0.331228
1890.000000	0.325603
1891.000000	0.320371
1892.000000	0.315044
1893.000000	0.309655
1894.000000	0.304770
1895.000000	0.299875
1896.000000	0.295302
1897.000000	0.290745
1898.000000	0.286373
1899.000000	0.282581
1900.000000	0.279191
1901.000000	0.276247
1902.000000	0.274201
1903.000000	0.272734
1904.000000	0.271458
1905.000000	0.270714
1906.000000	0.270083
1907.000000	0.269739
1908.000000	0.269372
1909.000000	0.269367
1910.000000	0.269895
1911.000000	0.270869
1912.000000	0.272172
1913.000000	0.273912
1914.000000	0.275694
1915.000000	0.277457
1916.000000	0.279251
1917.000000	0.281066
1918.000000	0.283073
1919.000000	0.285289
1920.000000	0.287038
1921.000000	0.288853
1922.000000	0.290833
1923.000000	0.292440
1924.000000	0.293956
1925.000000	0.295366
1926.000000	0.296423
1927.000000	0.297599
1928.000000	0.298897
1929.000000	0.300403
1930.000000	0.302052
1931.000000	0.303621
1932.000000	0.304815
1933.000000	0.306072
1934.000000	0.307215
1935.000000	0.308150
1936.000000	0.309382
1937.000000	0.310252
1938.000000	0.310881
1939.000000	0.311619
1940.000000	0.312369
1941.000000	0.312963
1942.000000	0.313615
1943.000000	0.314077
1944.000000	0.314700
1945.000000	0.315293
1946.000000	0.315892
1947.000000	0.316727
1948.000000	0.317135
1949.000000	0.317755
1950.000000	0.318495
1951.000000	0.318947
1952.000000	0.319356
1953.000000	0.319809
1954.000000	0.320149
1955.000000	0.320497
1956.000000	0.321152
1957.000000	0.321886
1958.000000	0.322191
1959.000000	0.322642
1960.000000	0.323103
1961.000000	0.323507
1962.000000	0.324125
1963.000000	0.325121
1964.000000	0.326203
1965.000000	0.326902
1966.000000	0.327562
1967.000000	0.328367
1968.000000	0.328733
1969.000000	0.329186
1970.000000	0.329813
1971.000000	0.330224
1972.000000	0.330841
1973.000000	0.331303
1974.000000	0.331866
1975.000000	0.332517
1976.000000	0.333265
1977.000000	0.333834
1978.000000	0.334515
1979.000000	0.335444
1980.000000	0.336212
1981.000000	0.337140
1982.000000	0.338244
1983.000000	0.339187
1984.000000	0.339759
1985.000000	0.339969
1986.000000	0.340409
1987.000000	0.340767
1988.000000	0.341145
1989.000000	0.341811
1990.000000	0.342864
1991.000000	0.343660
1992.000000	0.344402
1993.000000	0.345270
1994.000000	0.346033
1995.000000	0.346660
1996.000000	0.347614
1997.000000	0.348471
1998.000000	0.349371
1999.000000	0.350344
2000.000000	0.351583
2001.000000	0.352202
2002.000000	0.353059
2003.000000	0.354269
2004.000000	0.354820
2005.000000	0.355400
2006.000000	0.356075
2007.000000	0.356252
2008.000000	0.356900
2009.000000	0.357807
2010.000000	0.358712
2011.000000	0.359794
2012.000000	0.360640
2013.000000	0.361342
2014.000000	0.361839
2015.000000	0.362409
2016.000000	0.362874
2017.000000	0.363357
2018.000000	0.363959
2019.000000	0.364488
2020.000000	0.364828
2021.000000	0.365307
2022.000000	0.365636
2023.000000	0.366260
2024.000000	0.367176
2025.000000	0.368078
2026.000000	0.369081
2027.000000	0.369831
2028.000000	0.370491
2029.000000	0.370866
2030.000000	0.370747
2031.000000	0.370891
2032.000000	0.371212
2033.000000	0.371645
2034.000000	0.372220
2035.000000	0.373495
2036.000000	0.373964
2037.000000	0.374308
2038.000000	0.374686
2039.000000	0.374834
2040.000000	0.375150
2041.000000	0.375502
2042.000000	0.376057
2043.000000	0.376635
2044.000000	0.376935
2045.000000	0.377201
2046.000000	0.377268
2047.000000	0.377505
2048.000000	0.377487
2049.000000	0.377950
2050.000000	0.378413
2051.000000	0.378667
2052.000000	0.378859
2053.000000	0.378987
2054.000000	0.379186
2055.000000	0.379614
2056.000000	0.380016
2057.000000	0.380217
2058.000000	0.380406
2059.000000	0.380648
2060.000000	0.380791
2061.000000	0.380939
2062.000000	0.381058
2063.000000	0.381098
2064.000000	0.380973
2065.000000	0.381156
2066.000000	0.381105
2067.000000	0.380983
2068.000000	0.381460
2069.000000	0.381721
2070.000000	0.382065
2071.000000	0.382542
2072.000000	0.382747
2073.000000	0.383184
2074.000000	0.383334
2075.000000	0.383376
2076.000000	0.383329
2077.000000	0.383199
2078.000000	0.382796
2079.000000	0.382478
2080.000000	0.381725
2081.000000	0.381751
2082.000000	0.382116
2083.000000	0.382849
2084.000000	0.383662
2085.000000	0.384885
2086.000000	0.385328
2087.000000	0.385092
2088.000000	0.384884
2089.000000	0.384446
2090.000000	0.384287
2091.000000	0.384148
2092.000000	0.384336
2093.000000	0.384940
2094.000000	0.385264
2095.000000	0.385843
2096.000000	0.386234
2097.000000	0.386428
2098.000000	0.386330
2099.000000	0.386437
2100.000000	0.386140
2101.000000	0.385821
2102.000000	0.385868
2103.000000	0.385996
2104.000000	0.386357
2105.000000	0.386666
2106.000000	0.387117
2107.000000	0.387552
2108.000000	0.387955
2109.000000	0.388385
2110.000000	0.388657
2111.000000	0.388953
2112.000000	0.389185
2113.000000	0.389182
2114.000000	0.389351
2115.000000	0.389052
2116.000000	0.388678
2117.000000	0.388128
2118.000000	0.387944
2119.000000	0.388363
2120.000000	0.388616
2121.000000	0.389349
2122.000000	0.389681
2123.000000	0.389594
2124.000000	0.389864
2125.000000	0.390437
2126.000000	0.390604
2127.000000	0.390820
2128.000000	0.390975
2129.000000	0.390559
2130.000000	0.390504
2131.000000	0.390588
2132.000000	0.390577
2133.000000	0.390974
2134.000000	0.391473
2135.000000	0.391831
2136.000000	0.392303
2137.000000	0.392393
2138.000000	0.392103
2139.000000	0.392060
2140.000000	0.392022
2141.000000	0.391783
2142.000000	0.391627
2143.000000	0.391062
2144.000000	0.389868
2145.000000	0.389468
2146.000000	0.389415
2147.000000	0.389806
2148.000000	0.390487
2149.000000	0.391887
2150.000000	0.392787
2151.000000	0.393409
2152.000000	0.393773
2153.000000	0.393541
2154.000000	0.393251
2155.000000	0.392494
2156.000000	0.392156
2157.000000	0.391910
2158.000000	0.391598
2159.000000	0.391399
2160.000000	0.391515
2161.000000	0.391358
2162.000000	0.391779
2163.000000	0.393229
2164.000000	0.393646
2165.000000	0.393747
2166.000000	0.393834
2167.000000	0.393384
2168.000000	0.393107
2169.000000	0.392799
2170.000000	0.392310
2171.000000	0.392184
2172.000000	0.391916
2173.000000	0.391978
2174.000000	0.392745
2175.000000	0.392970
2176.000000	0.392852
2177.000000	0.393189
2178.000000	0.393744
2179.000000	0.394252
2180.000000	0.395125
2181.000000	0.395845
2182.000000	0.395724
2183.000000	0.395493
2184.000000	0.395262
2185.000000	0.394434
2186.000000	0.393252
2187.000000	0.392242
2188.000000	0.390980
2189.000000	0.389853
2190.000000	0.389447
2191.000000	0.389828
2192.000000	0.389845
2193.000000	0.390703
2194.000000	0.390467
2195.000000	0.389225
2196.000000	0.388749
2197.000000	0.387550
2198.000000	0.387259
2199.000000	0.388487
2200.000000	0.389234
2201.000000	0.391152
2202.000000	0.391590
2203.000000	0.391004
2204.000000	0.389126
2205.000000	0.387632
2206.000000	0.386590
2207.000000	0.385610
2208.000000	0.386048
2209.000000	0.385893
2210.000000	0.385150
2211.000000	0.385183
2212.000000	0.385233
2213.000000	0.385242
2214.000000	0.385192
2215.000000	0.384462
2216.000000	0.383806
2217.000000	0.382642
2218.000000	0.379867
2219.000000	0.379076
2220.000000	0.379231
2221.000000	0.379269
2222.000000	0.380213
2223.000000	0.380853
2224.000000	0.381701
2225.000000	0.381490
2226.000000	0.382309
2227.000000	0.381605
2228.000000	0.380199
2229.000000	0.379793
2230.000000	0.379073
2231.000000	0.379165
2232.000000	0.379764
2233.000000	0.379927
2234.000000	0.379517
2235.000000	0.379589
2236.000000	0.378843
2237.000000	0.377321
2238.000000	0.375878
2239.000000	0.373082
2240.000000	0.372459
2241.000000	0.373288
2242.000000	0.373437
2243.000000	0.374559
2244.000000	0.375357
2245.000000	0.374650
2246.000000	0.375507
2247.000000	0.378070
2248.000000	0.379784
2249.000000	0.382467
2250.000000	0.383704
2251.000000	0.382531
2252.000000	0.380856
2253.000000	0.378835
2254.000000	0.376736
2255.000000	0.375969
2256.000000	0.375873
2257.000000	0.375614
2258.000000	0.374464
2259.000000	0.374676
2260.000000	0.376032
2261.000000	0.375789
2262.000000	0.375560
2263.000000	0.375378
2264.000000	0.373416
2265.000000	0.372899
2266.000000	0.373920
2267.000000	0.373525
2268.000000	0.373298
2269.000000	0.372719
2270.000000	0.371070
2271.000000	0.369803
2272.000000	0.368374
2273.000000	0.367126
2274.000000	0.366025
2275.000000	0.364899
2276.000000	0.364238
2277.000000	0.362966
2278.000000	0.359625
2279.000000	0.356830
2280.000000	0.353949
2281.000000	0.349525
2282.000000	0.347442
2283.000000	0.346066
2284.000000	0.343883
2285.000000	0.342757
2286.000000	0.341336
2287.000000	0.338072
2288.000000	0.335382
2289.000000	0.332970
2290.000000	0.330617
2291.000000	0.330218
2292.000000	0.329171
2293.000000	0.328154
2294.000000	0.327188
2295.000000	0.325918
2296.000000	0.324589
2297.000000	0.323727
2298.000000	0.322243
2299.000000	0.319807
2300.000000	0.318430
2301.000000	0.318006
2302.000000	0.316261
2303.000000	0.314073
2304.000000	0.312225
2305.000000	0.309685
2306.000000	0.306761
2307.000000	0.303440
2308.000000	0.301811
2309.000000	0.299299
2310.000000	0.296859
2311.000000	0.294689
2312.000000	0.291879
2313.000000	0.290274
2314.000000	0.289392
2315.000000	0.289241
2316.000000	0.291683
2317.000000	0.293779
2318.000000	0.295808
2319.000000	0.299602
2320.000000	0.302244
2321.000000	0.305149
2322.000000	0.308549
2323.000000	0.311515
2324.000000	0.316203
2325.000000	0.320303
2326.000000	0.323753
2327.000000	0.327341
2328.000000	0.328402
2329.000000	0.328400
2330.000000	0.328954
2331.000000	0.328902
2332.000000	0.330991
2333.000000	0.334703
2334.000000	0.336787
2335.000000	0.339246
2336.000000	0.341070
2337.000000	0.342178
2338.000000	0.343055
2339.000000	0.343544
2340.000000	0.343759
2341.000000	0.343791
2342.000000	0.343336
2343.000000	0.342999
2344.000000	0.341638
2345.000000	0.340675
2346.000000	0.339598
2347.000000	0.338877
2348.000000	0.338323
2349.000000	0.338994
2350.000000	0.338922
2351.000000	0.340195
2352.000000	0.341778
2353.000000	0.343007
2354.000000	0.342936
2355.000000	0.341997
2356.000000	0.338495
2357.000000	0.334177
2358.000000	0.331889
2359.000000	0.330370
2360.000000	0.330245
2361.000000	0.331500
2362.000000	0.333738
2363.000000	0.334472
2364.000000	0.333915
2365.000000	0.333683
2366.000000	0.332047
2367.000000	0.331191
2368.000000	0.329450
2369.000000	0.327418
2370.000000	0.325360
2371.000000	0.322917
2372.000000	0.323484
2373.000000	0.323490
2374.000000	0.321691
2375.000000	0.320905
2376.000000	0.320893
2377.000000	0.320028
2378.000000	0.319495
2379.000000	0.318887
2380.000000	0.314261
2381.000000	0.310357
2382.000000	0.309018
2383.000000	0.307206
2384.000000	0.306621
2385.000000	0.305873
2386.000000	0.302778
2387.000000	0.298610
2388.000000	0.297662
2389.000000	0.300609
2390.000000	0.302425
2391.000000	0.305948
2392.000000	0.309143
2393.000000	0.304930
2394.000000	0.303232
2395.000000	0.305819
2396.000000	0.309418
2397.000000	0.314952
2398.000000	0.319380
2399.000000	0.320751
2400.000000	0.313945
2401.000000	0.307958
2402.000000	0.304882
2403.000000	0.300375
2404.000000	0.299661
2405.000000	0.299926
2406.000000	0.304305
2407.000000	0.307838
2408.000000	0.310786
2409.000000	0.317035
2410.000000	0.314778
2411.000000	0.313516
2412.000000	0.316307
2413.000000	0.315033
2414.000000	0.317686
2415.000000	0.317098
2416.000000	0.310910
2417.000000	0.309154
2418.000000	0.304276
2419.000000	0.298707
2420.000000	0.294743
2421.000000	0.293825
2422.000000	0.299065
2423.000000	0.299505
2424.000000	0.302122
2425.000000	0.301858
2426.000000	0.293793
2427.000000	0.299901
2428.000000	0.308467
2429.000000	0.309998
2430.000000	0.316289
2431.000000	0.313701
2432.000000	0.308271
2433.000000	0.311675
2434.000000	0.310754
2435.000000	0.308881
2436.000000	0.305408
2437.000000	0.299713
2438.000000	0.298849
2439.000000	0.300423
2440.000000	0.299888
2441.000000	0.298287
2442.000000	0.299066
2443.000000	0.300612
2444.000000	0.303590
2445.000000	0.303404
2446.000000	0.297712
2447.000000	0.292078
2448.000000	0.288150
2449.000000	0.284324
2450.000000	0.281118
2451.000000	0.277443
2452.000000	0.267296
2453.000000	0.266444
2454.000000	0.269640
2455.000000	0.265240
2456.000000	0.270236
2457.000000	0.275919
2458.000000	0.279984
2459.000000	0.284309
2460.000000	0.283472
2461.000000	0.278129
2462.000000	0.269289
2463.000000	0.269770
2464.000000	0.274784
2465.000000	0.281730
2466.000000	0.293691
2467.000000	0.296748
2468.000000	0.295984
2469.000000	0.280921
2470.000000	0.260090
2471.000000	0.257497
2472.000000	0.252619
2473.000000	0.259547
2474.000000	0.266118
2475.000000	0.260268
2476.000000	0.260440
2477.000000	0.255960
2478.000000	0.264196
2479.000000	0.258614
2480.000000	0.254809
2481.000000	0.265772
2482.000000	0.265384
2483.000000	0.288892
2484.000000	0.293394
2485.000000	0.283048
2486.000000	0.279556
2487.000000	0.273766
2488.000000	0.276902
2489.000000	0.269174
2490.000000	0.259277
2491.000000	0.238784
2492.000000	0.233974
2493.000000	0.254202
2494.000000	0.272616
2495.000000	0.311434
2496.000000	0.298695
2497.000000	0.240867
2498.000000	0.223621
2499.000000	0.199938
2500.000000	0.187599
