# Wavelength	SM1200H-20_HEX-60_FV7-20_00000.asd.rts.txt
350.000000	0.322167
351.000000	0.303191
352.000000	0.298580
353.000000	0.299262
354.000000	0.301345
355.000000	0.308889
356.000000	0.315577
357.000000	0.318971
358.000000	0.312880
359.000000	0.313183
360.000000	0.311369
361.000000	0.297654
362.000000	0.299284
363.000000	0.308630
364.000000	0.315841
365.000000	0.316483
366.000000	0.317022
367.000000	0.318313
368.000000	0.317455
369.000000	0.317101
370.000000	0.316936
371.000000	0.315740
372.000000	0.310957
373.000000	0.311798
374.000000	0.321124
375.000000	0.321368
376.000000	0.319411
377.000000	0.318909
378.000000	0.321442
379.000000	0.319588
380.000000	0.317743
381.000000	0.323141
382.000000	0.320785
383.000000	0.317972
384.000000	0.320436
385.000000	0.321945
386.000000	0.321889
387.000000	0.321635
388.000000	0.324476
389.000000	0.325309
390.000000	0.324463
391.000000	0.323773
392.000000	0.323918
393.000000	0.325224
394.000000	0.327353
395.000000	0.328486
396.000000	0.328317
397.000000	0.327274
398.000000	0.326768
399.000000	0.326723
400.000000	0.327547
401.000000	0.329455
402.000000	0.329960
403.000000	0.330189
404.000000	0.331365
405.000000	0.331187
406.000000	0.331367
407.000000	0.332431
408.000000	0.332537
409.000000	0.332805
410.000000	0.333473
411.000000	0.334276
412.000000	0.334323
413.000000	0.334566
414.000000	0.335879
415.000000	0.335843
416.000000	0.335795
417.000000	0.336615
418.000000	0.337851
419.000000	0.338177
420.000000	0.337614
421.000000	0.337294
422.000000	0.337733
423.000000	0.338413
424.000000	0.338660
425.000000	0.339190
426.000000	0.339653
427.000000	0.339811
428.000000	0.340282
429.000000	0.340694
430.000000	0.340912
431.000000	0.341069
432.000000	0.341253
433.000000	0.341484
434.000000	0.341876
435.000000	0.342119
436.000000	0.342377
437.000000	0.342790
438.000000	0.343118
439.000000	0.343356
440.000000	0.343607
441.000000	0.343683
442.000000	0.343742
443.000000	0.343806
444.000000	0.344048
445.000000	0.344069
446.000000	0.344297
447.000000	0.344959
448.000000	0.345153
449.000000	0.345291
450.000000	0.345746
451.000000	0.346422
452.000000	0.346795
453.000000	0.346850
454.000000	0.347510
455.000000	0.347861
456.000000	0.347925
457.000000	0.347872
458.000000	0.348254
459.000000	0.348677
460.000000	0.348838
461.000000	0.349123
462.000000	0.349683
463.000000	0.350207
464.000000	0.350280
465.000000	0.350201
466.000000	0.350089
467.000000	0.350168
468.000000	0.350751
469.000000	0.351407
470.000000	0.351769
471.000000	0.351611
472.000000	0.351389
473.000000	0.351517
474.000000	0.352048
475.000000	0.352497
476.000000	0.352825
477.000000	0.352942
478.000000	0.353120
479.000000	0.353536
480.000000	0.353822
481.000000	0.353855
482.000000	0.354070
483.000000	0.354465
484.000000	0.354550
485.000000	0.354618
486.000000	0.355006
487.000000	0.355270
488.000000	0.355739
489.000000	0.356249
490.000000	0.356272
491.000000	0.356499
492.000000	0.356937
493.000000	0.357230
494.000000	0.357502
495.000000	0.357721
496.000000	0.357871
497.000000	0.358279
498.000000	0.358740
499.000000	0.359171
500.000000	0.359318
501.000000	0.359536
502.000000	0.359902
503.000000	0.360235
504.000000	0.360379
505.000000	0.360551
506.000000	0.360939
507.000000	0.361174
508.000000	0.361436
509.000000	0.361789
510.000000	0.362245
511.000000	0.362547
512.000000	0.362757
513.000000	0.363117
514.000000	0.363486
515.000000	0.363834
516.000000	0.364084
517.000000	0.364344
518.000000	0.364726
519.000000	0.365143
520.000000	0.365429
521.000000	0.365714
522.000000	0.366043
523.000000	0.366304
524.000000	0.366570
525.000000	0.366849
526.000000	0.367184
527.000000	0.367497
528.000000	0.367791
529.000000	0.368136
530.000000	0.368362
531.000000	0.368607
532.000000	0.368848
533.000000	0.369065
534.000000	0.369434
535.000000	0.369894
536.000000	0.370183
537.000000	0.370498
538.000000	0.370817
539.000000	0.371033
540.000000	0.371254
541.000000	0.371505
542.000000	0.371815
543.000000	0.372027
544.000000	0.372319
545.000000	0.372684
546.000000	0.373094
547.000000	0.373424
548.000000	0.373699
549.000000	0.373926
550.000000	0.374207
551.000000	0.374577
552.000000	0.374962
553.000000	0.375281
554.000000	0.375631
555.000000	0.376060
556.000000	0.376385
557.000000	0.376661
558.000000	0.377049
559.000000	0.377351
560.000000	0.377626
561.000000	0.377989
562.000000	0.378375
563.000000	0.378644
564.000000	0.378913
565.000000	0.379189
566.000000	0.379550
567.000000	0.379934
568.000000	0.380263
569.000000	0.380536
570.000000	0.380827
571.000000	0.381159
572.000000	0.381557
573.000000	0.381954
574.000000	0.382281
575.000000	0.382560
576.000000	0.382887
577.000000	0.383166
578.000000	0.383420
579.000000	0.383785
580.000000	0.384078
581.000000	0.384267
582.000000	0.384588
583.000000	0.384852
584.000000	0.385075
585.000000	0.385385
586.000000	0.385696
587.000000	0.386000
588.000000	0.386305
589.000000	0.386629
590.000000	0.386892
591.000000	0.387086
592.000000	0.387398
593.000000	0.387733
594.000000	0.388020
595.000000	0.388195
596.000000	0.388411
597.000000	0.388696
598.000000	0.388895
599.000000	0.389047
600.000000	0.389263
601.000000	0.389512
602.000000	0.389729
603.000000	0.389903
604.000000	0.390090
605.000000	0.390450
606.000000	0.390642
607.000000	0.390703
608.000000	0.390906
609.000000	0.391169
610.000000	0.391426
611.000000	0.391625
612.000000	0.391868
613.000000	0.392086
614.000000	0.392275
615.000000	0.392431
616.000000	0.392564
617.000000	0.392661
618.000000	0.392823
619.000000	0.392974
620.000000	0.393121
621.000000	0.393361
622.000000	0.393503
623.000000	0.393588
624.000000	0.393668
625.000000	0.393672
626.000000	0.393730
627.000000	0.393870
628.000000	0.393932
629.000000	0.394153
630.000000	0.394337
631.000000	0.394442
632.000000	0.394537
633.000000	0.394684
634.000000	0.394900
635.000000	0.395146
636.000000	0.395367
637.000000	0.395531
638.000000	0.395750
639.000000	0.395959
640.000000	0.396185
641.000000	0.396316
642.000000	0.396447
643.000000	0.396605
644.000000	0.396791
645.000000	0.396886
646.000000	0.397007
647.000000	0.397179
648.000000	0.397209
649.000000	0.397332
650.000000	0.397576
651.000000	0.397778
652.000000	0.397923
653.000000	0.398059
654.000000	0.398164
655.000000	0.398265
656.000000	0.398408
657.000000	0.398544
658.000000	0.398651
659.000000	0.398808
660.000000	0.399009
661.000000	0.399153
662.000000	0.399266
663.000000	0.399439
664.000000	0.399666
665.000000	0.399905
666.000000	0.400097
667.000000	0.400177
668.000000	0.400346
669.000000	0.400515
670.000000	0.400643
671.000000	0.400819
672.000000	0.400969
673.000000	0.401085
674.000000	0.401238
675.000000	0.401356
676.000000	0.401486
677.000000	0.401711
678.000000	0.401919
679.000000	0.402098
680.000000	0.402251
681.000000	0.402337
682.000000	0.402528
683.000000	0.402735
684.000000	0.402902
685.000000	0.403056
686.000000	0.403235
687.000000	0.403405
688.000000	0.403526
689.000000	0.403670
690.000000	0.403922
691.000000	0.404169
692.000000	0.404371
693.000000	0.404601
694.000000	0.404824
695.000000	0.405039
696.000000	0.405249
697.000000	0.405464
698.000000	0.405641
699.000000	0.405799
700.000000	0.405959
701.000000	0.406051
702.000000	0.406174
703.000000	0.406315
704.000000	0.406375
705.000000	0.406490
706.000000	0.406631
707.000000	0.406823
708.000000	0.406982
709.000000	0.407105
710.000000	0.407241
711.000000	0.407433
712.000000	0.407635
713.000000	0.407834
714.000000	0.407980
715.000000	0.408116
716.000000	0.408272
717.000000	0.408440
718.000000	0.408606
719.000000	0.408746
720.000000	0.408864
721.000000	0.408980
722.000000	0.409071
723.000000	0.409208
724.000000	0.409353
725.000000	0.409447
726.000000	0.409578
727.000000	0.409677
728.000000	0.409770
729.000000	0.409883
730.000000	0.409964
731.000000	0.410074
732.000000	0.410207
733.000000	0.410383
734.000000	0.410497
735.000000	0.410553
736.000000	0.410703
737.000000	0.410813
738.000000	0.410846
739.000000	0.410956
740.000000	0.411030
741.000000	0.411129
742.000000	0.411224
743.000000	0.411287
744.000000	0.411406
745.000000	0.411414
746.000000	0.411415
747.000000	0.411453
748.000000	0.411525
749.000000	0.411657
750.000000	0.411791
751.000000	0.411831
752.000000	0.411863
753.000000	0.411928
754.000000	0.412002
755.000000	0.412010
756.000000	0.412018
757.000000	0.412059
758.000000	0.412144
759.000000	0.412280
760.000000	0.412382
761.000000	0.412556
762.000000	0.412707
763.000000	0.412789
764.000000	0.412888
765.000000	0.412950
766.000000	0.413004
767.000000	0.413070
768.000000	0.413113
769.000000	0.413157
770.000000	0.413219
771.000000	0.413280
772.000000	0.413412
773.000000	0.413527
774.000000	0.413644
775.000000	0.413659
776.000000	0.413674
777.000000	0.413739
778.000000	0.413772
779.000000	0.413844
780.000000	0.413931
781.000000	0.413889
782.000000	0.413872
783.000000	0.413981
784.000000	0.414043
785.000000	0.414083
786.000000	0.414134
787.000000	0.414190
788.000000	0.414181
789.000000	0.414183
790.000000	0.414169
791.000000	0.414136
792.000000	0.414199
793.000000	0.414320
794.000000	0.414441
795.000000	0.414508
796.000000	0.414534
797.000000	0.414542
798.000000	0.414576
799.000000	0.414626
800.000000	0.414683
801.000000	0.414734
802.000000	0.414694
803.000000	0.414657
804.000000	0.414697
805.000000	0.414643
806.000000	0.414586
807.000000	0.414622
808.000000	0.414646
809.000000	0.414722
810.000000	0.414794
811.000000	0.414784
812.000000	0.414651
813.000000	0.414598
814.000000	0.414648
815.000000	0.414686
816.000000	0.414764
817.000000	0.414844
818.000000	0.414792
819.000000	0.414876
820.000000	0.414942
821.000000	0.414874
822.000000	0.414836
823.000000	0.414818
824.000000	0.414782
825.000000	0.414825
826.000000	0.414815
827.000000	0.414768
828.000000	0.414759
829.000000	0.414743
830.000000	0.414676
831.000000	0.414633
832.000000	0.414530
833.000000	0.414484
834.000000	0.414458
835.000000	0.414450
836.000000	0.414446
837.000000	0.414387
838.000000	0.414326
839.000000	0.414337
840.000000	0.414334
841.000000	0.414323
842.000000	0.414270
843.000000	0.414193
844.000000	0.414168
845.000000	0.414150
846.000000	0.414068
847.000000	0.414036
848.000000	0.413984
849.000000	0.413875
850.000000	0.413851
851.000000	0.413818
852.000000	0.413789
853.000000	0.413796
854.000000	0.413790
855.000000	0.413796
856.000000	0.413644
857.000000	0.413615
858.000000	0.413588
859.000000	0.413420
860.000000	0.413304
861.000000	0.413240
862.000000	0.413226
863.000000	0.413154
864.000000	0.413134
865.000000	0.413086
866.000000	0.412995
867.000000	0.412883
868.000000	0.412762
869.000000	0.412612
870.000000	0.412536
871.000000	0.412395
872.000000	0.412269
873.000000	0.412154
874.000000	0.412138
875.000000	0.411999
876.000000	0.411796
877.000000	0.411605
878.000000	0.411338
879.000000	0.411157
880.000000	0.410959
881.000000	0.410775
882.000000	0.410628
883.000000	0.410540
884.000000	0.410444
885.000000	0.410415
886.000000	0.410310
887.000000	0.410137
888.000000	0.410100
889.000000	0.409953
890.000000	0.409677
891.000000	0.409602
892.000000	0.409379
893.000000	0.409081
894.000000	0.408923
895.000000	0.408760
896.000000	0.408618
897.000000	0.408428
898.000000	0.408134
899.000000	0.407906
900.000000	0.407779
901.000000	0.407686
902.000000	0.407613
903.000000	0.407451
904.000000	0.407260
905.000000	0.407024
906.000000	0.406990
907.000000	0.406889
908.000000	0.406675
909.000000	0.406334
910.000000	0.406176
911.000000	0.406053
912.000000	0.405800
913.000000	0.405533
914.000000	0.405248
915.000000	0.405077
916.000000	0.405000
917.000000	0.404732
918.000000	0.404499
919.000000	0.404415
920.000000	0.404199
921.000000	0.403841
922.000000	0.403550
923.000000	0.403545
924.000000	0.403336
925.000000	0.402993
926.000000	0.402711
927.000000	0.402630
928.000000	0.402631
929.000000	0.402462
930.000000	0.401969
931.000000	0.401727
932.000000	0.401508
933.000000	0.401222
934.000000	0.400835
935.000000	0.400650
936.000000	0.400476
937.000000	0.400045
938.000000	0.399823
939.000000	0.399765
940.000000	0.399613
941.000000	0.399245
942.000000	0.399020
943.000000	0.398803
944.000000	0.398375
945.000000	0.398044
946.000000	0.397803
947.000000	0.397659
948.000000	0.397478
949.000000	0.397029
950.000000	0.396790
951.000000	0.396658
952.000000	0.396144
953.000000	0.395898
954.000000	0.395928
955.000000	0.395925
956.000000	0.395484
957.000000	0.395195
958.000000	0.394972
959.000000	0.394651
960.000000	0.394404
961.000000	0.394119
962.000000	0.393765
963.000000	0.393494
964.000000	0.393200
965.000000	0.392936
966.000000	0.392620
967.000000	0.392358
968.000000	0.392162
969.000000	0.391856
970.000000	0.391417
971.000000	0.391179
972.000000	0.391295
973.000000	0.391393
974.000000	0.390799
975.000000	0.390493
976.000000	0.390234
977.000000	0.389803
978.000000	0.389910
979.000000	0.389960
980.000000	0.389643
981.000000	0.389420
982.000000	0.389115
983.000000	0.388886
984.000000	0.388851
985.000000	0.388843
986.000000	0.388490
987.000000	0.388089
988.000000	0.387810
989.000000	0.387774
990.000000	0.387794
991.000000	0.387740
992.000000	0.387567
993.000000	0.387115
994.000000	0.386957
995.000000	0.387201
996.000000	0.387082
997.000000	0.386777
998.000000	0.386566
999.000000	0.386582
1000.000000	0.386389
1001.000000	0.387045
1002.000000	0.386466
1003.000000	0.386026
1004.000000	0.385899
1005.000000	0.385795
1006.000000	0.385543
1007.000000	0.385642
1008.000000	0.385589
1009.000000	0.385075
1010.000000	0.384570
1011.000000	0.384337
1012.000000	0.384562
1013.000000	0.384870
1014.000000	0.384790
1015.000000	0.384546
1016.000000	0.384282
1017.000000	0.383709
1018.000000	0.383273
1019.000000	0.383057
1020.000000	0.383125
1021.000000	0.382891
1022.000000	0.383215
1023.000000	0.383460
1024.000000	0.383402
1025.000000	0.383567
1026.000000	0.383736
1027.000000	0.382879
1028.000000	0.382841
1029.000000	0.383523
1030.000000	0.383723
1031.000000	0.383963
1032.000000	0.384020
1033.000000	0.383460
1034.000000	0.383409
1035.000000	0.383690
1036.000000	0.383934
1037.000000	0.384514
1038.000000	0.384653
1039.000000	0.384891
1040.000000	0.384640
1041.000000	0.384128
1042.000000	0.383703
1043.000000	0.384147
1044.000000	0.384966
1045.000000	0.385129
1046.000000	0.385194
1047.000000	0.385546
1048.000000	0.385223
1049.000000	0.385373
1050.000000	0.386582
1051.000000	0.386862
1052.000000	0.386341
1053.000000	0.386213
1054.000000	0.386326
1055.000000	0.386462
1056.000000	0.386587
1057.000000	0.387025
1058.000000	0.387498
1059.000000	0.386901
1060.000000	0.386851
1061.000000	0.387031
1062.000000	0.387066
1063.000000	0.387315
1064.000000	0.387605
1065.000000	0.387846
1066.000000	0.388294
1067.000000	0.389019
1068.000000	0.389412
1069.000000	0.389759
1070.000000	0.389828
1071.000000	0.389630
1072.000000	0.389581
1073.000000	0.389385
1074.000000	0.389465
1075.000000	0.389878
1076.000000	0.390051
1077.000000	0.389999
1078.000000	0.390363
1079.000000	0.390661
1080.000000	0.391025
1081.000000	0.391160
1082.000000	0.391466
1083.000000	0.391598
1084.000000	0.391288
1085.000000	0.391417
1086.000000	0.391821
1087.000000	0.392182
1088.000000	0.392606
1089.000000	0.392904
1090.000000	0.393258
1091.000000	0.393246
1092.000000	0.393260
1093.000000	0.393813
1094.000000	0.393965
1095.000000	0.393986
1096.000000	0.394088
1097.000000	0.394101
1098.000000	0.394155
1099.000000	0.394134
1100.000000	0.394398
1101.000000	0.394664
1102.000000	0.394917
1103.000000	0.395345
1104.000000	0.395790
1105.000000	0.396431
1106.000000	0.396664
1107.000000	0.396589
1108.000000	0.396614
1109.000000	0.396254
1110.000000	0.396236
1111.000000	0.396374
1112.000000	0.396901
1113.000000	0.397174
1114.000000	0.397450
1115.000000	0.397715
1116.000000	0.397975
1117.000000	0.398177
1118.000000	0.398479
1119.000000	0.398480
1120.000000	0.398065
1121.000000	0.398080
1122.000000	0.398346
1123.000000	0.398662
1124.000000	0.398886
1125.000000	0.399223
1126.000000	0.399477
1127.000000	0.399611
1128.000000	0.399732
1129.000000	0.400029
1130.000000	0.400203
1131.000000	0.400302
1132.000000	0.400222
1133.000000	0.400074
1134.000000	0.400137
1135.000000	0.400083
1136.000000	0.400008
1137.000000	0.400203
1138.000000	0.400089
1139.000000	0.399594
1140.000000	0.399577
1141.000000	0.399730
1142.000000	0.399819
1143.000000	0.400088
1144.000000	0.400318
1145.000000	0.400229
1146.000000	0.399995
1147.000000	0.400048
1148.000000	0.400097
1149.000000	0.400095
1150.000000	0.400249
1151.000000	0.400296
1152.000000	0.400113
1153.000000	0.400089
1154.000000	0.400145
1155.000000	0.400088
1156.000000	0.400013
1157.000000	0.399902
1158.000000	0.399566
1159.000000	0.399445
1160.000000	0.399457
1161.000000	0.399379
1162.000000	0.399409
1163.000000	0.399607
1164.000000	0.399588
1165.000000	0.399377
1166.000000	0.399308
1167.000000	0.399141
1168.000000	0.399072
1169.000000	0.399144
1170.000000	0.399126
1171.000000	0.399170
1172.000000	0.399228
1173.000000	0.399255
1174.000000	0.399170
1175.000000	0.398953
1176.000000	0.398818
1177.000000	0.398669
1178.000000	0.398629
1179.000000	0.398799
1180.000000	0.398787
1181.000000	0.398843
1182.000000	0.398807
1183.000000	0.398834
1184.000000	0.398940
1185.000000	0.398935
1186.000000	0.398941
1187.000000	0.398863
1188.000000	0.398679
1189.000000	0.398530
1190.000000	0.398435
1191.000000	0.398297
1192.000000	0.398225
1193.000000	0.398249
1194.000000	0.398148
1195.000000	0.398120
1196.000000	0.398045
1197.000000	0.398065
1198.000000	0.398197
1199.000000	0.398274
1200.000000	0.398390
1201.000000	0.398499
1202.000000	0.398510
1203.000000	0.398494
1204.000000	0.398544
1205.000000	0.398667
1206.000000	0.398591
1207.000000	0.398527
1208.000000	0.398492
1209.000000	0.398446
1210.000000	0.398365
1211.000000	0.398350
1212.000000	0.398262
1213.000000	0.398091
1214.000000	0.398039
1215.000000	0.398049
1216.000000	0.397989
1217.000000	0.397822
1218.000000	0.397741
1219.000000	0.397648
1220.000000	0.397778
1221.000000	0.397800
1222.000000	0.397837
1223.000000	0.397884
1224.000000	0.397779
1225.000000	0.397834
1226.000000	0.397964
1227.000000	0.397946
1228.000000	0.398032
1229.000000	0.398020
1230.000000	0.397956
1231.000000	0.397788
1232.000000	0.397629
1233.000000	0.397649
1234.000000	0.397694
1235.000000	0.397636
1236.000000	0.397582
1237.000000	0.397501
1238.000000	0.397118
1239.000000	0.396960
1240.000000	0.396918
1241.000000	0.396912
1242.000000	0.396878
1243.000000	0.396822
1244.000000	0.396805
1245.000000	0.396906
1246.000000	0.396980
1247.000000	0.397112
1248.000000	0.397117
1249.000000	0.397020
1250.000000	0.397031
1251.000000	0.397007
1252.000000	0.397000
1253.000000	0.397062
1254.000000	0.397110
1255.000000	0.397253
1256.000000	0.397247
1257.000000	0.397111
1258.000000	0.397157
1259.000000	0.397040
1260.000000	0.397089
1261.000000	0.397407
1262.000000	0.397478
1263.000000	0.397422
1264.000000	0.397460
1265.000000	0.397423
1266.000000	0.397358
1267.000000	0.397484
1268.000000	0.397541
1269.000000	0.397437
1270.000000	0.397410
1271.000000	0.397379
1272.000000	0.397291
1273.000000	0.397388
1274.000000	0.397482
1275.000000	0.397443
1276.000000	0.397423
1277.000000	0.397417
1278.000000	0.397104
1279.000000	0.397050
1280.000000	0.397084
1281.000000	0.397008
1282.000000	0.397051
1283.000000	0.397120
1284.000000	0.397050
1285.000000	0.397072
1286.000000	0.397143
1287.000000	0.397145
1288.000000	0.397268
1289.000000	0.397282
1290.000000	0.397097
1291.000000	0.397102
1292.000000	0.397132
1293.000000	0.396970
1294.000000	0.396928
1295.000000	0.396910
1296.000000	0.396689
1297.000000	0.396583
1298.000000	0.396651
1299.000000	0.396660
1300.000000	0.396721
1301.000000	0.396752
1302.000000	0.396645
1303.000000	0.396465
1304.000000	0.396395
1305.000000	0.396530
1306.000000	0.396470
1307.000000	0.396425
1308.000000	0.396379
1309.000000	0.396156
1310.000000	0.396045
1311.000000	0.396061
1312.000000	0.396057
1313.000000	0.395932
1314.000000	0.395899
1315.000000	0.395741
1316.000000	0.395566
1317.000000	0.395550
1318.000000	0.395333
1319.000000	0.394950
1320.000000	0.394753
1321.000000	0.394401
1322.000000	0.394047
1323.000000	0.394060
1324.000000	0.394028
1325.000000	0.393818
1326.000000	0.393687
1327.000000	0.393375
1328.000000	0.393165
1329.000000	0.392922
1330.000000	0.392710
1331.000000	0.392530
1332.000000	0.392502
1333.000000	0.392244
1334.000000	0.391975
1335.000000	0.391881
1336.000000	0.391705
1337.000000	0.391529
1338.000000	0.391497
1339.000000	0.391249
1340.000000	0.390713
1341.000000	0.390271
1342.000000	0.389921
1343.000000	0.389664
1344.000000	0.389552
1345.000000	0.389378
1346.000000	0.389240
1347.000000	0.388947
1348.000000	0.388549
1349.000000	0.388175
1350.000000	0.387899
1351.000000	0.387505
1352.000000	0.387126
1353.000000	0.386840
1354.000000	0.386423
1355.000000	0.386017
1356.000000	0.385965
1357.000000	0.385851
1358.000000	0.385614
1359.000000	0.385466
1360.000000	0.385247
1361.000000	0.384918
1362.000000	0.384592
1363.000000	0.384227
1364.000000	0.383940
1365.000000	0.383619
1366.000000	0.383363
1367.000000	0.383198
1368.000000	0.382981
1369.000000	0.382751
1370.000000	0.382362
1371.000000	0.381926
1372.000000	0.381359
1373.000000	0.380756
1374.000000	0.380219
1375.000000	0.379529
1376.000000	0.379003
1377.000000	0.378557
1378.000000	0.377730
1379.000000	0.376717
1380.000000	0.375602
1381.000000	0.374130
1382.000000	0.372569
1383.000000	0.371127
1384.000000	0.369616
1385.000000	0.368249
1386.000000	0.367012
1387.000000	0.365698
1388.000000	0.364521
1389.000000	0.363378
1390.000000	0.362292
1391.000000	0.361460
1392.000000	0.360853
1393.000000	0.360304
1394.000000	0.360092
1395.000000	0.359705
1396.000000	0.359307
1397.000000	0.358766
1398.000000	0.358196
1399.000000	0.357460
1400.000000	0.356617
1401.000000	0.355670
1402.000000	0.354683
1403.000000	0.353351
1404.000000	0.352190
1405.000000	0.351032
1406.000000	0.349617
1407.000000	0.348331
1408.000000	0.347131
1409.000000	0.345912
1410.000000	0.344801
1411.000000	0.343695
1412.000000	0.342352
1413.000000	0.340882
1414.000000	0.339490
1415.000000	0.338212
1416.000000	0.336952
1417.000000	0.335770
1418.000000	0.334527
1419.000000	0.333333
1420.000000	0.332207
1421.000000	0.331052
1422.000000	0.329870
1423.000000	0.328794
1424.000000	0.327517
1425.000000	0.326298
1426.000000	0.325303
1427.000000	0.324319
1428.000000	0.323436
1429.000000	0.322629
1430.000000	0.321663
1431.000000	0.320687
1432.000000	0.319740
1433.000000	0.318703
1434.000000	0.317881
1435.000000	0.317365
1436.000000	0.316668
1437.000000	0.316029
1438.000000	0.315226
1439.000000	0.314280
1440.000000	0.313481
1441.000000	0.312608
1442.000000	0.311971
1443.000000	0.311506
1444.000000	0.310895
1445.000000	0.310219
1446.000000	0.309672
1447.000000	0.308942
1448.000000	0.308211
1449.000000	0.307755
1450.000000	0.307317
1451.000000	0.306911
1452.000000	0.306489
1453.000000	0.305940
1454.000000	0.305425
1455.000000	0.305070
1456.000000	0.304816
1457.000000	0.304662
1458.000000	0.304504
1459.000000	0.304158
1460.000000	0.303863
1461.000000	0.303633
1462.000000	0.303398
1463.000000	0.303300
1464.000000	0.303202
1465.000000	0.303033
1466.000000	0.302825
1467.000000	0.302611
1468.000000	0.302430
1469.000000	0.302361
1470.000000	0.302331
1471.000000	0.302384
1472.000000	0.302428
1473.000000	0.302526
1474.000000	0.302632
1475.000000	0.302783
1476.000000	0.303009
1477.000000	0.303283
1478.000000	0.303604
1479.000000	0.303984
1480.000000	0.304417
1481.000000	0.304785
1482.000000	0.305172
1483.000000	0.305589
1484.000000	0.305959
1485.000000	0.306453
1486.000000	0.307048
1487.000000	0.307565
1488.000000	0.308144
1489.000000	0.308629
1490.000000	0.308859
1491.000000	0.309344
1492.000000	0.309893
1493.000000	0.310416
1494.000000	0.310973
1495.000000	0.311469
1496.000000	0.311876
1497.000000	0.312361
1498.000000	0.312867
1499.000000	0.313530
1500.000000	0.314132
1501.000000	0.314506
1502.000000	0.314937
1503.000000	0.315318
1504.000000	0.315627
1505.000000	0.316102
1506.000000	0.316461
1507.000000	0.316731
1508.000000	0.317143
1509.000000	0.317586
1510.000000	0.317971
1511.000000	0.318256
1512.000000	0.318467
1513.000000	0.318651
1514.000000	0.318945
1515.000000	0.319309
1516.000000	0.319642
1517.000000	0.319902
1518.000000	0.320083
1519.000000	0.320201
1520.000000	0.320344
1521.000000	0.320364
1522.000000	0.320380
1523.000000	0.320533
1524.000000	0.320689
1525.000000	0.320883
1526.000000	0.321104
1527.000000	0.321324
1528.000000	0.321543
1529.000000	0.321685
1530.000000	0.321807
1531.000000	0.322006
1532.000000	0.322179
1533.000000	0.322267
1534.000000	0.322234
1535.000000	0.322258
1536.000000	0.322331
1537.000000	0.322585
1538.000000	0.322961
1539.000000	0.323117
1540.000000	0.323191
1541.000000	0.323285
1542.000000	0.323393
1543.000000	0.323615
1544.000000	0.323786
1545.000000	0.323877
1546.000000	0.323973
1547.000000	0.324024
1548.000000	0.324066
1549.000000	0.324166
1550.000000	0.324230
1551.000000	0.324244
1552.000000	0.324279
1553.000000	0.324253
1554.000000	0.324217
1555.000000	0.324199
1556.000000	0.324143
1557.000000	0.324123
1558.000000	0.324097
1559.000000	0.323949
1560.000000	0.323915
1561.000000	0.323955
1562.000000	0.323994
1563.000000	0.324207
1564.000000	0.324299
1565.000000	0.324356
1566.000000	0.324331
1567.000000	0.324258
1568.000000	0.324252
1569.000000	0.324334
1570.000000	0.324377
1571.000000	0.324498
1572.000000	0.324451
1573.000000	0.324268
1574.000000	0.324167
1575.000000	0.324037
1576.000000	0.323987
1577.000000	0.324022
1578.000000	0.323972
1579.000000	0.323909
1580.000000	0.323860
1581.000000	0.323888
1582.000000	0.323886
1583.000000	0.323891
1584.000000	0.323889
1585.000000	0.323927
1586.000000	0.323993
1587.000000	0.324096
1588.000000	0.324121
1589.000000	0.324141
1590.000000	0.324170
1591.000000	0.324224
1592.000000	0.324233
1593.000000	0.324246
1594.000000	0.324214
1595.000000	0.324142
1596.000000	0.324132
1597.000000	0.324206
1598.000000	0.324184
1599.000000	0.324175
1600.000000	0.324141
1601.000000	0.324094
1602.000000	0.324094
1603.000000	0.324164
1604.000000	0.324189
1605.000000	0.324225
1606.000000	0.324276
1607.000000	0.324393
1608.000000	0.324472
1609.000000	0.324615
1610.000000	0.324705
1611.000000	0.324718
1612.000000	0.324859
1613.000000	0.325179
1614.000000	0.325366
1615.000000	0.325708
1616.000000	0.325908
1617.000000	0.325833
1618.000000	0.325956
1619.000000	0.326094
1620.000000	0.326257
1621.000000	0.326573
1622.000000	0.326918
1623.000000	0.327296
1624.000000	0.327505
1625.000000	0.327496
1626.000000	0.327543
1627.000000	0.327444
1628.000000	0.327604
1629.000000	0.327996
1630.000000	0.328201
1631.000000	0.328350
1632.000000	0.328463
1633.000000	0.328447
1634.000000	0.328592
1635.000000	0.328867
1636.000000	0.329065
1637.000000	0.329396
1638.000000	0.329466
1639.000000	0.329336
1640.000000	0.329419
1641.000000	0.329536
1642.000000	0.329707
1643.000000	0.330126
1644.000000	0.330408
1645.000000	0.330606
1646.000000	0.330749
1647.000000	0.330843
1648.000000	0.331045
1649.000000	0.331381
1650.000000	0.331643
1651.000000	0.332025
1652.000000	0.332361
1653.000000	0.332487
1654.000000	0.332793
1655.000000	0.333252
1656.000000	0.333387
1657.000000	0.333433
1658.000000	0.333596
1659.000000	0.333762
1660.000000	0.334007
1661.000000	0.334292
1662.000000	0.334596
1663.000000	0.334868
1664.000000	0.335104
1665.000000	0.335408
1666.000000	0.335701
1667.000000	0.335792
1668.000000	0.336054
1669.000000	0.336429
1670.000000	0.336644
1671.000000	0.336938
1672.000000	0.337280
1673.000000	0.337576
1674.000000	0.337894
1675.000000	0.338127
1676.000000	0.338325
1677.000000	0.338331
1678.000000	0.338358
1679.000000	0.338580
1680.000000	0.338629
1681.000000	0.338717
1682.000000	0.338886
1683.000000	0.338915
1684.000000	0.339059
1685.000000	0.339341
1686.000000	0.339502
1687.000000	0.339673
1688.000000	0.339707
1689.000000	0.339702
1690.000000	0.339802
1691.000000	0.340000
1692.000000	0.340158
1693.000000	0.340316
1694.000000	0.340438
1695.000000	0.340548
1696.000000	0.340778
1697.000000	0.340892
1698.000000	0.341024
1699.000000	0.341158
1700.000000	0.341185
1701.000000	0.341354
1702.000000	0.341389
1703.000000	0.341462
1704.000000	0.341753
1705.000000	0.341914
1706.000000	0.342086
1707.000000	0.342229
1708.000000	0.342252
1709.000000	0.342249
1710.000000	0.342338
1711.000000	0.342415
1712.000000	0.342407
1713.000000	0.342545
1714.000000	0.342821
1715.000000	0.343074
1716.000000	0.343522
1717.000000	0.343738
1718.000000	0.343687
1719.000000	0.343872
1720.000000	0.344193
1721.000000	0.344360
1722.000000	0.344675
1723.000000	0.344761
1724.000000	0.344499
1725.000000	0.344570
1726.000000	0.344623
1727.000000	0.344782
1728.000000	0.345132
1729.000000	0.345202
1730.000000	0.345324
1731.000000	0.345402
1732.000000	0.345317
1733.000000	0.345469
1734.000000	0.345540
1735.000000	0.345778
1736.000000	0.346201
1737.000000	0.346375
1738.000000	0.346540
1739.000000	0.346717
1740.000000	0.346741
1741.000000	0.346824
1742.000000	0.347008
1743.000000	0.347180
1744.000000	0.347273
1745.000000	0.347336
1746.000000	0.347427
1747.000000	0.347540
1748.000000	0.347531
1749.000000	0.347524
1750.000000	0.347513
1751.000000	0.347496
1752.000000	0.347627
1753.000000	0.347723
1754.000000	0.347868
1755.000000	0.348097
1756.000000	0.348185
1757.000000	0.348174
1758.000000	0.348282
1759.000000	0.348328
1760.000000	0.348412
1761.000000	0.348584
1762.000000	0.348722
1763.000000	0.348878
1764.000000	0.348961
1765.000000	0.348988
1766.000000	0.349038
1767.000000	0.348868
1768.000000	0.348848
1769.000000	0.349115
1770.000000	0.349201
1771.000000	0.349166
1772.000000	0.349227
1773.000000	0.349183
1774.000000	0.349205
1775.000000	0.349390
1776.000000	0.349533
1777.000000	0.349576
1778.000000	0.349712
1779.000000	0.349954
1780.000000	0.350090
1781.000000	0.350152
1782.000000	0.350221
1783.000000	0.350251
1784.000000	0.350590
1785.000000	0.350853
1786.000000	0.351035
1787.000000	0.351379
1788.000000	0.351734
1789.000000	0.351715
1790.000000	0.351812
1791.000000	0.351897
1792.000000	0.351927
1793.000000	0.352012
1794.000000	0.352281
1795.000000	0.352422
1796.000000	0.352360
1797.000000	0.352479
1798.000000	0.352649
1799.000000	0.352795
1800.000000	0.353142
1801.000000	0.352127
1802.000000	0.352714
1803.000000	0.353744
1804.000000	0.354498
1805.000000	0.355684
1806.000000	0.356192
1807.000000	0.356349
1808.000000	0.356429
1809.000000	0.355968
1810.000000	0.355802
1811.000000	0.355503
1812.000000	0.355162
1813.000000	0.354860
1814.000000	0.354347
1815.000000	0.354209
1816.000000	0.354195
1817.000000	0.354246
1818.000000	0.354561
1819.000000	0.355303
1820.000000	0.355612
1821.000000	0.355094
1822.000000	0.355210
1823.000000	0.355202
1824.000000	0.355082
1825.000000	0.355192
1826.000000	0.355246
1827.000000	0.354869
1828.000000	0.354501
1829.000000	0.354669
1830.000000	0.355107
1831.000000	0.354937
1832.000000	0.354475
1833.000000	0.354252
1834.000000	0.353679
1835.000000	0.353388
1836.000000	0.353467
1837.000000	0.353235
1838.000000	0.352788
1839.000000	0.352240
1840.000000	0.351271
1841.000000	0.350953
1842.000000	0.350676
1843.000000	0.350381
1844.000000	0.350430
1845.000000	0.351262
1846.000000	0.351082
1847.000000	0.350390
1848.000000	0.349645
1849.000000	0.348760
1850.000000	0.347208
1851.000000	0.346604
1852.000000	0.346807
1853.000000	0.346408
1854.000000	0.346052
1855.000000	0.345321
1856.000000	0.344031
1857.000000	0.342848
1858.000000	0.341892
1859.000000	0.340949
1860.000000	0.340841
1861.000000	0.340384
1862.000000	0.339408
1863.000000	0.338321
1864.000000	0.336929
1865.000000	0.334868
1866.000000	0.332938
1867.000000	0.330499
1868.000000	0.328986
1869.000000	0.327047
1870.000000	0.324810
1871.000000	0.322857
1872.000000	0.320167
1873.000000	0.317891
1874.000000	0.315894
1875.000000	0.313497
1876.000000	0.311080
1877.000000	0.307736
1878.000000	0.304167
1879.000000	0.300501
1880.000000	0.296484
1881.000000	0.293669
1882.000000	0.290289
1883.000000	0.286870
1884.000000	0.283566
1885.000000	0.280175
1886.000000	0.276272
1887.000000	0.272441
1888.000000	0.267830
1889.000000	0.262716
1890.000000	0.258315
1891.000000	0.254006
1892.000000	0.249715
1893.000000	0.245721
1894.000000	0.241537
1895.000000	0.237401
1896.000000	0.233194
1897.000000	0.229629
1898.000000	0.225738
1899.000000	0.221949
1900.000000	0.217959
1901.000000	0.213434
1902.000000	0.209389
1903.000000	0.205846
1904.000000	0.202395
1905.000000	0.199198
1906.000000	0.196017
1907.000000	0.192977
1908.000000	0.189651
1909.000000	0.187257
1910.000000	0.185039
1911.000000	0.182581
1912.000000	0.180430
1913.000000	0.177840
1914.000000	0.175501
1915.000000	0.173651
1916.000000	0.172187
1917.000000	0.170671
1918.000000	0.169599
1919.000000	0.168082
1920.000000	0.166292
1921.000000	0.164605
1922.000000	0.162952
1923.000000	0.162429
1924.000000	0.162672
1925.000000	0.162559
1926.000000	0.162707
1927.000000	0.162643
1928.000000	0.162431
1929.000000	0.161927
1930.000000	0.161763
1931.000000	0.161548
1932.000000	0.161147
1933.000000	0.160486
1934.000000	0.160506
1935.000000	0.160913
1936.000000	0.160945
1937.000000	0.161077
1938.000000	0.160714
1939.000000	0.160521
1940.000000	0.160002
1941.000000	0.160051
1942.000000	0.160319
1943.000000	0.160566
1944.000000	0.160400
1945.000000	0.159918
1946.000000	0.159230
1947.000000	0.158840
1948.000000	0.158463
1949.000000	0.158285
1950.000000	0.158596
1951.000000	0.158506
1952.000000	0.158327
1953.000000	0.158065
1954.000000	0.157690
1955.000000	0.157249
1956.000000	0.156881
1957.000000	0.156438
1958.000000	0.156173
1959.000000	0.155847
1960.000000	0.155181
1961.000000	0.155031
1962.000000	0.154770
1963.000000	0.154692
1964.000000	0.153884
1965.000000	0.153704
1966.000000	0.153444
1967.000000	0.152813
1968.000000	0.153624
1969.000000	0.154144
1970.000000	0.153914
1971.000000	0.154112
1972.000000	0.153853
1973.000000	0.153660
1974.000000	0.153405
1975.000000	0.153594
1976.000000	0.154077
1977.000000	0.154255
1978.000000	0.154628
1979.000000	0.155269
1980.000000	0.155388
1981.000000	0.155475
1982.000000	0.156023
1983.000000	0.156412
1984.000000	0.156985
1985.000000	0.158294
1986.000000	0.158808
1987.000000	0.158931
1988.000000	0.159187
1989.000000	0.159579
1990.000000	0.159743
1991.000000	0.160804
1992.000000	0.161880
1993.000000	0.162582
1994.000000	0.163827
1995.000000	0.164583
1996.000000	0.165441
1997.000000	0.166400
1998.000000	0.167476
1999.000000	0.168230
2000.000000	0.169075
2001.000000	0.169624
2002.000000	0.169795
2003.000000	0.170405
2004.000000	0.171248
2005.000000	0.172359
2006.000000	0.173342
2007.000000	0.174143
2008.000000	0.175018
2009.000000	0.175460
2010.000000	0.176360
2011.000000	0.177615
2012.000000	0.178847
2013.000000	0.180140
2014.000000	0.181540
2015.000000	0.183009
2016.000000	0.183679
2017.000000	0.184260
2018.000000	0.185371
2019.000000	0.186156
2020.000000	0.187398
2021.000000	0.188533
2022.000000	0.189725
2023.000000	0.190635
2024.000000	0.191247
2025.000000	0.192168
2026.000000	0.192819
2027.000000	0.194127
2028.000000	0.195697
2029.000000	0.197551
2030.000000	0.198959
2031.000000	0.199983
2032.000000	0.201179
2033.000000	0.202602
2034.000000	0.203676
2035.000000	0.205095
2036.000000	0.205810
2037.000000	0.205861
2038.000000	0.206231
2039.000000	0.206461
2040.000000	0.206769
2041.000000	0.207689
2042.000000	0.208415
2043.000000	0.209408
2044.000000	0.210669
2045.000000	0.211121
2046.000000	0.211572
2047.000000	0.212267
2048.000000	0.212670
2049.000000	0.213785
2050.000000	0.215431
2051.000000	0.216428
2052.000000	0.217391
2053.000000	0.217974
2054.000000	0.218080
2055.000000	0.218662
2056.000000	0.219164
2057.000000	0.220120
2058.000000	0.221551
2059.000000	0.223354
2060.000000	0.224532
2061.000000	0.225657
2062.000000	0.226666
2063.000000	0.227120
2064.000000	0.227832
2065.000000	0.229074
2066.000000	0.229888
2067.000000	0.230682
2068.000000	0.231553
2069.000000	0.231850
2070.000000	0.232714
2071.000000	0.233693
2072.000000	0.234011
2073.000000	0.234632
2074.000000	0.235664
2075.000000	0.236617
2076.000000	0.237811
2077.000000	0.238628
2078.000000	0.239150
2079.000000	0.239832
2080.000000	0.240281
2081.000000	0.241032
2082.000000	0.242190
2083.000000	0.243406
2084.000000	0.244003
2085.000000	0.244391
2086.000000	0.244114
2087.000000	0.243990
2088.000000	0.244622
2089.000000	0.245284
2090.000000	0.246271
2091.000000	0.247964
2092.000000	0.249467
2093.000000	0.251521
2094.000000	0.252566
2095.000000	0.253095
2096.000000	0.253956
2097.000000	0.254223
2098.000000	0.254420
2099.000000	0.256028
2100.000000	0.257617
2101.000000	0.258525
2102.000000	0.259133
2103.000000	0.259529
2104.000000	0.259725
2105.000000	0.259857
2106.000000	0.259882
2107.000000	0.260185
2108.000000	0.260121
2109.000000	0.260730
2110.000000	0.261889
2111.000000	0.262835
2112.000000	0.264063
2113.000000	0.264779
2114.000000	0.265267
2115.000000	0.266719
2116.000000	0.267761
2117.000000	0.268012
2118.000000	0.267978
2119.000000	0.267210
2120.000000	0.266975
2121.000000	0.266314
2122.000000	0.266629
2123.000000	0.267815
2124.000000	0.268422
2125.000000	0.269238
2126.000000	0.269796
2127.000000	0.270327
2128.000000	0.270708
2129.000000	0.270647
2130.000000	0.271216
2131.000000	0.271208
2132.000000	0.270302
2133.000000	0.270171
2134.000000	0.270603
2135.000000	0.271690
2136.000000	0.273058
2137.000000	0.273787
2138.000000	0.274577
2139.000000	0.274854
2140.000000	0.274514
2141.000000	0.274143
2142.000000	0.273027
2143.000000	0.272758
2144.000000	0.272821
2145.000000	0.272983
2146.000000	0.273988
2147.000000	0.275170
2148.000000	0.274843
2149.000000	0.274536
2150.000000	0.274331
2151.000000	0.274632
2152.000000	0.275862
2153.000000	0.277706
2154.000000	0.278426
2155.000000	0.279027
2156.000000	0.278829
2157.000000	0.277029
2158.000000	0.276669
2159.000000	0.276604
2160.000000	0.276858
2161.000000	0.277871
2162.000000	0.278884
2163.000000	0.280358
2164.000000	0.281046
2165.000000	0.282059
2166.000000	0.282067
2167.000000	0.280731
2168.000000	0.279152
2169.000000	0.277839
2170.000000	0.277055
2171.000000	0.276970
2172.000000	0.278062
2173.000000	0.278652
2174.000000	0.279969
2175.000000	0.279995
2176.000000	0.279326
2177.000000	0.278837
2178.000000	0.277564
2179.000000	0.276950
2180.000000	0.276489
2181.000000	0.276537
2182.000000	0.276373
2183.000000	0.276338
2184.000000	0.277013
2185.000000	0.277843
2186.000000	0.278189
2187.000000	0.278599
2188.000000	0.278039
2189.000000	0.277343
2190.000000	0.276893
2191.000000	0.276288
2192.000000	0.276731
2193.000000	0.279021
2194.000000	0.278851
2195.000000	0.278091
2196.000000	0.278014
2197.000000	0.275742
2198.000000	0.275218
2199.000000	0.277419
2200.000000	0.277705
2201.000000	0.277834
2202.000000	0.277946
2203.000000	0.277605
2204.000000	0.275973
2205.000000	0.273972
2206.000000	0.269876
2207.000000	0.267955
2208.000000	0.267577
2209.000000	0.271146
2210.000000	0.275237
2211.000000	0.276497
2212.000000	0.277794
2213.000000	0.278643
2214.000000	0.277204
2215.000000	0.277600
2216.000000	0.279959
2217.000000	0.280521
2218.000000	0.279064
2219.000000	0.279393
2220.000000	0.279944
2221.000000	0.280468
2222.000000	0.283204
2223.000000	0.284537
2224.000000	0.285159
2225.000000	0.285005
2226.000000	0.284545
2227.000000	0.282814
2228.000000	0.281630
2229.000000	0.280324
2230.000000	0.278855
2231.000000	0.278631
2232.000000	0.279395
2233.000000	0.279949
2234.000000	0.282410
2235.000000	0.284036
2236.000000	0.284304
2237.000000	0.283326
2238.000000	0.282949
2239.000000	0.281034
2240.000000	0.280729
2241.000000	0.282493
2242.000000	0.281956
2243.000000	0.280591
2244.000000	0.279929
2245.000000	0.277147
2246.000000	0.276593
2247.000000	0.278092
2248.000000	0.279094
2249.000000	0.281911
2250.000000	0.281961
2251.000000	0.282122
2252.000000	0.280575
2253.000000	0.277327
2254.000000	0.278183
2255.000000	0.280597
2256.000000	0.282612
2257.000000	0.284057
2258.000000	0.284975
2259.000000	0.284223
2260.000000	0.283977
2261.000000	0.283859
2262.000000	0.284301
2263.000000	0.283485
2264.000000	0.282485
2265.000000	0.281532
2266.000000	0.279923
2267.000000	0.278928
2268.000000	0.278049
2269.000000	0.276507
2270.000000	0.275015
2271.000000	0.273816
2272.000000	0.271864
2273.000000	0.270847
2274.000000	0.270377
2275.000000	0.269757
2276.000000	0.269025
2277.000000	0.269943
2278.000000	0.270018
2279.000000	0.269640
2280.000000	0.269424
2281.000000	0.267801
2282.000000	0.265130
2283.000000	0.264109
2284.000000	0.262778
2285.000000	0.261284
2286.000000	0.262896
2287.000000	0.261695
2288.000000	0.259575
2289.000000	0.259379
2290.000000	0.256523
2291.000000	0.256533
2292.000000	0.258910
2293.000000	0.258296
2294.000000	0.257722
2295.000000	0.256912
2296.000000	0.255562
2297.000000	0.252681
2298.000000	0.252272
2299.000000	0.253273
2300.000000	0.253070
2301.000000	0.253699
2302.000000	0.252109
2303.000000	0.248743
2304.000000	0.246188
2305.000000	0.242569
2306.000000	0.240282
2307.000000	0.238376
2308.000000	0.236750
2309.000000	0.238277
2310.000000	0.238845
2311.000000	0.239261
2312.000000	0.238963
2313.000000	0.236564
2314.000000	0.235341
2315.000000	0.234993
2316.000000	0.235764
2317.000000	0.236233
2318.000000	0.236107
2319.000000	0.236287
2320.000000	0.235600
2321.000000	0.236226
2322.000000	0.238049
2323.000000	0.239359
2324.000000	0.240895
2325.000000	0.240083
2326.000000	0.237470
2327.000000	0.234083
2328.000000	0.230018
2329.000000	0.227930
2330.000000	0.226982
2331.000000	0.227010
2332.000000	0.228698
2333.000000	0.232000
2334.000000	0.232610
2335.000000	0.232579
2336.000000	0.231858
2337.000000	0.229918
2338.000000	0.225514
2339.000000	0.223731
2340.000000	0.222121
2341.000000	0.220739
2342.000000	0.219487
2343.000000	0.218770
2344.000000	0.217945
2345.000000	0.218291
2346.000000	0.221398
2347.000000	0.222944
2348.000000	0.224724
2349.000000	0.225330
2350.000000	0.224366
2351.000000	0.220022
2352.000000	0.213343
2353.000000	0.209315
2354.000000	0.201317
2355.000000	0.196869
2356.000000	0.196478
2357.000000	0.194307
2358.000000	0.198937
2359.000000	0.202111
2360.000000	0.200821
2361.000000	0.199713
2362.000000	0.194427
2363.000000	0.189800
2364.000000	0.189673
2365.000000	0.191836
2366.000000	0.194883
2367.000000	0.198951
2368.000000	0.200253
2369.000000	0.195599
2370.000000	0.192465
2371.000000	0.189198
2372.000000	0.185643
2373.000000	0.184969
2374.000000	0.181196
2375.000000	0.177745
2376.000000	0.175043
2377.000000	0.171440
2378.000000	0.171735
2379.000000	0.172708
2380.000000	0.173540
2381.000000	0.175016
2382.000000	0.171580
2383.000000	0.168347
2384.000000	0.166784
2385.000000	0.164311
2386.000000	0.164523
2387.000000	0.161833
2388.000000	0.159856
2389.000000	0.162442
2390.000000	0.163854
2391.000000	0.162775
2392.000000	0.161815
2393.000000	0.161231
2394.000000	0.160458
2395.000000	0.168040
2396.000000	0.172876
2397.000000	0.170725
2398.000000	0.170179
2399.000000	0.164322
2400.000000	0.162133
2401.000000	0.164833
2402.000000	0.171508
2403.000000	0.181422
2404.000000	0.186033
2405.000000	0.189052
2406.000000	0.183209
2407.000000	0.175213
2408.000000	0.170289
2409.000000	0.162983
2410.000000	0.158611
2411.000000	0.157763
2412.000000	0.158711
2413.000000	0.157966
2414.000000	0.166693
2415.000000	0.171353
2416.000000	0.165053
2417.000000	0.167855
2418.000000	0.163435
2419.000000	0.159405
2420.000000	0.166051
2421.000000	0.157718
2422.000000	0.146999
2423.000000	0.143303
2424.000000	0.140077
2425.000000	0.151591
2426.000000	0.165866
2427.000000	0.179742
2428.000000	0.188155
2429.000000	0.179693
2430.000000	0.171298
2431.000000	0.159032
2432.000000	0.150922
2433.000000	0.154051
2434.000000	0.155117
2435.000000	0.148691
2436.000000	0.138306
2437.000000	0.135270
2438.000000	0.141820
2439.000000	0.144787
2440.000000	0.139296
2441.000000	0.138328
2442.000000	0.143380
2443.000000	0.153761
2444.000000	0.167311
2445.000000	0.178371
2446.000000	0.172891
2447.000000	0.168571
2448.000000	0.173925
2449.000000	0.165067
2450.000000	0.152716
2451.000000	0.137430
2452.000000	0.130708
2453.000000	0.129109
2454.000000	0.145435
2455.000000	0.164399
2456.000000	0.162836
2457.000000	0.173998
2458.000000	0.169264
2459.000000	0.160490
2460.000000	0.160382
2461.000000	0.156395
2462.000000	0.152504
2463.000000	0.128561
2464.000000	0.107744
2465.000000	0.096564
2466.000000	0.096538
2467.000000	0.116965
2468.000000	0.139627
2469.000000	0.154662
2470.000000	0.153984
2471.000000	0.154168
2472.000000	0.155554
2473.000000	0.152031
2474.000000	0.125270
2475.000000	0.085272
2476.000000	0.074061
2477.000000	0.066443
2478.000000	0.067732
2479.000000	0.109863
2480.000000	0.138216
2481.000000	0.143842
2482.000000	0.160021
2483.000000	0.139134
2484.000000	0.094386
2485.000000	0.077018
2486.000000	0.071202
2487.000000	0.091271
2488.000000	0.130145
2489.000000	0.155052
2490.000000	0.160562
2491.000000	0.121582
2492.000000	0.115904
2493.000000	0.125433
2494.000000	0.151751
2495.000000	0.223022
2496.000000	0.236268
2497.000000	0.227524
2498.000000	0.198402
2499.000000	0.134668
2500.000000	0.091939
