# Wavelength	SM1200H-30_HEX-60_FV7-10_00000.asd.rts.txt
350.000000	0.388481
351.000000	0.406723
352.000000	0.406645
353.000000	0.400777
354.000000	0.402534
355.000000	0.407354
356.000000	0.416802
357.000000	0.426205
358.000000	0.418200
359.000000	0.421292
360.000000	0.429580
361.000000	0.429481
362.000000	0.422076
363.000000	0.415145
364.000000	0.414147
365.000000	0.423344
366.000000	0.425382
367.000000	0.418351
368.000000	0.414936
369.000000	0.422516
370.000000	0.433687
371.000000	0.437168
372.000000	0.432864
373.000000	0.429031
374.000000	0.431432
375.000000	0.434955
376.000000	0.435594
377.000000	0.432665
378.000000	0.428726
379.000000	0.429208
380.000000	0.431973
381.000000	0.433897
382.000000	0.433209
383.000000	0.432485
384.000000	0.434084
385.000000	0.437177
386.000000	0.439520
387.000000	0.440698
388.000000	0.441561
389.000000	0.440232
390.000000	0.439331
391.000000	0.441719
392.000000	0.440340
393.000000	0.438713
394.000000	0.439867
395.000000	0.440788
396.000000	0.440999
397.000000	0.441143
398.000000	0.443877
399.000000	0.445029
400.000000	0.444796
401.000000	0.444858
402.000000	0.443788
403.000000	0.443500
404.000000	0.445356
405.000000	0.444938
406.000000	0.445168
407.000000	0.446964
408.000000	0.447319
409.000000	0.447487
410.000000	0.447836
411.000000	0.448277
412.000000	0.448650
413.000000	0.449177
414.000000	0.449996
415.000000	0.449943
416.000000	0.450051
417.000000	0.450784
418.000000	0.451094
419.000000	0.451107
420.000000	0.451242
421.000000	0.452240
422.000000	0.453374
423.000000	0.453766
424.000000	0.452955
425.000000	0.453191
426.000000	0.453887
427.000000	0.454289
428.000000	0.454390
429.000000	0.455027
430.000000	0.456036
431.000000	0.455764
432.000000	0.455991
433.000000	0.456530
434.000000	0.456572
435.000000	0.456856
436.000000	0.457158
437.000000	0.457202
438.000000	0.457616
439.000000	0.457929
440.000000	0.458097
441.000000	0.458308
442.000000	0.458878
443.000000	0.459445
444.000000	0.459431
445.000000	0.459472
446.000000	0.459820
447.000000	0.460266
448.000000	0.460971
449.000000	0.461518
450.000000	0.461720
451.000000	0.462054
452.000000	0.462253
453.000000	0.462196
454.000000	0.462325
455.000000	0.462704
456.000000	0.463272
457.000000	0.463577
458.000000	0.464039
459.000000	0.464514
460.000000	0.464893
461.000000	0.465081
462.000000	0.465382
463.000000	0.465597
464.000000	0.465517
465.000000	0.465692
466.000000	0.465954
467.000000	0.465917
468.000000	0.466414
469.000000	0.466855
470.000000	0.466805
471.000000	0.467181
472.000000	0.467492
473.000000	0.467498
474.000000	0.467725
475.000000	0.468027
476.000000	0.468467
477.000000	0.468658
478.000000	0.468728
479.000000	0.469040
480.000000	0.469398
481.000000	0.469662
482.000000	0.469957
483.000000	0.470081
484.000000	0.470592
485.000000	0.470733
486.000000	0.470637
487.000000	0.471071
488.000000	0.471364
489.000000	0.471558
490.000000	0.472097
491.000000	0.472201
492.000000	0.472273
493.000000	0.472664
494.000000	0.472901
495.000000	0.473280
496.000000	0.473860
497.000000	0.474131
498.000000	0.474408
499.000000	0.474870
500.000000	0.475201
501.000000	0.475309
502.000000	0.475475
503.000000	0.475971
504.000000	0.476237
505.000000	0.476454
506.000000	0.476832
507.000000	0.476912
508.000000	0.477125
509.000000	0.477588
510.000000	0.477996
511.000000	0.478257
512.000000	0.478523
513.000000	0.479072
514.000000	0.479372
515.000000	0.479583
516.000000	0.479930
517.000000	0.480231
518.000000	0.480513
519.000000	0.480694
520.000000	0.480987
521.000000	0.481336
522.000000	0.481683
523.000000	0.481913
524.000000	0.482163
525.000000	0.482453
526.000000	0.482821
527.000000	0.483109
528.000000	0.483350
529.000000	0.483683
530.000000	0.483845
531.000000	0.484120
532.000000	0.484479
533.000000	0.484653
534.000000	0.484932
535.000000	0.485293
536.000000	0.485456
537.000000	0.485713
538.000000	0.486032
539.000000	0.486258
540.000000	0.486660
541.000000	0.487050
542.000000	0.487305
543.000000	0.487530
544.000000	0.487838
545.000000	0.488141
546.000000	0.488398
547.000000	0.488767
548.000000	0.489208
549.000000	0.489371
550.000000	0.489657
551.000000	0.490062
552.000000	0.490380
553.000000	0.490695
554.000000	0.491007
555.000000	0.491330
556.000000	0.491734
557.000000	0.492039
558.000000	0.492388
559.000000	0.492684
560.000000	0.492955
561.000000	0.493302
562.000000	0.493593
563.000000	0.493838
564.000000	0.494147
565.000000	0.494434
566.000000	0.494720
567.000000	0.495059
568.000000	0.495423
569.000000	0.495744
570.000000	0.496090
571.000000	0.496416
572.000000	0.496622
573.000000	0.496934
574.000000	0.497247
575.000000	0.497466
576.000000	0.497750
577.000000	0.497994
578.000000	0.498217
579.000000	0.498467
580.000000	0.498768
581.000000	0.499086
582.000000	0.499300
583.000000	0.499529
584.000000	0.499797
585.000000	0.500086
586.000000	0.500384
587.000000	0.500639
588.000000	0.500826
589.000000	0.501130
590.000000	0.501439
591.000000	0.501687
592.000000	0.501982
593.000000	0.502258
594.000000	0.502495
595.000000	0.502721
596.000000	0.502949
597.000000	0.503232
598.000000	0.503463
599.000000	0.503620
600.000000	0.503792
601.000000	0.503936
602.000000	0.504176
603.000000	0.504363
604.000000	0.504472
605.000000	0.504642
606.000000	0.504815
607.000000	0.504984
608.000000	0.505157
609.000000	0.505301
610.000000	0.505439
611.000000	0.505593
612.000000	0.505679
613.000000	0.505797
614.000000	0.506051
615.000000	0.506277
616.000000	0.506376
617.000000	0.506397
618.000000	0.506749
619.000000	0.507027
620.000000	0.507116
621.000000	0.507133
622.000000	0.507246
623.000000	0.507339
624.000000	0.507328
625.000000	0.507451
626.000000	0.507576
627.000000	0.507664
628.000000	0.507833
629.000000	0.508148
630.000000	0.508366
631.000000	0.508555
632.000000	0.508616
633.000000	0.508699
634.000000	0.508916
635.000000	0.509057
636.000000	0.509183
637.000000	0.509319
638.000000	0.509505
639.000000	0.509646
640.000000	0.509812
641.000000	0.509935
642.000000	0.510033
643.000000	0.510148
644.000000	0.510323
645.000000	0.510439
646.000000	0.510528
647.000000	0.510593
648.000000	0.510696
649.000000	0.510839
650.000000	0.510982
651.000000	0.511137
652.000000	0.511230
653.000000	0.511353
654.000000	0.511521
655.000000	0.511692
656.000000	0.511868
657.000000	0.511971
658.000000	0.512115
659.000000	0.512229
660.000000	0.512285
661.000000	0.512437
662.000000	0.512532
663.000000	0.512628
664.000000	0.512727
665.000000	0.512861
666.000000	0.513018
667.000000	0.513127
668.000000	0.513251
669.000000	0.513427
670.000000	0.513643
671.000000	0.513732
672.000000	0.513880
673.000000	0.514084
674.000000	0.514232
675.000000	0.514351
676.000000	0.514481
677.000000	0.514674
678.000000	0.514779
679.000000	0.514856
680.000000	0.514971
681.000000	0.515074
682.000000	0.515232
683.000000	0.515353
684.000000	0.515580
685.000000	0.515770
686.000000	0.515954
687.000000	0.516119
688.000000	0.516216
689.000000	0.516317
690.000000	0.516509
691.000000	0.516614
692.000000	0.516692
693.000000	0.516862
694.000000	0.517012
695.000000	0.517180
696.000000	0.517344
697.000000	0.517468
698.000000	0.517583
699.000000	0.517744
700.000000	0.517967
701.000000	0.518061
702.000000	0.518203
703.000000	0.518394
704.000000	0.518483
705.000000	0.518672
706.000000	0.518829
707.000000	0.518859
708.000000	0.519002
709.000000	0.519152
710.000000	0.519233
711.000000	0.519309
712.000000	0.519400
713.000000	0.519545
714.000000	0.519707
715.000000	0.519878
716.000000	0.520052
717.000000	0.520178
718.000000	0.520254
719.000000	0.520339
720.000000	0.520503
721.000000	0.520699
722.000000	0.520811
723.000000	0.520924
724.000000	0.521087
725.000000	0.521138
726.000000	0.521217
727.000000	0.521295
728.000000	0.521283
729.000000	0.521284
730.000000	0.521307
731.000000	0.521404
732.000000	0.521520
733.000000	0.521669
734.000000	0.521754
735.000000	0.521810
736.000000	0.521999
737.000000	0.522101
738.000000	0.522090
739.000000	0.522145
740.000000	0.522136
741.000000	0.522288
742.000000	0.522475
743.000000	0.522586
744.000000	0.522659
745.000000	0.522674
746.000000	0.522691
747.000000	0.522635
748.000000	0.522638
749.000000	0.522703
750.000000	0.522757
751.000000	0.522804
752.000000	0.522883
753.000000	0.523017
754.000000	0.523168
755.000000	0.523260
756.000000	0.523337
757.000000	0.523393
758.000000	0.523471
759.000000	0.523566
760.000000	0.523583
761.000000	0.523740
762.000000	0.523808
763.000000	0.523793
764.000000	0.523964
765.000000	0.524076
766.000000	0.524172
767.000000	0.524303
768.000000	0.524362
769.000000	0.524379
770.000000	0.524389
771.000000	0.524407
772.000000	0.524522
773.000000	0.524595
774.000000	0.524631
775.000000	0.524653
776.000000	0.524655
777.000000	0.524624
778.000000	0.524670
779.000000	0.524758
780.000000	0.524862
781.000000	0.524921
782.000000	0.524995
783.000000	0.525152
784.000000	0.525165
785.000000	0.525213
786.000000	0.525262
787.000000	0.525280
788.000000	0.525299
789.000000	0.525313
790.000000	0.525310
791.000000	0.525352
792.000000	0.525385
793.000000	0.525409
794.000000	0.525451
795.000000	0.525547
796.000000	0.525586
797.000000	0.525553
798.000000	0.525562
799.000000	0.525596
800.000000	0.525626
801.000000	0.525633
802.000000	0.525648
803.000000	0.525624
804.000000	0.525608
805.000000	0.525602
806.000000	0.525587
807.000000	0.525630
808.000000	0.525581
809.000000	0.525551
810.000000	0.525529
811.000000	0.525484
812.000000	0.525480
813.000000	0.525477
814.000000	0.525487
815.000000	0.525608
816.000000	0.525547
817.000000	0.525512
818.000000	0.525604
819.000000	0.525677
820.000000	0.525681
821.000000	0.525583
822.000000	0.525638
823.000000	0.525678
824.000000	0.525605
825.000000	0.525570
826.000000	0.525648
827.000000	0.525623
828.000000	0.525491
829.000000	0.525503
830.000000	0.525407
831.000000	0.525329
832.000000	0.525290
833.000000	0.525205
834.000000	0.525136
835.000000	0.525162
836.000000	0.525077
837.000000	0.525015
838.000000	0.525057
839.000000	0.525157
840.000000	0.525121
841.000000	0.525006
842.000000	0.524850
843.000000	0.524724
844.000000	0.524671
845.000000	0.524652
846.000000	0.524667
847.000000	0.524722
848.000000	0.524717
849.000000	0.524627
850.000000	0.524581
851.000000	0.524515
852.000000	0.524438
853.000000	0.524281
854.000000	0.524093
855.000000	0.524072
856.000000	0.524093
857.000000	0.524021
858.000000	0.523927
859.000000	0.523770
860.000000	0.523721
861.000000	0.523742
862.000000	0.523788
863.000000	0.523694
864.000000	0.523697
865.000000	0.523666
866.000000	0.523565
867.000000	0.523426
868.000000	0.523492
869.000000	0.523533
870.000000	0.523359
871.000000	0.523199
872.000000	0.523023
873.000000	0.522760
874.000000	0.522699
875.000000	0.522508
876.000000	0.522297
877.000000	0.522209
878.000000	0.522044
879.000000	0.521918
880.000000	0.521700
881.000000	0.521569
882.000000	0.521446
883.000000	0.521260
884.000000	0.520871
885.000000	0.520635
886.000000	0.520502
887.000000	0.520432
888.000000	0.520309
889.000000	0.520359
890.000000	0.520301
891.000000	0.520100
892.000000	0.519911
893.000000	0.519656
894.000000	0.519497
895.000000	0.519340
896.000000	0.519095
897.000000	0.518898
898.000000	0.518902
899.000000	0.518820
900.000000	0.518689
901.000000	0.518490
902.000000	0.518334
903.000000	0.518064
904.000000	0.517892
905.000000	0.517869
906.000000	0.517897
907.000000	0.517759
908.000000	0.517510
909.000000	0.517201
910.000000	0.517048
911.000000	0.516878
912.000000	0.516589
913.000000	0.516546
914.000000	0.516384
915.000000	0.516158
916.000000	0.515962
917.000000	0.515805
918.000000	0.515670
919.000000	0.515514
920.000000	0.515414
921.000000	0.515314
922.000000	0.515133
923.000000	0.514771
924.000000	0.514549
925.000000	0.514249
926.000000	0.513874
927.000000	0.513712
928.000000	0.513556
929.000000	0.513303
930.000000	0.512952
931.000000	0.512773
932.000000	0.512580
933.000000	0.512315
934.000000	0.511915
935.000000	0.511674
936.000000	0.511539
937.000000	0.511225
938.000000	0.510755
939.000000	0.510530
940.000000	0.510393
941.000000	0.510132
942.000000	0.509832
943.000000	0.509596
944.000000	0.509239
945.000000	0.508792
946.000000	0.508315
947.000000	0.507932
948.000000	0.507647
949.000000	0.507520
950.000000	0.507599
951.000000	0.507638
952.000000	0.507347
953.000000	0.507264
954.000000	0.507133
955.000000	0.506684
956.000000	0.506482
957.000000	0.506260
958.000000	0.505966
959.000000	0.505806
960.000000	0.505546
961.000000	0.505142
962.000000	0.504652
963.000000	0.504327
964.000000	0.504094
965.000000	0.503940
966.000000	0.503629
967.000000	0.503095
968.000000	0.502938
969.000000	0.502958
970.000000	0.502778
971.000000	0.502257
972.000000	0.501965
973.000000	0.501855
974.000000	0.501402
975.000000	0.501200
976.000000	0.501152
977.000000	0.501069
978.000000	0.501033
979.000000	0.500901
980.000000	0.500515
981.000000	0.500465
982.000000	0.500181
983.000000	0.499937
984.000000	0.499836
985.000000	0.499498
986.000000	0.499184
987.000000	0.499031
988.000000	0.498892
989.000000	0.498755
990.000000	0.498590
991.000000	0.498400
992.000000	0.498292
993.000000	0.498323
994.000000	0.498181
995.000000	0.498081
996.000000	0.497981
997.000000	0.498269
998.000000	0.498269
999.000000	0.497902
1000.000000	0.497706
1001.000000	0.497929
1002.000000	0.497834
1003.000000	0.498115
1004.000000	0.498036
1005.000000	0.497360
1006.000000	0.496773
1007.000000	0.496268
1008.000000	0.495847
1009.000000	0.495555
1010.000000	0.495264
1011.000000	0.495618
1012.000000	0.496376
1013.000000	0.496035
1014.000000	0.496102
1015.000000	0.496734
1016.000000	0.496376
1017.000000	0.496324
1018.000000	0.496635
1019.000000	0.496754
1020.000000	0.497081
1021.000000	0.496781
1022.000000	0.496555
1023.000000	0.496451
1024.000000	0.495633
1025.000000	0.495464
1026.000000	0.495804
1027.000000	0.495273
1028.000000	0.495412
1029.000000	0.496070
1030.000000	0.495772
1031.000000	0.495984
1032.000000	0.496635
1033.000000	0.496349
1034.000000	0.496301
1035.000000	0.496483
1036.000000	0.496599
1037.000000	0.496366
1038.000000	0.496406
1039.000000	0.496799
1040.000000	0.497374
1041.000000	0.497704
1042.000000	0.497737
1043.000000	0.497622
1044.000000	0.497658
1045.000000	0.497486
1046.000000	0.497405
1047.000000	0.497694
1048.000000	0.498269
1049.000000	0.498197
1050.000000	0.498232
1051.000000	0.498178
1052.000000	0.497409
1053.000000	0.497134
1054.000000	0.497493
1055.000000	0.497668
1056.000000	0.497862
1057.000000	0.498099
1058.000000	0.498534
1059.000000	0.498660
1060.000000	0.498787
1061.000000	0.499531
1062.000000	0.499826
1063.000000	0.500259
1064.000000	0.500550
1065.000000	0.500639
1066.000000	0.500773
1067.000000	0.500735
1068.000000	0.500720
1069.000000	0.500561
1070.000000	0.500642
1071.000000	0.501049
1072.000000	0.501329
1073.000000	0.501926
1074.000000	0.502154
1075.000000	0.502162
1076.000000	0.502157
1077.000000	0.502167
1078.000000	0.502045
1079.000000	0.502058
1080.000000	0.502227
1081.000000	0.502338
1082.000000	0.502638
1083.000000	0.502747
1084.000000	0.502714
1085.000000	0.502931
1086.000000	0.503143
1087.000000	0.503465
1088.000000	0.504016
1089.000000	0.504291
1090.000000	0.504447
1091.000000	0.504361
1092.000000	0.504316
1093.000000	0.504589
1094.000000	0.504590
1095.000000	0.504428
1096.000000	0.504410
1097.000000	0.504275
1098.000000	0.504350
1099.000000	0.504410
1100.000000	0.504813
1101.000000	0.505590
1102.000000	0.505839
1103.000000	0.506022
1104.000000	0.506240
1105.000000	0.506002
1106.000000	0.506068
1107.000000	0.506232
1108.000000	0.506472
1109.000000	0.506885
1110.000000	0.507424
1111.000000	0.507656
1112.000000	0.507995
1113.000000	0.508098
1114.000000	0.507753
1115.000000	0.507837
1116.000000	0.508098
1117.000000	0.508274
1118.000000	0.508584
1119.000000	0.508671
1120.000000	0.508610
1121.000000	0.508615
1122.000000	0.508811
1123.000000	0.509060
1124.000000	0.508759
1125.000000	0.508862
1126.000000	0.509084
1127.000000	0.509104
1128.000000	0.509123
1129.000000	0.509386
1130.000000	0.509500
1131.000000	0.509498
1132.000000	0.509344
1133.000000	0.509170
1134.000000	0.509205
1135.000000	0.509028
1136.000000	0.508993
1137.000000	0.509401
1138.000000	0.509324
1139.000000	0.509012
1140.000000	0.508959
1141.000000	0.508749
1142.000000	0.508657
1143.000000	0.508643
1144.000000	0.508746
1145.000000	0.508705
1146.000000	0.508454
1147.000000	0.508296
1148.000000	0.507968
1149.000000	0.507794
1150.000000	0.507709
1151.000000	0.507588
1152.000000	0.507431
1153.000000	0.507254
1154.000000	0.506943
1155.000000	0.506690
1156.000000	0.506395
1157.000000	0.506253
1158.000000	0.506211
1159.000000	0.506066
1160.000000	0.505937
1161.000000	0.505766
1162.000000	0.505643
1163.000000	0.505498
1164.000000	0.505474
1165.000000	0.505447
1166.000000	0.505470
1167.000000	0.505541
1168.000000	0.505431
1169.000000	0.505260
1170.000000	0.505217
1171.000000	0.505221
1172.000000	0.505227
1173.000000	0.505270
1174.000000	0.505247
1175.000000	0.505046
1176.000000	0.504934
1177.000000	0.505031
1178.000000	0.505051
1179.000000	0.505091
1180.000000	0.504993
1181.000000	0.504997
1182.000000	0.504818
1183.000000	0.504680
1184.000000	0.504743
1185.000000	0.504727
1186.000000	0.504752
1187.000000	0.504697
1188.000000	0.504617
1189.000000	0.504482
1190.000000	0.504380
1191.000000	0.504222
1192.000000	0.504095
1193.000000	0.504199
1194.000000	0.504249
1195.000000	0.504218
1196.000000	0.504145
1197.000000	0.504122
1198.000000	0.504036
1199.000000	0.503971
1200.000000	0.503988
1201.000000	0.503985
1202.000000	0.503816
1203.000000	0.503829
1204.000000	0.503837
1205.000000	0.503733
1206.000000	0.503627
1207.000000	0.503633
1208.000000	0.503563
1209.000000	0.503570
1210.000000	0.503535
1211.000000	0.503469
1212.000000	0.503356
1213.000000	0.503256
1214.000000	0.503205
1215.000000	0.503094
1216.000000	0.503067
1217.000000	0.503058
1218.000000	0.503033
1219.000000	0.503144
1220.000000	0.503154
1221.000000	0.503060
1222.000000	0.503142
1223.000000	0.503055
1224.000000	0.502935
1225.000000	0.502892
1226.000000	0.502664
1227.000000	0.502523
1228.000000	0.502648
1229.000000	0.502652
1230.000000	0.502734
1231.000000	0.502613
1232.000000	0.502499
1233.000000	0.502634
1234.000000	0.502855
1235.000000	0.502833
1236.000000	0.502642
1237.000000	0.502636
1238.000000	0.502389
1239.000000	0.502316
1240.000000	0.502467
1241.000000	0.502668
1242.000000	0.502650
1243.000000	0.502545
1244.000000	0.502618
1245.000000	0.502648
1246.000000	0.502609
1247.000000	0.502671
1248.000000	0.502526
1249.000000	0.502383
1250.000000	0.502389
1251.000000	0.502495
1252.000000	0.502527
1253.000000	0.502740
1254.000000	0.502694
1255.000000	0.502454
1256.000000	0.502320
1257.000000	0.502050
1258.000000	0.502115
1259.000000	0.502393
1260.000000	0.502478
1261.000000	0.502559
1262.000000	0.502572
1263.000000	0.502502
1264.000000	0.502218
1265.000000	0.502195
1266.000000	0.502322
1267.000000	0.502347
1268.000000	0.502413
1269.000000	0.502334
1270.000000	0.502162
1271.000000	0.502041
1272.000000	0.502140
1273.000000	0.502347
1274.000000	0.502522
1275.000000	0.502608
1276.000000	0.502706
1277.000000	0.502778
1278.000000	0.502664
1279.000000	0.502527
1280.000000	0.502179
1281.000000	0.501986
1282.000000	0.501840
1283.000000	0.501903
1284.000000	0.502117
1285.000000	0.502177
1286.000000	0.502170
1287.000000	0.502198
1288.000000	0.502340
1289.000000	0.502312
1290.000000	0.502178
1291.000000	0.502083
1292.000000	0.501834
1293.000000	0.501615
1294.000000	0.501706
1295.000000	0.501750
1296.000000	0.501588
1297.000000	0.501657
1298.000000	0.501648
1299.000000	0.501467
1300.000000	0.501430
1301.000000	0.501280
1302.000000	0.501147
1303.000000	0.501206
1304.000000	0.501105
1305.000000	0.501160
1306.000000	0.501060
1307.000000	0.500923
1308.000000	0.500762
1309.000000	0.500501
1310.000000	0.500291
1311.000000	0.500085
1312.000000	0.499821
1313.000000	0.499665
1314.000000	0.499438
1315.000000	0.499123
1316.000000	0.498838
1317.000000	0.498434
1318.000000	0.498169
1319.000000	0.497965
1320.000000	0.497687
1321.000000	0.497410
1322.000000	0.497103
1323.000000	0.496711
1324.000000	0.496328
1325.000000	0.496059
1326.000000	0.495793
1327.000000	0.495511
1328.000000	0.495361
1329.000000	0.495021
1330.000000	0.494571
1331.000000	0.494228
1332.000000	0.494002
1333.000000	0.493552
1334.000000	0.493145
1335.000000	0.492790
1336.000000	0.492165
1337.000000	0.491820
1338.000000	0.491618
1339.000000	0.491397
1340.000000	0.491166
1341.000000	0.490934
1342.000000	0.490654
1343.000000	0.490182
1344.000000	0.489616
1345.000000	0.489090
1346.000000	0.488655
1347.000000	0.488179
1348.000000	0.487785
1349.000000	0.487326
1350.000000	0.487048
1351.000000	0.486543
1352.000000	0.485818
1353.000000	0.485415
1354.000000	0.484977
1355.000000	0.484343
1356.000000	0.484006
1357.000000	0.483558
1358.000000	0.482844
1359.000000	0.482190
1360.000000	0.481616
1361.000000	0.481110
1362.000000	0.480541
1363.000000	0.480055
1364.000000	0.479544
1365.000000	0.478951
1366.000000	0.478349
1367.000000	0.477756
1368.000000	0.477000
1369.000000	0.476460
1370.000000	0.475838
1371.000000	0.475087
1372.000000	0.474270
1373.000000	0.473273
1374.000000	0.472172
1375.000000	0.470968
1376.000000	0.469752
1377.000000	0.468335
1378.000000	0.466542
1379.000000	0.464377
1380.000000	0.461912
1381.000000	0.459052
1382.000000	0.456000
1383.000000	0.452976
1384.000000	0.449646
1385.000000	0.446399
1386.000000	0.443441
1387.000000	0.440635
1388.000000	0.438207
1389.000000	0.436170
1390.000000	0.434557
1391.000000	0.433136
1392.000000	0.432242
1393.000000	0.431595
1394.000000	0.431501
1395.000000	0.431168
1396.000000	0.431228
1397.000000	0.430666
1398.000000	0.429805
1399.000000	0.428876
1400.000000	0.427668
1401.000000	0.426277
1402.000000	0.424867
1403.000000	0.423148
1404.000000	0.421194
1405.000000	0.419270
1406.000000	0.417346
1407.000000	0.415408
1408.000000	0.413554
1409.000000	0.411884
1410.000000	0.410202
1411.000000	0.408328
1412.000000	0.406352
1413.000000	0.404357
1414.000000	0.402466
1415.000000	0.400862
1416.000000	0.399410
1417.000000	0.398039
1418.000000	0.396482
1419.000000	0.394892
1420.000000	0.393380
1421.000000	0.391959
1422.000000	0.390599
1423.000000	0.389380
1424.000000	0.388099
1425.000000	0.386871
1426.000000	0.385631
1427.000000	0.384391
1428.000000	0.383169
1429.000000	0.381893
1430.000000	0.380748
1431.000000	0.379686
1432.000000	0.378513
1433.000000	0.377300
1434.000000	0.376229
1435.000000	0.375199
1436.000000	0.374292
1437.000000	0.373687
1438.000000	0.372806
1439.000000	0.371855
1440.000000	0.370945
1441.000000	0.369918
1442.000000	0.369036
1443.000000	0.368158
1444.000000	0.367355
1445.000000	0.366640
1446.000000	0.365935
1447.000000	0.365200
1448.000000	0.364497
1449.000000	0.363801
1450.000000	0.363120
1451.000000	0.362478
1452.000000	0.361864
1453.000000	0.361280
1454.000000	0.360684
1455.000000	0.360233
1456.000000	0.359902
1457.000000	0.359475
1458.000000	0.359174
1459.000000	0.358961
1460.000000	0.358589
1461.000000	0.358208
1462.000000	0.357818
1463.000000	0.357310
1464.000000	0.357033
1465.000000	0.357016
1466.000000	0.356930
1467.000000	0.356892
1468.000000	0.356866
1469.000000	0.356932
1470.000000	0.357002
1471.000000	0.357021
1472.000000	0.357095
1473.000000	0.357277
1474.000000	0.357514
1475.000000	0.357964
1476.000000	0.358523
1477.000000	0.359131
1478.000000	0.359697
1479.000000	0.360234
1480.000000	0.360855
1481.000000	0.361410
1482.000000	0.361915
1483.000000	0.362657
1484.000000	0.363519
1485.000000	0.364242
1486.000000	0.365063
1487.000000	0.365826
1488.000000	0.366432
1489.000000	0.367213
1490.000000	0.367985
1491.000000	0.368736
1492.000000	0.369486
1493.000000	0.370236
1494.000000	0.370945
1495.000000	0.371607
1496.000000	0.372215
1497.000000	0.372810
1498.000000	0.373400
1499.000000	0.373959
1500.000000	0.374506
1501.000000	0.375033
1502.000000	0.375547
1503.000000	0.376165
1504.000000	0.376846
1505.000000	0.377512
1506.000000	0.378125
1507.000000	0.378572
1508.000000	0.379067
1509.000000	0.379711
1510.000000	0.380328
1511.000000	0.380984
1512.000000	0.381527
1513.000000	0.381875
1514.000000	0.382256
1515.000000	0.382659
1516.000000	0.383040
1517.000000	0.383330
1518.000000	0.383597
1519.000000	0.383801
1520.000000	0.384118
1521.000000	0.384323
1522.000000	0.384566
1523.000000	0.384988
1524.000000	0.385211
1525.000000	0.385558
1526.000000	0.385921
1527.000000	0.386137
1528.000000	0.386467
1529.000000	0.386771
1530.000000	0.386934
1531.000000	0.387136
1532.000000	0.387229
1533.000000	0.387276
1534.000000	0.387454
1535.000000	0.387618
1536.000000	0.387755
1537.000000	0.388025
1538.000000	0.388259
1539.000000	0.388435
1540.000000	0.388660
1541.000000	0.388895
1542.000000	0.389156
1543.000000	0.389336
1544.000000	0.389353
1545.000000	0.389413
1546.000000	0.389418
1547.000000	0.389409
1548.000000	0.389541
1549.000000	0.389582
1550.000000	0.389619
1551.000000	0.389693
1552.000000	0.389696
1553.000000	0.389777
1554.000000	0.389826
1555.000000	0.389785
1556.000000	0.389819
1557.000000	0.389839
1558.000000	0.389862
1559.000000	0.389788
1560.000000	0.389825
1561.000000	0.389988
1562.000000	0.389972
1563.000000	0.389990
1564.000000	0.389951
1565.000000	0.389741
1566.000000	0.389573
1567.000000	0.389545
1568.000000	0.389570
1569.000000	0.389708
1570.000000	0.389793
1571.000000	0.389940
1572.000000	0.389937
1573.000000	0.389809
1574.000000	0.389793
1575.000000	0.389800
1576.000000	0.389863
1577.000000	0.390003
1578.000000	0.389991
1579.000000	0.389977
1580.000000	0.389998
1581.000000	0.390082
1582.000000	0.390114
1583.000000	0.390130
1584.000000	0.390116
1585.000000	0.390120
1586.000000	0.390128
1587.000000	0.390183
1588.000000	0.390242
1589.000000	0.390300
1590.000000	0.390369
1591.000000	0.390506
1592.000000	0.390595
1593.000000	0.390648
1594.000000	0.390698
1595.000000	0.390846
1596.000000	0.390917
1597.000000	0.391003
1598.000000	0.391044
1599.000000	0.391045
1600.000000	0.391004
1601.000000	0.390992
1602.000000	0.391009
1603.000000	0.391050
1604.000000	0.391138
1605.000000	0.391351
1606.000000	0.391425
1607.000000	0.391531
1608.000000	0.391617
1609.000000	0.391635
1610.000000	0.391719
1611.000000	0.391909
1612.000000	0.392051
1613.000000	0.392343
1614.000000	0.392498
1615.000000	0.392663
1616.000000	0.392843
1617.000000	0.392849
1618.000000	0.392999
1619.000000	0.393208
1620.000000	0.393398
1621.000000	0.393705
1622.000000	0.393980
1623.000000	0.394112
1624.000000	0.394434
1625.000000	0.394721
1626.000000	0.394963
1627.000000	0.395352
1628.000000	0.395686
1629.000000	0.395828
1630.000000	0.396154
1631.000000	0.396534
1632.000000	0.396848
1633.000000	0.397210
1634.000000	0.397580
1635.000000	0.398023
1636.000000	0.398331
1637.000000	0.398620
1638.000000	0.398853
1639.000000	0.399015
1640.000000	0.399232
1641.000000	0.399538
1642.000000	0.399896
1643.000000	0.400355
1644.000000	0.400680
1645.000000	0.401034
1646.000000	0.401217
1647.000000	0.401268
1648.000000	0.401370
1649.000000	0.401488
1650.000000	0.401785
1651.000000	0.402195
1652.000000	0.402611
1653.000000	0.403107
1654.000000	0.403552
1655.000000	0.403922
1656.000000	0.404221
1657.000000	0.404586
1658.000000	0.404922
1659.000000	0.405273
1660.000000	0.405739
1661.000000	0.406217
1662.000000	0.406602
1663.000000	0.406987
1664.000000	0.407302
1665.000000	0.407491
1666.000000	0.407839
1667.000000	0.408115
1668.000000	0.408393
1669.000000	0.408677
1670.000000	0.408906
1671.000000	0.409246
1672.000000	0.409615
1673.000000	0.409949
1674.000000	0.410269
1675.000000	0.410662
1676.000000	0.410863
1677.000000	0.411010
1678.000000	0.411246
1679.000000	0.411306
1680.000000	0.411507
1681.000000	0.411884
1682.000000	0.412133
1683.000000	0.412482
1684.000000	0.412746
1685.000000	0.412865
1686.000000	0.412866
1687.000000	0.412873
1688.000000	0.412978
1689.000000	0.413253
1690.000000	0.413591
1691.000000	0.413938
1692.000000	0.414072
1693.000000	0.414102
1694.000000	0.414243
1695.000000	0.414482
1696.000000	0.414690
1697.000000	0.414779
1698.000000	0.414772
1699.000000	0.414883
1700.000000	0.415063
1701.000000	0.415274
1702.000000	0.415273
1703.000000	0.415284
1704.000000	0.415386
1705.000000	0.415487
1706.000000	0.415773
1707.000000	0.415882
1708.000000	0.415725
1709.000000	0.415709
1710.000000	0.415788
1711.000000	0.415921
1712.000000	0.416248
1713.000000	0.416493
1714.000000	0.416687
1715.000000	0.417035
1716.000000	0.417637
1717.000000	0.417950
1718.000000	0.418077
1719.000000	0.418336
1720.000000	0.418607
1721.000000	0.418783
1722.000000	0.419082
1723.000000	0.419261
1724.000000	0.419149
1725.000000	0.419375
1726.000000	0.419748
1727.000000	0.419970
1728.000000	0.420130
1729.000000	0.420255
1730.000000	0.420447
1731.000000	0.420649
1732.000000	0.420941
1733.000000	0.421227
1734.000000	0.421271
1735.000000	0.421486
1736.000000	0.421775
1737.000000	0.421948
1738.000000	0.422099
1739.000000	0.422376
1740.000000	0.422643
1741.000000	0.422840
1742.000000	0.423172
1743.000000	0.423369
1744.000000	0.423366
1745.000000	0.423443
1746.000000	0.423531
1747.000000	0.423582
1748.000000	0.423635
1749.000000	0.423856
1750.000000	0.423879
1751.000000	0.423897
1752.000000	0.424101
1753.000000	0.424050
1754.000000	0.424130
1755.000000	0.424352
1756.000000	0.424514
1757.000000	0.424699
1758.000000	0.424865
1759.000000	0.425016
1760.000000	0.425123
1761.000000	0.425182
1762.000000	0.425127
1763.000000	0.424902
1764.000000	0.424880
1765.000000	0.424827
1766.000000	0.424849
1767.000000	0.424983
1768.000000	0.424973
1769.000000	0.424917
1770.000000	0.425093
1771.000000	0.425341
1772.000000	0.425523
1773.000000	0.425746
1774.000000	0.425938
1775.000000	0.426145
1776.000000	0.426316
1777.000000	0.426397
1778.000000	0.426635
1779.000000	0.426909
1780.000000	0.427103
1781.000000	0.427323
1782.000000	0.427547
1783.000000	0.427730
1784.000000	0.427999
1785.000000	0.428279
1786.000000	0.428291
1787.000000	0.428333
1788.000000	0.428568
1789.000000	0.428652
1790.000000	0.428945
1791.000000	0.428971
1792.000000	0.428622
1793.000000	0.428735
1794.000000	0.429169
1795.000000	0.429423
1796.000000	0.429964
1797.000000	0.430251
1798.000000	0.430078
1799.000000	0.430149
1800.000000	0.430389
1801.000000	0.430374
1802.000000	0.430500
1803.000000	0.429742
1804.000000	0.430020
1805.000000	0.430884
1806.000000	0.431250
1807.000000	0.431852
1808.000000	0.432178
1809.000000	0.431749
1810.000000	0.432182
1811.000000	0.432073
1812.000000	0.431907
1813.000000	0.431855
1814.000000	0.431736
1815.000000	0.431408
1816.000000	0.431131
1817.000000	0.430587
1818.000000	0.429142
1819.000000	0.429058
1820.000000	0.429641
1821.000000	0.430095
1822.000000	0.430209
1823.000000	0.430845
1824.000000	0.430540
1825.000000	0.428491
1826.000000	0.428223
1827.000000	0.428579
1828.000000	0.428687
1829.000000	0.429042
1830.000000	0.429487
1831.000000	0.429328
1832.000000	0.427975
1833.000000	0.427729
1834.000000	0.428038
1835.000000	0.428141
1836.000000	0.428629
1837.000000	0.428601
1838.000000	0.428335
1839.000000	0.427291
1840.000000	0.426609
1841.000000	0.426099
1842.000000	0.425559
1843.000000	0.425101
1844.000000	0.424812
1845.000000	0.424466
1846.000000	0.424271
1847.000000	0.424354
1848.000000	0.423898
1849.000000	0.423431
1850.000000	0.422441
1851.000000	0.421538
1852.000000	0.420302
1853.000000	0.419245
1854.000000	0.418121
1855.000000	0.416698
1856.000000	0.414867
1857.000000	0.413083
1858.000000	0.411845
1859.000000	0.410739
1860.000000	0.409365
1861.000000	0.408184
1862.000000	0.406579
1863.000000	0.404583
1864.000000	0.402565
1865.000000	0.400883
1866.000000	0.398383
1867.000000	0.395738
1868.000000	0.391501
1869.000000	0.387364
1870.000000	0.383203
1871.000000	0.379675
1872.000000	0.377495
1873.000000	0.374513
1874.000000	0.372254
1875.000000	0.368838
1876.000000	0.364555
1877.000000	0.359265
1878.000000	0.354462
1879.000000	0.349672
1880.000000	0.344996
1881.000000	0.340076
1882.000000	0.334647
1883.000000	0.328608
1884.000000	0.322585
1885.000000	0.315509
1886.000000	0.309529
1887.000000	0.304093
1888.000000	0.298178
1889.000000	0.291874
1890.000000	0.286007
1891.000000	0.279115
1892.000000	0.271895
1893.000000	0.265974
1894.000000	0.260199
1895.000000	0.254273
1896.000000	0.248495
1897.000000	0.243236
1898.000000	0.237960
1899.000000	0.233013
1900.000000	0.228154
1901.000000	0.223434
1902.000000	0.219053
1903.000000	0.214565
1904.000000	0.210265
1905.000000	0.206395
1906.000000	0.202744
1907.000000	0.199122
1908.000000	0.195951
1909.000000	0.193598
1910.000000	0.191454
1911.000000	0.189060
1912.000000	0.186245
1913.000000	0.183896
1914.000000	0.182195
1915.000000	0.180374
1916.000000	0.178886
1917.000000	0.177608
1918.000000	0.176617
1919.000000	0.175277
1920.000000	0.174069
1921.000000	0.173325
1922.000000	0.172227
1923.000000	0.170987
1924.000000	0.170066
1925.000000	0.169357
1926.000000	0.169238
1927.000000	0.169283
1928.000000	0.169138
1929.000000	0.169220
1930.000000	0.169233
1931.000000	0.168840
1932.000000	0.168171
1933.000000	0.167826
1934.000000	0.168105
1935.000000	0.168317
1936.000000	0.169191
1937.000000	0.170189
1938.000000	0.170417
1939.000000	0.170704
1940.000000	0.171007
1941.000000	0.170973
1942.000000	0.170589
1943.000000	0.170261
1944.000000	0.169892
1945.000000	0.169253
1946.000000	0.168788
1947.000000	0.168641
1948.000000	0.168262
1949.000000	0.168341
1950.000000	0.168518
1951.000000	0.168363
1952.000000	0.168161
1953.000000	0.167949
1954.000000	0.167234
1955.000000	0.166826
1956.000000	0.166734
1957.000000	0.166645
1958.000000	0.166431
1959.000000	0.165563
1960.000000	0.164574
1961.000000	0.163729
1962.000000	0.163139
1963.000000	0.162755
1964.000000	0.162878
1965.000000	0.163037
1966.000000	0.163044
1967.000000	0.163494
1968.000000	0.164087
1969.000000	0.164166
1970.000000	0.164496
1971.000000	0.164341
1972.000000	0.164050
1973.000000	0.164134
1974.000000	0.164520
1975.000000	0.164869
1976.000000	0.165610
1977.000000	0.166003
1978.000000	0.166274
1979.000000	0.166723
1980.000000	0.166755
1981.000000	0.167663
1982.000000	0.168277
1983.000000	0.168924
1984.000000	0.169618
1985.000000	0.170290
1986.000000	0.170739
1987.000000	0.171232
1988.000000	0.171625
1989.000000	0.172171
1990.000000	0.173432
1991.000000	0.174257
1992.000000	0.175370
1993.000000	0.176081
1994.000000	0.176249
1995.000000	0.177165
1996.000000	0.178271
1997.000000	0.179284
1998.000000	0.180739
1999.000000	0.181868
2000.000000	0.182773
2001.000000	0.183504
2002.000000	0.184708
2003.000000	0.186000
2004.000000	0.187232
2005.000000	0.188485
2006.000000	0.189609
2007.000000	0.190734
2008.000000	0.191824
2009.000000	0.192939
2010.000000	0.194150
2011.000000	0.195131
2012.000000	0.196249
2013.000000	0.197477
2014.000000	0.198627
2015.000000	0.200268
2016.000000	0.201804
2017.000000	0.202903
2018.000000	0.204026
2019.000000	0.204516
2020.000000	0.205288
2021.000000	0.206367
2022.000000	0.207777
2023.000000	0.209152
2024.000000	0.210523
2025.000000	0.212177
2026.000000	0.214029
2027.000000	0.215910
2028.000000	0.217556
2029.000000	0.219598
2030.000000	0.220837
2031.000000	0.221678
2032.000000	0.223112
2033.000000	0.224237
2034.000000	0.225346
2035.000000	0.226757
2036.000000	0.227812
2037.000000	0.228442
2038.000000	0.229487
2039.000000	0.230838
2040.000000	0.231921
2041.000000	0.232518
2042.000000	0.233879
2043.000000	0.234786
2044.000000	0.235483
2045.000000	0.237287
2046.000000	0.238286
2047.000000	0.239194
2048.000000	0.239820
2049.000000	0.240843
2050.000000	0.241305
2051.000000	0.242372
2052.000000	0.243965
2053.000000	0.245175
2054.000000	0.246503
2055.000000	0.248129
2056.000000	0.249311
2057.000000	0.250416
2058.000000	0.252148
2059.000000	0.252951
2060.000000	0.253633
2061.000000	0.254357
2062.000000	0.254671
2063.000000	0.254011
2064.000000	0.254179
2065.000000	0.254466
2066.000000	0.255276
2067.000000	0.256840
2068.000000	0.258751
2069.000000	0.260473
2070.000000	0.261929
2071.000000	0.262720
2072.000000	0.263943
2073.000000	0.265578
2074.000000	0.266792
2075.000000	0.268109
2076.000000	0.269744
2077.000000	0.270629
2078.000000	0.270693
2079.000000	0.271631
2080.000000	0.272883
2081.000000	0.273975
2082.000000	0.275371
2083.000000	0.276872
2084.000000	0.277878
2085.000000	0.278478
2086.000000	0.280017
2087.000000	0.281249
2088.000000	0.281767
2089.000000	0.282780
2090.000000	0.283740
2091.000000	0.284285
2092.000000	0.285384
2093.000000	0.287295
2094.000000	0.288459
2095.000000	0.289552
2096.000000	0.290567
2097.000000	0.291108
2098.000000	0.291621
2099.000000	0.292858
2100.000000	0.294102
2101.000000	0.295537
2102.000000	0.296303
2103.000000	0.296806
2104.000000	0.297645
2105.000000	0.298615
2106.000000	0.300147
2107.000000	0.301159
2108.000000	0.301837
2109.000000	0.302771
2110.000000	0.303125
2111.000000	0.303815
2112.000000	0.305000
2113.000000	0.305870
2114.000000	0.306017
2115.000000	0.306713
2116.000000	0.307004
2117.000000	0.307314
2118.000000	0.307939
2119.000000	0.308860
2120.000000	0.309598
2121.000000	0.310352
2122.000000	0.311137
2123.000000	0.311858
2124.000000	0.312594
2125.000000	0.313719
2126.000000	0.314244
2127.000000	0.314069
2128.000000	0.314629
2129.000000	0.315313
2130.000000	0.315643
2131.000000	0.316530
2132.000000	0.318020
2133.000000	0.319477
2134.000000	0.320930
2135.000000	0.321060
2136.000000	0.320757
2137.000000	0.320594
2138.000000	0.319164
2139.000000	0.318993
2140.000000	0.319835
2141.000000	0.320153
2142.000000	0.320596
2143.000000	0.320651
2144.000000	0.320615
2145.000000	0.320841
2146.000000	0.321187
2147.000000	0.321551
2148.000000	0.321922
2149.000000	0.322660
2150.000000	0.323276
2151.000000	0.324000
2152.000000	0.324514
2153.000000	0.324245
2154.000000	0.324381
2155.000000	0.324554
2156.000000	0.324274
2157.000000	0.324102
2158.000000	0.323856
2159.000000	0.322565
2160.000000	0.322227
2161.000000	0.322514
2162.000000	0.322673
2163.000000	0.323144
2164.000000	0.323762
2165.000000	0.324784
2166.000000	0.325083
2167.000000	0.325483
2168.000000	0.325865
2169.000000	0.325527
2170.000000	0.325292
2171.000000	0.325515
2172.000000	0.326146
2173.000000	0.326108
2174.000000	0.326250
2175.000000	0.326048
2176.000000	0.325313
2177.000000	0.324754
2178.000000	0.323808
2179.000000	0.323812
2180.000000	0.324243
2181.000000	0.324570
2182.000000	0.324917
2183.000000	0.325230
2184.000000	0.325352
2185.000000	0.324911
2186.000000	0.324568
2187.000000	0.324851
2188.000000	0.323871
2189.000000	0.322741
2190.000000	0.322503
2191.000000	0.322452
2192.000000	0.322824
2193.000000	0.324414
2194.000000	0.325222
2195.000000	0.326430
2196.000000	0.326358
2197.000000	0.324772
2198.000000	0.324323
2199.000000	0.323232
2200.000000	0.323462
2201.000000	0.325452
2202.000000	0.326850
2203.000000	0.328604
2204.000000	0.329958
2205.000000	0.330702
2206.000000	0.330700
2207.000000	0.327581
2208.000000	0.324283
2209.000000	0.321834
2210.000000	0.319870
2211.000000	0.320650
2212.000000	0.322477
2213.000000	0.323450
2214.000000	0.324818
2215.000000	0.325067
2216.000000	0.324397
2217.000000	0.324418
2218.000000	0.324250
2219.000000	0.323625
2220.000000	0.322806
2221.000000	0.323001
2222.000000	0.322655
2223.000000	0.323196
2224.000000	0.326356
2225.000000	0.326614
2226.000000	0.324972
2227.000000	0.326032
2228.000000	0.324649
2229.000000	0.324215
2230.000000	0.326347
2231.000000	0.324011
2232.000000	0.324321
2233.000000	0.325842
2234.000000	0.325148
2235.000000	0.328213
2236.000000	0.329362
2237.000000	0.329705
2238.000000	0.330329
2239.000000	0.331528
2240.000000	0.331368
2241.000000	0.329965
2242.000000	0.329054
2243.000000	0.327875
2244.000000	0.325971
2245.000000	0.323253
2246.000000	0.322062
2247.000000	0.320156
2248.000000	0.320204
2249.000000	0.322087
2250.000000	0.324936
2251.000000	0.328563
2252.000000	0.328878
2253.000000	0.328519
2254.000000	0.327551
2255.000000	0.324446
2256.000000	0.324261
2257.000000	0.323480
2258.000000	0.323058
2259.000000	0.323110
2260.000000	0.320349
2261.000000	0.319105
2262.000000	0.317506
2263.000000	0.316660
2264.000000	0.316804
2265.000000	0.317308
2266.000000	0.318501
2267.000000	0.318841
2268.000000	0.319663
2269.000000	0.319487
2270.000000	0.317824
2271.000000	0.317233
2272.000000	0.317047
2273.000000	0.316280
2274.000000	0.315847
2275.000000	0.315012
2276.000000	0.312937
2277.000000	0.311851
2278.000000	0.313252
2279.000000	0.312202
2280.000000	0.312140
2281.000000	0.312029
2282.000000	0.308594
2283.000000	0.307381
2284.000000	0.306782
2285.000000	0.303316
2286.000000	0.302095
2287.000000	0.298725
2288.000000	0.293902
2289.000000	0.292913
2290.000000	0.289613
2291.000000	0.287838
2292.000000	0.287788
2293.000000	0.286066
2294.000000	0.285733
2295.000000	0.286955
2296.000000	0.286436
2297.000000	0.285674
2298.000000	0.284595
2299.000000	0.282238
2300.000000	0.280716
2301.000000	0.280588
2302.000000	0.278392
2303.000000	0.274953
2304.000000	0.272232
2305.000000	0.267823
2306.000000	0.264906
2307.000000	0.262984
2308.000000	0.261308
2309.000000	0.261261
2310.000000	0.260034
2311.000000	0.259987
2312.000000	0.260259
2313.000000	0.259455
2314.000000	0.260912
2315.000000	0.260515
2316.000000	0.259802
2317.000000	0.258286
2318.000000	0.255428
2319.000000	0.255286
2320.000000	0.255846
2321.000000	0.257709
2322.000000	0.260230
2323.000000	0.259944
2324.000000	0.259276
2325.000000	0.257788
2326.000000	0.254981
2327.000000	0.254412
2328.000000	0.255368
2329.000000	0.256811
2330.000000	0.259155
2331.000000	0.262418
2332.000000	0.263386
2333.000000	0.263344
2334.000000	0.261630
2335.000000	0.259638
2336.000000	0.255401
2337.000000	0.253656
2338.000000	0.252417
2339.000000	0.251156
2340.000000	0.250753
2341.000000	0.248567
2342.000000	0.244621
2343.000000	0.242715
2344.000000	0.240905
2345.000000	0.240019
2346.000000	0.242504
2347.000000	0.242328
2348.000000	0.241884
2349.000000	0.238797
2350.000000	0.233543
2351.000000	0.227911
2352.000000	0.222779
2353.000000	0.223261
2354.000000	0.225673
2355.000000	0.227791
2356.000000	0.231326
2357.000000	0.230143
2358.000000	0.229325
2359.000000	0.228623
2360.000000	0.222002
2361.000000	0.219020
2362.000000	0.217045
2363.000000	0.211542
2364.000000	0.209870
2365.000000	0.209803
2366.000000	0.207737
2367.000000	0.205561
2368.000000	0.205283
2369.000000	0.202609
2370.000000	0.199011
2371.000000	0.200014
2372.000000	0.201232
2373.000000	0.200775
2374.000000	0.200146
2375.000000	0.197994
2376.000000	0.193806
2377.000000	0.194115
2378.000000	0.196901
2379.000000	0.195958
2380.000000	0.194145
2381.000000	0.191688
2382.000000	0.189254
2383.000000	0.188656
2384.000000	0.194199
2385.000000	0.199815
2386.000000	0.198853
2387.000000	0.198247
2388.000000	0.196444
2389.000000	0.189356
2390.000000	0.177804
2391.000000	0.169681
2392.000000	0.165211
2393.000000	0.161502
2394.000000	0.166571
2395.000000	0.175895
2396.000000	0.180291
2397.000000	0.180783
2398.000000	0.179013
2399.000000	0.175777
2400.000000	0.170101
2401.000000	0.161437
2402.000000	0.154753
2403.000000	0.152418
2404.000000	0.147579
2405.000000	0.149528
2406.000000	0.156190
2407.000000	0.156386
2408.000000	0.162319
2409.000000	0.167777
2410.000000	0.173637
2411.000000	0.171490
2412.000000	0.159803
2413.000000	0.155674
2414.000000	0.149566
2415.000000	0.153025
2416.000000	0.161014
2417.000000	0.163220
2418.000000	0.166112
2419.000000	0.165593
2420.000000	0.168466
2421.000000	0.169750
2422.000000	0.170716
2423.000000	0.172809
2424.000000	0.171545
2425.000000	0.173300
2426.000000	0.169740
2427.000000	0.159863
2428.000000	0.150310
2429.000000	0.141396
2430.000000	0.141766
2431.000000	0.142609
2432.000000	0.147543
2433.000000	0.152883
2434.000000	0.138415
2435.000000	0.142601
2436.000000	0.154832
2437.000000	0.157437
2438.000000	0.165420
2439.000000	0.153857
2440.000000	0.139092
2441.000000	0.133918
2442.000000	0.135446
2443.000000	0.148708
2444.000000	0.162003
2445.000000	0.160512
2446.000000	0.156872
2447.000000	0.153062
2448.000000	0.149091
2449.000000	0.160616
2450.000000	0.167237
2451.000000	0.174621
2452.000000	0.166412
2453.000000	0.140323
2454.000000	0.138176
2455.000000	0.133486
2456.000000	0.126348
2457.000000	0.130648
2458.000000	0.119296
2459.000000	0.101839
2460.000000	0.099648
2461.000000	0.106674
2462.000000	0.115167
2463.000000	0.127749
2464.000000	0.144441
2465.000000	0.154606
2466.000000	0.159278
2467.000000	0.165315
2468.000000	0.158478
2469.000000	0.138532
2470.000000	0.122654
2471.000000	0.125896
2472.000000	0.141962
2473.000000	0.152716
2474.000000	0.163748
2475.000000	0.159473
2476.000000	0.140801
2477.000000	0.136007
2478.000000	0.139327
2479.000000	0.123017
2480.000000	0.126215
2481.000000	0.161911
2482.000000	0.170048
2483.000000	0.179921
2484.000000	0.171720
2485.000000	0.110349
2486.000000	0.095382
2487.000000	0.129370
2488.000000	0.150883
2489.000000	0.167183
2490.000000	0.159991
2491.000000	0.088659
2492.000000	0.075675
2493.000000	0.122989
2494.000000	0.144285
2495.000000	0.201860
2496.000000	0.214891
2497.000000	0.164993
2498.000000	0.150280
2499.000000	0.115606
2500.000000	0.110368
