# Wavelength	SM1200H-10_HEX-70_FV7-20_00000.asd.rts.txt
350.000000	0.276817
351.000000	0.284501
352.000000	0.280037
353.000000	0.280011
354.000000	0.292901
355.000000	0.298684
356.000000	0.296720
357.000000	0.293420
358.000000	0.295954
359.000000	0.298989
360.000000	0.298529
361.000000	0.292569
362.000000	0.294144
363.000000	0.299900
364.000000	0.304161
365.000000	0.302430
366.000000	0.297003
367.000000	0.294407
368.000000	0.306885
369.000000	0.308688
370.000000	0.302921
371.000000	0.300581
372.000000	0.302433
373.000000	0.306002
374.000000	0.309248
375.000000	0.309249
376.000000	0.309474
377.000000	0.311003
378.000000	0.313203
379.000000	0.314860
380.000000	0.315452
381.000000	0.315598
382.000000	0.311501
383.000000	0.308800
384.000000	0.310607
385.000000	0.309527
386.000000	0.309705
387.000000	0.312014
388.000000	0.313591
389.000000	0.313544
390.000000	0.313489
391.000000	0.315291
392.000000	0.315778
393.000000	0.317037
394.000000	0.320029
395.000000	0.319773
396.000000	0.319509
397.000000	0.319826
398.000000	0.317614
399.000000	0.316706
400.000000	0.317907
401.000000	0.320420
402.000000	0.320725
403.000000	0.320558
404.000000	0.321898
405.000000	0.322589
406.000000	0.323409
407.000000	0.324622
408.000000	0.325386
409.000000	0.325261
410.000000	0.324428
411.000000	0.323438
412.000000	0.323333
413.000000	0.324341
414.000000	0.326107
415.000000	0.326326
416.000000	0.326297
417.000000	0.326949
418.000000	0.327989
419.000000	0.328442
420.000000	0.328338
421.000000	0.328553
422.000000	0.328921
423.000000	0.329319
424.000000	0.329737
425.000000	0.330290
426.000000	0.330754
427.000000	0.330905
428.000000	0.330609
429.000000	0.330680
430.000000	0.331292
431.000000	0.331817
432.000000	0.332015
433.000000	0.332144
434.000000	0.332843
435.000000	0.333487
436.000000	0.333876
437.000000	0.333976
438.000000	0.334243
439.000000	0.334321
440.000000	0.334177
441.000000	0.333922
442.000000	0.334260
443.000000	0.334956
444.000000	0.335287
445.000000	0.334782
446.000000	0.334729
447.000000	0.336163
448.000000	0.336246
449.000000	0.335991
450.000000	0.336352
451.000000	0.337008
452.000000	0.337348
453.000000	0.337332
454.000000	0.337918
455.000000	0.338334
456.000000	0.338549
457.000000	0.338584
458.000000	0.338629
459.000000	0.338923
460.000000	0.339567
461.000000	0.339749
462.000000	0.340160
463.000000	0.340747
464.000000	0.340692
465.000000	0.340915
466.000000	0.341370
467.000000	0.341594
468.000000	0.341996
469.000000	0.342260
470.000000	0.342238
471.000000	0.342415
472.000000	0.342524
473.000000	0.342489
474.000000	0.342765
475.000000	0.343059
476.000000	0.343406
477.000000	0.343696
478.000000	0.343914
479.000000	0.344200
480.000000	0.344305
481.000000	0.344607
482.000000	0.344977
483.000000	0.345029
484.000000	0.345369
485.000000	0.345527
486.000000	0.345591
487.000000	0.345947
488.000000	0.346255
489.000000	0.346479
490.000000	0.346730
491.000000	0.347040
492.000000	0.347431
493.000000	0.347729
494.000000	0.348040
495.000000	0.348378
496.000000	0.348707
497.000000	0.349181
498.000000	0.349386
499.000000	0.349394
500.000000	0.349596
501.000000	0.349888
502.000000	0.350269
503.000000	0.350637
504.000000	0.350936
505.000000	0.351177
506.000000	0.351412
507.000000	0.351737
508.000000	0.352005
509.000000	0.352145
510.000000	0.352444
511.000000	0.352881
512.000000	0.353358
513.000000	0.353614
514.000000	0.353877
515.000000	0.354195
516.000000	0.354474
517.000000	0.354752
518.000000	0.355098
519.000000	0.355441
520.000000	0.355783
521.000000	0.356115
522.000000	0.356438
523.000000	0.356743
524.000000	0.357017
525.000000	0.357284
526.000000	0.357653
527.000000	0.357913
528.000000	0.358120
529.000000	0.358431
530.000000	0.358657
531.000000	0.358924
532.000000	0.359192
533.000000	0.359413
534.000000	0.359726
535.000000	0.360095
536.000000	0.360354
537.000000	0.360647
538.000000	0.360972
539.000000	0.361255
540.000000	0.361479
541.000000	0.361696
542.000000	0.361985
543.000000	0.362191
544.000000	0.362470
545.000000	0.362796
546.000000	0.363124
547.000000	0.363445
548.000000	0.363780
549.000000	0.364054
550.000000	0.364359
551.000000	0.364696
552.000000	0.364981
553.000000	0.365287
554.000000	0.365656
555.000000	0.366085
556.000000	0.366420
557.000000	0.366668
558.000000	0.366992
559.000000	0.367261
560.000000	0.367524
561.000000	0.367861
562.000000	0.368164
563.000000	0.368417
564.000000	0.368693
565.000000	0.368949
566.000000	0.369342
567.000000	0.369762
568.000000	0.370110
569.000000	0.370438
570.000000	0.370757
571.000000	0.371052
572.000000	0.371320
573.000000	0.371662
574.000000	0.371986
575.000000	0.372229
576.000000	0.372539
577.000000	0.372820
578.000000	0.373086
579.000000	0.373453
580.000000	0.373756
581.000000	0.373961
582.000000	0.374265
583.000000	0.374563
584.000000	0.374853
585.000000	0.375185
586.000000	0.375511
587.000000	0.375777
588.000000	0.375964
589.000000	0.376258
590.000000	0.376592
591.000000	0.376895
592.000000	0.377128
593.000000	0.377325
594.000000	0.377521
595.000000	0.377764
596.000000	0.378029
597.000000	0.378308
598.000000	0.378472
599.000000	0.378604
600.000000	0.378841
601.000000	0.379140
602.000000	0.379280
603.000000	0.379414
604.000000	0.379649
605.000000	0.379986
606.000000	0.380193
607.000000	0.380305
608.000000	0.380527
609.000000	0.380797
610.000000	0.381035
611.000000	0.381183
612.000000	0.381384
613.000000	0.381571
614.000000	0.381740
615.000000	0.381900
616.000000	0.382025
617.000000	0.382110
618.000000	0.382311
619.000000	0.382499
620.000000	0.382626
621.000000	0.382744
622.000000	0.382791
623.000000	0.382848
624.000000	0.382960
625.000000	0.382970
626.000000	0.382984
627.000000	0.383073
628.000000	0.383234
629.000000	0.383494
630.000000	0.383686
631.000000	0.383903
632.000000	0.384075
633.000000	0.384241
634.000000	0.384438
635.000000	0.384674
636.000000	0.384889
637.000000	0.385031
638.000000	0.385167
639.000000	0.385311
640.000000	0.385508
641.000000	0.385616
642.000000	0.385787
643.000000	0.385964
644.000000	0.386053
645.000000	0.386239
646.000000	0.386431
647.000000	0.386522
648.000000	0.386609
649.000000	0.386814
650.000000	0.387090
651.000000	0.387245
652.000000	0.387390
653.000000	0.387550
654.000000	0.387616
655.000000	0.387774
656.000000	0.387984
657.000000	0.388109
658.000000	0.388216
659.000000	0.388349
660.000000	0.388504
661.000000	0.388674
662.000000	0.388777
663.000000	0.388911
664.000000	0.389151
665.000000	0.389399
666.000000	0.389600
667.000000	0.389698
668.000000	0.389861
669.000000	0.390028
670.000000	0.390156
671.000000	0.390247
672.000000	0.390357
673.000000	0.390499
674.000000	0.390681
675.000000	0.390867
676.000000	0.391021
677.000000	0.391146
678.000000	0.391322
679.000000	0.391522
680.000000	0.391717
681.000000	0.391840
682.000000	0.392010
683.000000	0.392178
684.000000	0.392429
685.000000	0.392594
686.000000	0.392726
687.000000	0.392879
688.000000	0.392995
689.000000	0.393143
690.000000	0.393400
691.000000	0.393657
692.000000	0.393832
693.000000	0.394003
694.000000	0.394205
695.000000	0.394404
696.000000	0.394588
697.000000	0.394753
698.000000	0.394901
699.000000	0.395052
700.000000	0.395222
701.000000	0.395364
702.000000	0.395486
703.000000	0.395575
704.000000	0.395662
705.000000	0.395813
706.000000	0.395964
707.000000	0.396122
708.000000	0.396274
709.000000	0.396420
710.000000	0.396581
711.000000	0.396694
712.000000	0.396789
713.000000	0.396926
714.000000	0.397132
715.000000	0.397315
716.000000	0.397449
717.000000	0.397515
718.000000	0.397711
719.000000	0.397921
720.000000	0.398052
721.000000	0.398221
722.000000	0.398338
723.000000	0.398463
724.000000	0.398635
725.000000	0.398671
726.000000	0.398706
727.000000	0.398793
728.000000	0.398920
729.000000	0.399065
730.000000	0.399149
731.000000	0.399276
732.000000	0.399405
733.000000	0.399553
734.000000	0.399665
735.000000	0.399723
736.000000	0.399859
737.000000	0.399938
738.000000	0.400050
739.000000	0.400224
740.000000	0.400258
741.000000	0.400333
742.000000	0.400439
743.000000	0.400516
744.000000	0.400553
745.000000	0.400551
746.000000	0.400589
747.000000	0.400637
748.000000	0.400730
749.000000	0.400873
750.000000	0.401002
751.000000	0.401059
752.000000	0.401093
753.000000	0.401144
754.000000	0.401212
755.000000	0.401285
756.000000	0.401370
757.000000	0.401414
758.000000	0.401445
759.000000	0.401559
760.000000	0.401704
761.000000	0.401879
762.000000	0.402002
763.000000	0.402060
764.000000	0.402185
765.000000	0.402259
766.000000	0.402314
767.000000	0.402390
768.000000	0.402462
769.000000	0.402487
770.000000	0.402481
771.000000	0.402535
772.000000	0.402658
773.000000	0.402743
774.000000	0.402810
775.000000	0.402818
776.000000	0.402862
777.000000	0.402963
778.000000	0.402974
779.000000	0.403056
780.000000	0.403202
781.000000	0.403222
782.000000	0.403210
783.000000	0.403284
784.000000	0.403318
785.000000	0.403371
786.000000	0.403419
787.000000	0.403443
788.000000	0.403476
789.000000	0.403526
790.000000	0.403547
791.000000	0.403532
792.000000	0.403594
793.000000	0.403674
794.000000	0.403731
795.000000	0.403857
796.000000	0.403929
797.000000	0.403918
798.000000	0.403904
799.000000	0.403839
800.000000	0.403772
801.000000	0.403765
802.000000	0.403753
803.000000	0.403742
804.000000	0.403797
805.000000	0.403935
806.000000	0.403964
807.000000	0.403985
808.000000	0.404033
809.000000	0.404076
810.000000	0.404112
811.000000	0.404128
812.000000	0.404139
813.000000	0.404161
814.000000	0.404191
815.000000	0.404236
816.000000	0.404204
817.000000	0.404179
818.000000	0.404150
819.000000	0.404117
820.000000	0.404109
821.000000	0.404084
822.000000	0.404090
823.000000	0.404160
824.000000	0.404202
825.000000	0.404242
826.000000	0.404258
827.000000	0.404257
828.000000	0.404295
829.000000	0.404303
830.000000	0.404271
831.000000	0.404266
832.000000	0.404183
833.000000	0.404141
834.000000	0.404167
835.000000	0.404264
836.000000	0.404227
837.000000	0.404086
838.000000	0.403947
839.000000	0.403916
840.000000	0.403913
841.000000	0.403947
842.000000	0.403953
843.000000	0.403790
844.000000	0.403698
845.000000	0.403696
846.000000	0.403659
847.000000	0.403651
848.000000	0.403631
849.000000	0.403587
850.000000	0.403520
851.000000	0.403410
852.000000	0.403339
853.000000	0.403381
854.000000	0.403388
855.000000	0.403444
856.000000	0.403448
857.000000	0.403413
858.000000	0.403342
859.000000	0.403137
860.000000	0.402841
861.000000	0.402702
862.000000	0.402721
863.000000	0.402691
864.000000	0.402659
865.000000	0.402557
866.000000	0.402430
867.000000	0.402439
868.000000	0.402400
869.000000	0.402227
870.000000	0.402039
871.000000	0.401889
872.000000	0.401810
873.000000	0.401724
874.000000	0.401633
875.000000	0.401530
876.000000	0.401391
877.000000	0.401120
878.000000	0.400891
879.000000	0.400785
880.000000	0.400646
881.000000	0.400558
882.000000	0.400386
883.000000	0.400197
884.000000	0.400041
885.000000	0.399885
886.000000	0.399704
887.000000	0.399527
888.000000	0.399355
889.000000	0.399245
890.000000	0.399064
891.000000	0.398923
892.000000	0.398881
893.000000	0.398700
894.000000	0.398437
895.000000	0.398144
896.000000	0.397886
897.000000	0.397739
898.000000	0.397728
899.000000	0.397628
900.000000	0.397454
901.000000	0.397268
902.000000	0.397343
903.000000	0.397256
904.000000	0.397117
905.000000	0.396987
906.000000	0.396765
907.000000	0.396443
908.000000	0.396133
909.000000	0.395838
910.000000	0.395716
911.000000	0.395610
912.000000	0.395385
913.000000	0.395189
914.000000	0.394956
915.000000	0.394737
916.000000	0.394459
917.000000	0.394206
918.000000	0.394089
919.000000	0.394067
920.000000	0.393830
921.000000	0.393581
922.000000	0.393361
923.000000	0.393106
924.000000	0.392933
925.000000	0.392689
926.000000	0.392391
927.000000	0.392242
928.000000	0.392140
929.000000	0.392012
930.000000	0.391808
931.000000	0.391504
932.000000	0.391237
933.000000	0.391049
934.000000	0.390746
935.000000	0.390523
936.000000	0.390295
937.000000	0.389869
938.000000	0.389488
939.000000	0.389305
940.000000	0.389168
941.000000	0.388957
942.000000	0.388636
943.000000	0.388416
944.000000	0.388198
945.000000	0.387842
946.000000	0.387446
947.000000	0.387191
948.000000	0.387099
949.000000	0.386831
950.000000	0.386576
951.000000	0.386326
952.000000	0.386031
953.000000	0.385834
954.000000	0.385721
955.000000	0.385526
956.000000	0.385142
957.000000	0.384824
958.000000	0.384508
959.000000	0.384201
960.000000	0.384110
961.000000	0.383910
962.000000	0.383530
963.000000	0.383303
964.000000	0.382961
965.000000	0.382632
966.000000	0.382337
967.000000	0.382213
968.000000	0.381982
969.000000	0.381563
970.000000	0.381181
971.000000	0.381022
972.000000	0.380992
973.000000	0.380862
974.000000	0.380541
975.000000	0.380386
976.000000	0.380245
977.000000	0.379971
978.000000	0.379800
979.000000	0.379816
980.000000	0.379652
981.000000	0.379412
982.000000	0.379203
983.000000	0.378821
984.000000	0.378484
985.000000	0.378607
986.000000	0.378285
987.000000	0.378065
988.000000	0.378141
989.000000	0.377838
990.000000	0.377608
991.000000	0.377512
992.000000	0.377509
993.000000	0.377440
994.000000	0.377118
995.000000	0.376852
996.000000	0.376769
997.000000	0.376777
998.000000	0.376618
999.000000	0.376387
1000.000000	0.376378
1001.000000	0.376538
1002.000000	0.376273
1003.000000	0.376573
1004.000000	0.376673
1005.000000	0.377204
1006.000000	0.376997
1007.000000	0.376510
1008.000000	0.375753
1009.000000	0.375510
1010.000000	0.374695
1011.000000	0.373970
1012.000000	0.374452
1013.000000	0.374500
1014.000000	0.374649
1015.000000	0.375500
1016.000000	0.375777
1017.000000	0.375357
1018.000000	0.374710
1019.000000	0.374340
1020.000000	0.373896
1021.000000	0.373423
1022.000000	0.373546
1023.000000	0.373735
1024.000000	0.373765
1025.000000	0.373680
1026.000000	0.374128
1027.000000	0.374223
1028.000000	0.374689
1029.000000	0.375482
1030.000000	0.375470
1031.000000	0.375018
1032.000000	0.374926
1033.000000	0.374715
1034.000000	0.374540
1035.000000	0.374619
1036.000000	0.374853
1037.000000	0.374939
1038.000000	0.375044
1039.000000	0.375676
1040.000000	0.375956
1041.000000	0.375761
1042.000000	0.375898
1043.000000	0.376197
1044.000000	0.376508
1045.000000	0.376714
1046.000000	0.376662
1047.000000	0.376824
1048.000000	0.376737
1049.000000	0.376840
1050.000000	0.377480
1051.000000	0.377541
1052.000000	0.377061
1053.000000	0.376838
1054.000000	0.376457
1055.000000	0.376615
1056.000000	0.377247
1057.000000	0.377911
1058.000000	0.378403
1059.000000	0.378648
1060.000000	0.378515
1061.000000	0.378615
1062.000000	0.378848
1063.000000	0.379163
1064.000000	0.379357
1065.000000	0.379330
1066.000000	0.379590
1067.000000	0.380119
1068.000000	0.380144
1069.000000	0.380050
1070.000000	0.379911
1071.000000	0.378968
1072.000000	0.378957
1073.000000	0.379501
1074.000000	0.380389
1075.000000	0.381020
1076.000000	0.381416
1077.000000	0.381226
1078.000000	0.380852
1079.000000	0.380771
1080.000000	0.380772
1081.000000	0.380887
1082.000000	0.381181
1083.000000	0.381524
1084.000000	0.382187
1085.000000	0.382695
1086.000000	0.383346
1087.000000	0.383677
1088.000000	0.383427
1089.000000	0.383558
1090.000000	0.383659
1091.000000	0.383753
1092.000000	0.384350
1093.000000	0.385122
1094.000000	0.385193
1095.000000	0.384675
1096.000000	0.384877
1097.000000	0.384978
1098.000000	0.385234
1099.000000	0.386191
1100.000000	0.386450
1101.000000	0.386012
1102.000000	0.385996
1103.000000	0.385774
1104.000000	0.385974
1105.000000	0.386824
1106.000000	0.387152
1107.000000	0.387312
1108.000000	0.387493
1109.000000	0.387562
1110.000000	0.387342
1111.000000	0.387470
1112.000000	0.387846
1113.000000	0.388059
1114.000000	0.388265
1115.000000	0.388501
1116.000000	0.388815
1117.000000	0.388958
1118.000000	0.388946
1119.000000	0.389041
1120.000000	0.389108
1121.000000	0.389174
1122.000000	0.389468
1123.000000	0.389845
1124.000000	0.389879
1125.000000	0.390033
1126.000000	0.390212
1127.000000	0.390303
1128.000000	0.390354
1129.000000	0.390397
1130.000000	0.390501
1131.000000	0.390681
1132.000000	0.390636
1133.000000	0.390522
1134.000000	0.390588
1135.000000	0.390472
1136.000000	0.390525
1137.000000	0.391009
1138.000000	0.390976
1139.000000	0.390571
1140.000000	0.390668
1141.000000	0.390802
1142.000000	0.390871
1143.000000	0.391227
1144.000000	0.391488
1145.000000	0.391378
1146.000000	0.391058
1147.000000	0.390949
1148.000000	0.390695
1149.000000	0.390733
1150.000000	0.391035
1151.000000	0.391091
1152.000000	0.391220
1153.000000	0.391139
1154.000000	0.390709
1155.000000	0.390449
1156.000000	0.390160
1157.000000	0.389958
1158.000000	0.389750
1159.000000	0.389580
1160.000000	0.389425
1161.000000	0.389322
1162.000000	0.389317
1163.000000	0.389513
1164.000000	0.389584
1165.000000	0.389459
1166.000000	0.389395
1167.000000	0.389155
1168.000000	0.389032
1169.000000	0.388966
1170.000000	0.388989
1171.000000	0.389173
1172.000000	0.389227
1173.000000	0.389252
1174.000000	0.389244
1175.000000	0.389082
1176.000000	0.388960
1177.000000	0.388905
1178.000000	0.388935
1179.000000	0.389092
1180.000000	0.389044
1181.000000	0.389046
1182.000000	0.389033
1183.000000	0.389089
1184.000000	0.389160
1185.000000	0.389072
1186.000000	0.388975
1187.000000	0.388928
1188.000000	0.388742
1189.000000	0.388579
1190.000000	0.388649
1191.000000	0.388521
1192.000000	0.388258
1193.000000	0.388287
1194.000000	0.388256
1195.000000	0.388295
1196.000000	0.388414
1197.000000	0.388481
1198.000000	0.388622
1199.000000	0.388693
1200.000000	0.388796
1201.000000	0.388709
1202.000000	0.388452
1203.000000	0.388394
1204.000000	0.388368
1205.000000	0.388268
1206.000000	0.388247
1207.000000	0.388474
1208.000000	0.388510
1209.000000	0.388614
1210.000000	0.388611
1211.000000	0.388486
1212.000000	0.388387
1213.000000	0.388262
1214.000000	0.388196
1215.000000	0.388169
1216.000000	0.388118
1217.000000	0.388062
1218.000000	0.387929
1219.000000	0.387712
1220.000000	0.387641
1221.000000	0.387573
1222.000000	0.387529
1223.000000	0.387761
1224.000000	0.387873
1225.000000	0.387881
1226.000000	0.387952
1227.000000	0.387826
1228.000000	0.387791
1229.000000	0.387750
1230.000000	0.387706
1231.000000	0.387625
1232.000000	0.387711
1233.000000	0.387806
1234.000000	0.387875
1235.000000	0.387873
1236.000000	0.387760
1237.000000	0.387726
1238.000000	0.387627
1239.000000	0.387509
1240.000000	0.387381
1241.000000	0.387260
1242.000000	0.387232
1243.000000	0.387239
1244.000000	0.387310
1245.000000	0.387383
1246.000000	0.387345
1247.000000	0.387435
1248.000000	0.387523
1249.000000	0.387479
1250.000000	0.387408
1251.000000	0.387382
1252.000000	0.387365
1253.000000	0.387474
1254.000000	0.387464
1255.000000	0.387394
1256.000000	0.387303
1257.000000	0.387143
1258.000000	0.387156
1259.000000	0.387145
1260.000000	0.387233
1261.000000	0.387418
1262.000000	0.387460
1263.000000	0.387485
1264.000000	0.387491
1265.000000	0.387479
1266.000000	0.387491
1267.000000	0.387559
1268.000000	0.387602
1269.000000	0.387558
1270.000000	0.387538
1271.000000	0.387483
1272.000000	0.387515
1273.000000	0.387630
1274.000000	0.387667
1275.000000	0.387655
1276.000000	0.387699
1277.000000	0.387721
1278.000000	0.387458
1279.000000	0.387426
1280.000000	0.387467
1281.000000	0.387395
1282.000000	0.387412
1283.000000	0.387551
1284.000000	0.387608
1285.000000	0.387635
1286.000000	0.387712
1287.000000	0.387758
1288.000000	0.387670
1289.000000	0.387566
1290.000000	0.387452
1291.000000	0.387376
1292.000000	0.387410
1293.000000	0.387408
1294.000000	0.387202
1295.000000	0.387061
1296.000000	0.387013
1297.000000	0.386907
1298.000000	0.387043
1299.000000	0.387131
1300.000000	0.386988
1301.000000	0.386916
1302.000000	0.386743
1303.000000	0.386570
1304.000000	0.386459
1305.000000	0.386500
1306.000000	0.386398
1307.000000	0.386380
1308.000000	0.386395
1309.000000	0.386322
1310.000000	0.386301
1311.000000	0.386473
1312.000000	0.386298
1313.000000	0.386176
1314.000000	0.386075
1315.000000	0.385748
1316.000000	0.385709
1317.000000	0.385674
1318.000000	0.385412
1319.000000	0.385297
1320.000000	0.385242
1321.000000	0.384876
1322.000000	0.384571
1323.000000	0.384363
1324.000000	0.383979
1325.000000	0.383702
1326.000000	0.383533
1327.000000	0.383259
1328.000000	0.383108
1329.000000	0.382924
1330.000000	0.382823
1331.000000	0.382664
1332.000000	0.382608
1333.000000	0.382378
1334.000000	0.382053
1335.000000	0.381898
1336.000000	0.381698
1337.000000	0.381525
1338.000000	0.381388
1339.000000	0.381357
1340.000000	0.381122
1341.000000	0.380837
1342.000000	0.380508
1343.000000	0.380007
1344.000000	0.379481
1345.000000	0.379108
1346.000000	0.379085
1347.000000	0.378956
1348.000000	0.378665
1349.000000	0.378351
1350.000000	0.378040
1351.000000	0.377598
1352.000000	0.377392
1353.000000	0.377297
1354.000000	0.377084
1355.000000	0.376813
1356.000000	0.376448
1357.000000	0.376068
1358.000000	0.375704
1359.000000	0.375330
1360.000000	0.375054
1361.000000	0.375000
1362.000000	0.374742
1363.000000	0.374404
1364.000000	0.374121
1365.000000	0.373645
1366.000000	0.373446
1367.000000	0.373426
1368.000000	0.373327
1369.000000	0.373279
1370.000000	0.372995
1371.000000	0.372426
1372.000000	0.371867
1373.000000	0.371379
1374.000000	0.370961
1375.000000	0.370446
1376.000000	0.369978
1377.000000	0.369571
1378.000000	0.368915
1379.000000	0.368056
1380.000000	0.367257
1381.000000	0.366280
1382.000000	0.365148
1383.000000	0.364196
1384.000000	0.363077
1385.000000	0.361823
1386.000000	0.360824
1387.000000	0.359833
1388.000000	0.358809
1389.000000	0.357857
1390.000000	0.357001
1391.000000	0.356387
1392.000000	0.355888
1393.000000	0.355273
1394.000000	0.354820
1395.000000	0.354231
1396.000000	0.353530
1397.000000	0.352722
1398.000000	0.351851
1399.000000	0.350887
1400.000000	0.349716
1401.000000	0.348591
1402.000000	0.347520
1403.000000	0.346369
1404.000000	0.345150
1405.000000	0.343895
1406.000000	0.342668
1407.000000	0.341391
1408.000000	0.340098
1409.000000	0.338842
1410.000000	0.337374
1411.000000	0.335911
1412.000000	0.334574
1413.000000	0.333087
1414.000000	0.331634
1415.000000	0.330293
1416.000000	0.328824
1417.000000	0.327482
1418.000000	0.326104
1419.000000	0.324672
1420.000000	0.323338
1421.000000	0.322010
1422.000000	0.320615
1423.000000	0.319410
1424.000000	0.318115
1425.000000	0.316820
1426.000000	0.315628
1427.000000	0.314371
1428.000000	0.313198
1429.000000	0.312032
1430.000000	0.310899
1431.000000	0.310001
1432.000000	0.309032
1433.000000	0.308126
1434.000000	0.307158
1435.000000	0.306223
1436.000000	0.305299
1437.000000	0.304331
1438.000000	0.303410
1439.000000	0.302591
1440.000000	0.301799
1441.000000	0.301021
1442.000000	0.300280
1443.000000	0.299546
1444.000000	0.298838
1445.000000	0.298024
1446.000000	0.297269
1447.000000	0.296590
1448.000000	0.295893
1449.000000	0.295386
1450.000000	0.294959
1451.000000	0.294469
1452.000000	0.294007
1453.000000	0.293519
1454.000000	0.293040
1455.000000	0.292629
1456.000000	0.292258
1457.000000	0.291922
1458.000000	0.291668
1459.000000	0.291522
1460.000000	0.291302
1461.000000	0.290938
1462.000000	0.290580
1463.000000	0.290214
1464.000000	0.290016
1465.000000	0.289937
1466.000000	0.289696
1467.000000	0.289468
1468.000000	0.289146
1469.000000	0.288857
1470.000000	0.288741
1471.000000	0.288755
1472.000000	0.288819
1473.000000	0.288921
1474.000000	0.289046
1475.000000	0.289182
1476.000000	0.289332
1477.000000	0.289604
1478.000000	0.289876
1479.000000	0.290174
1480.000000	0.290603
1481.000000	0.291009
1482.000000	0.291529
1483.000000	0.292022
1484.000000	0.292505
1485.000000	0.292981
1486.000000	0.293398
1487.000000	0.293909
1488.000000	0.294500
1489.000000	0.295117
1490.000000	0.295741
1491.000000	0.296276
1492.000000	0.296736
1493.000000	0.297210
1494.000000	0.297520
1495.000000	0.297941
1496.000000	0.298450
1497.000000	0.298917
1498.000000	0.299350
1499.000000	0.299982
1500.000000	0.300490
1501.000000	0.300792
1502.000000	0.301195
1503.000000	0.301546
1504.000000	0.301896
1505.000000	0.302412
1506.000000	0.302862
1507.000000	0.303178
1508.000000	0.303558
1509.000000	0.303910
1510.000000	0.304195
1511.000000	0.304609
1512.000000	0.304900
1513.000000	0.305117
1514.000000	0.305485
1515.000000	0.305743
1516.000000	0.306130
1517.000000	0.306537
1518.000000	0.306735
1519.000000	0.306858
1520.000000	0.306945
1521.000000	0.306960
1522.000000	0.307095
1523.000000	0.307318
1524.000000	0.307399
1525.000000	0.307566
1526.000000	0.307785
1527.000000	0.307883
1528.000000	0.308042
1529.000000	0.308252
1530.000000	0.308300
1531.000000	0.308356
1532.000000	0.308567
1533.000000	0.308661
1534.000000	0.308577
1535.000000	0.308625
1536.000000	0.308635
1537.000000	0.308764
1538.000000	0.309090
1539.000000	0.309252
1540.000000	0.309376
1541.000000	0.309460
1542.000000	0.309498
1543.000000	0.309655
1544.000000	0.309715
1545.000000	0.309768
1546.000000	0.309837
1547.000000	0.309829
1548.000000	0.309875
1549.000000	0.309887
1550.000000	0.309947
1551.000000	0.310050
1552.000000	0.310090
1553.000000	0.310179
1554.000000	0.310262
1555.000000	0.310302
1556.000000	0.310326
1557.000000	0.310326
1558.000000	0.310351
1559.000000	0.310236
1560.000000	0.310240
1561.000000	0.310420
1562.000000	0.310432
1563.000000	0.310441
1564.000000	0.310455
1565.000000	0.310405
1566.000000	0.310277
1567.000000	0.310181
1568.000000	0.310132
1569.000000	0.310125
1570.000000	0.310092
1571.000000	0.310113
1572.000000	0.310106
1573.000000	0.310071
1574.000000	0.309991
1575.000000	0.309898
1576.000000	0.309864
1577.000000	0.309715
1578.000000	0.309723
1579.000000	0.310022
1580.000000	0.310060
1581.000000	0.310102
1582.000000	0.310127
1583.000000	0.309958
1584.000000	0.309899
1585.000000	0.310091
1586.000000	0.310087
1587.000000	0.309960
1588.000000	0.309924
1589.000000	0.309788
1590.000000	0.309803
1591.000000	0.310006
1592.000000	0.310121
1593.000000	0.310327
1594.000000	0.310374
1595.000000	0.310363
1596.000000	0.310404
1597.000000	0.310436
1598.000000	0.310438
1599.000000	0.310463
1600.000000	0.310446
1601.000000	0.310447
1602.000000	0.310451
1603.000000	0.310500
1604.000000	0.310536
1605.000000	0.310544
1606.000000	0.310588
1607.000000	0.310758
1608.000000	0.310813
1609.000000	0.310885
1610.000000	0.310967
1611.000000	0.310976
1612.000000	0.311061
1613.000000	0.311333
1614.000000	0.311459
1615.000000	0.311628
1616.000000	0.311785
1617.000000	0.311804
1618.000000	0.311878
1619.000000	0.311965
1620.000000	0.312022
1621.000000	0.312081
1622.000000	0.312281
1623.000000	0.312478
1624.000000	0.312710
1625.000000	0.312951
1626.000000	0.313053
1627.000000	0.313043
1628.000000	0.313271
1629.000000	0.313546
1630.000000	0.313861
1631.000000	0.314321
1632.000000	0.314566
1633.000000	0.314722
1634.000000	0.314880
1635.000000	0.314981
1636.000000	0.315162
1637.000000	0.315353
1638.000000	0.315530
1639.000000	0.315780
1640.000000	0.316039
1641.000000	0.316393
1642.000000	0.316663
1643.000000	0.316949
1644.000000	0.317273
1645.000000	0.317613
1646.000000	0.317795
1647.000000	0.317961
1648.000000	0.318124
1649.000000	0.318214
1650.000000	0.318434
1651.000000	0.318888
1652.000000	0.319183
1653.000000	0.319287
1654.000000	0.319582
1655.000000	0.319917
1656.000000	0.320068
1657.000000	0.320241
1658.000000	0.320500
1659.000000	0.320786
1660.000000	0.321108
1661.000000	0.321551
1662.000000	0.321827
1663.000000	0.321890
1664.000000	0.322122
1665.000000	0.322397
1666.000000	0.322728
1667.000000	0.323101
1668.000000	0.323307
1669.000000	0.323399
1670.000000	0.323513
1671.000000	0.323608
1672.000000	0.323916
1673.000000	0.324344
1674.000000	0.324716
1675.000000	0.325092
1676.000000	0.325396
1677.000000	0.325508
1678.000000	0.325512
1679.000000	0.325617
1680.000000	0.325717
1681.000000	0.325795
1682.000000	0.325905
1683.000000	0.325993
1684.000000	0.326015
1685.000000	0.326040
1686.000000	0.326256
1687.000000	0.326574
1688.000000	0.326623
1689.000000	0.326781
1690.000000	0.327030
1691.000000	0.327072
1692.000000	0.327132
1693.000000	0.327337
1694.000000	0.327353
1695.000000	0.327442
1696.000000	0.327688
1697.000000	0.327748
1698.000000	0.327666
1699.000000	0.327717
1700.000000	0.327715
1701.000000	0.327916
1702.000000	0.328214
1703.000000	0.328344
1704.000000	0.328467
1705.000000	0.328672
1706.000000	0.328992
1707.000000	0.329147
1708.000000	0.329158
1709.000000	0.329315
1710.000000	0.329580
1711.000000	0.329711
1712.000000	0.330012
1713.000000	0.330164
1714.000000	0.330039
1715.000000	0.330075
1716.000000	0.330181
1717.000000	0.330353
1718.000000	0.330621
1719.000000	0.330711
1720.000000	0.330874
1721.000000	0.330947
1722.000000	0.330775
1723.000000	0.330828
1724.000000	0.331029
1725.000000	0.331196
1726.000000	0.331324
1727.000000	0.331471
1728.000000	0.331580
1729.000000	0.331625
1730.000000	0.331774
1731.000000	0.331925
1732.000000	0.332005
1733.000000	0.332317
1734.000000	0.332687
1735.000000	0.332916
1736.000000	0.333151
1737.000000	0.333340
1738.000000	0.333417
1739.000000	0.333574
1740.000000	0.333807
1741.000000	0.333878
1742.000000	0.333814
1743.000000	0.334043
1744.000000	0.334300
1745.000000	0.334550
1746.000000	0.334990
1747.000000	0.335139
1748.000000	0.335222
1749.000000	0.335289
1750.000000	0.335263
1751.000000	0.335175
1752.000000	0.335291
1753.000000	0.335303
1754.000000	0.335382
1755.000000	0.335602
1756.000000	0.335723
1757.000000	0.335811
1758.000000	0.335895
1759.000000	0.335871
1760.000000	0.335952
1761.000000	0.336030
1762.000000	0.336140
1763.000000	0.336415
1764.000000	0.336551
1765.000000	0.336535
1766.000000	0.336663
1767.000000	0.336698
1768.000000	0.336776
1769.000000	0.337085
1770.000000	0.337327
1771.000000	0.337592
1772.000000	0.337618
1773.000000	0.337358
1774.000000	0.337403
1775.000000	0.337471
1776.000000	0.337592
1777.000000	0.337928
1778.000000	0.338114
1779.000000	0.338162
1780.000000	0.338287
1781.000000	0.338433
1782.000000	0.338614
1783.000000	0.338792
1784.000000	0.339106
1785.000000	0.339450
1786.000000	0.339593
1787.000000	0.339804
1788.000000	0.339988
1789.000000	0.340073
1790.000000	0.340200
1791.000000	0.340240
1792.000000	0.340148
1793.000000	0.340258
1794.000000	0.340579
1795.000000	0.340804
1796.000000	0.341079
1797.000000	0.341305
1798.000000	0.341397
1799.000000	0.341558
1800.000000	0.341904
1801.000000	0.341202
1802.000000	0.341387
1803.000000	0.342270
1804.000000	0.342774
1805.000000	0.344128
1806.000000	0.344824
1807.000000	0.345423
1808.000000	0.345208
1809.000000	0.343959
1810.000000	0.343670
1811.000000	0.343297
1812.000000	0.342116
1813.000000	0.342191
1814.000000	0.343746
1815.000000	0.344083
1816.000000	0.344279
1817.000000	0.344220
1818.000000	0.343366
1819.000000	0.343487
1820.000000	0.343483
1821.000000	0.342761
1822.000000	0.342898
1823.000000	0.343338
1824.000000	0.343494
1825.000000	0.344393
1826.000000	0.344449
1827.000000	0.343885
1828.000000	0.342887
1829.000000	0.342351
1830.000000	0.341799
1831.000000	0.341580
1832.000000	0.341787
1833.000000	0.342107
1834.000000	0.343123
1835.000000	0.343014
1836.000000	0.342248
1837.000000	0.341981
1838.000000	0.341267
1839.000000	0.340112
1840.000000	0.340176
1841.000000	0.340645
1842.000000	0.340254
1843.000000	0.339157
1844.000000	0.338798
1845.000000	0.337976
1846.000000	0.337641
1847.000000	0.337786
1848.000000	0.337915
1849.000000	0.337623
1850.000000	0.337628
1851.000000	0.337288
1852.000000	0.336655
1853.000000	0.336018
1854.000000	0.334872
1855.000000	0.334078
1856.000000	0.333212
1857.000000	0.332529
1858.000000	0.331845
1859.000000	0.330925
1860.000000	0.329555
1861.000000	0.328161
1862.000000	0.326926
1863.000000	0.325950
1864.000000	0.324492
1865.000000	0.323132
1866.000000	0.321311
1867.000000	0.318631
1868.000000	0.316391
1869.000000	0.314595
1870.000000	0.312988
1871.000000	0.311251
1872.000000	0.309384
1873.000000	0.307397
1874.000000	0.304834
1875.000000	0.302439
1876.000000	0.300103
1877.000000	0.297308
1878.000000	0.293642
1879.000000	0.290728
1880.000000	0.288108
1881.000000	0.285239
1882.000000	0.282639
1883.000000	0.280102
1884.000000	0.276681
1885.000000	0.271997
1886.000000	0.267682
1887.000000	0.263176
1888.000000	0.258013
1889.000000	0.253184
1890.000000	0.248977
1891.000000	0.244654
1892.000000	0.240619
1893.000000	0.236814
1894.000000	0.232867
1895.000000	0.229057
1896.000000	0.225783
1897.000000	0.221956
1898.000000	0.217463
1899.000000	0.213654
1900.000000	0.209451
1901.000000	0.205114
1902.000000	0.201147
1903.000000	0.197075
1904.000000	0.193170
1905.000000	0.189464
1906.000000	0.186141
1907.000000	0.183270
1908.000000	0.180945
1909.000000	0.178420
1910.000000	0.175517
1911.000000	0.172541
1912.000000	0.169700
1913.000000	0.166881
1914.000000	0.164442
1915.000000	0.162740
1916.000000	0.160684
1917.000000	0.159025
1918.000000	0.157795
1919.000000	0.156986
1920.000000	0.155292
1921.000000	0.153485
1922.000000	0.151730
1923.000000	0.150233
1924.000000	0.149146
1925.000000	0.149044
1926.000000	0.148903
1927.000000	0.148327
1928.000000	0.147912
1929.000000	0.147659
1930.000000	0.147242
1931.000000	0.147139
1932.000000	0.147417
1933.000000	0.147600
1934.000000	0.147575
1935.000000	0.147473
1936.000000	0.147024
1937.000000	0.146799
1938.000000	0.146970
1939.000000	0.146800
1940.000000	0.146484
1941.000000	0.146114
1942.000000	0.145787
1943.000000	0.145706
1944.000000	0.145851
1945.000000	0.146006
1946.000000	0.146279
1947.000000	0.145704
1948.000000	0.145024
1949.000000	0.144997
1950.000000	0.144516
1951.000000	0.143937
1952.000000	0.143509
1953.000000	0.142887
1954.000000	0.141774
1955.000000	0.141142
1956.000000	0.140910
1957.000000	0.140674
1958.000000	0.140388
1959.000000	0.140260
1960.000000	0.140062
1961.000000	0.139838
1962.000000	0.139786
1963.000000	0.140011
1964.000000	0.140141
1965.000000	0.140430
1966.000000	0.140666
1967.000000	0.140580
1968.000000	0.140445
1969.000000	0.139914
1970.000000	0.139555
1971.000000	0.139277
1972.000000	0.139024
1973.000000	0.138874
1974.000000	0.138829
1975.000000	0.138832
1976.000000	0.138936
1977.000000	0.139191
1978.000000	0.139642
1979.000000	0.139809
1980.000000	0.140071
1981.000000	0.140773
1982.000000	0.141263
1983.000000	0.141582
1984.000000	0.141973
1985.000000	0.142270
1986.000000	0.142699
1987.000000	0.143156
1988.000000	0.143943
1989.000000	0.144404
1990.000000	0.145230
1991.000000	0.145578
1992.000000	0.145911
1993.000000	0.146528
1994.000000	0.146952
1995.000000	0.148117
1996.000000	0.149337
1997.000000	0.150168
1998.000000	0.151096
1999.000000	0.151948
2000.000000	0.152359
2001.000000	0.152740
2002.000000	0.153961
2003.000000	0.155547
2004.000000	0.156802
2005.000000	0.157881
2006.000000	0.158821
2007.000000	0.159453
2008.000000	0.160253
2009.000000	0.160927
2010.000000	0.161928
2011.000000	0.163136
2012.000000	0.164142
2013.000000	0.165139
2014.000000	0.166330
2015.000000	0.167089
2016.000000	0.167724
2017.000000	0.168725
2018.000000	0.169467
2019.000000	0.169915
2020.000000	0.170907
2021.000000	0.171942
2022.000000	0.172862
2023.000000	0.174119
2024.000000	0.176087
2025.000000	0.177396
2026.000000	0.178528
2027.000000	0.179177
2028.000000	0.180118
2029.000000	0.180903
2030.000000	0.182071
2031.000000	0.183686
2032.000000	0.184574
2033.000000	0.185791
2034.000000	0.186823
2035.000000	0.187736
2036.000000	0.188240
2037.000000	0.188600
2038.000000	0.189121
2039.000000	0.189285
2040.000000	0.189773
2041.000000	0.190622
2042.000000	0.191577
2043.000000	0.192777
2044.000000	0.194395
2045.000000	0.195853
2046.000000	0.197019
2047.000000	0.198080
2048.000000	0.198482
2049.000000	0.199363
2050.000000	0.200503
2051.000000	0.201252
2052.000000	0.201453
2053.000000	0.202158
2054.000000	0.203303
2055.000000	0.203868
2056.000000	0.204743
2057.000000	0.206342
2058.000000	0.207195
2059.000000	0.208022
2060.000000	0.208841
2061.000000	0.209691
2062.000000	0.210491
2063.000000	0.211148
2064.000000	0.211808
2065.000000	0.212985
2066.000000	0.213295
2067.000000	0.213045
2068.000000	0.213456
2069.000000	0.213616
2070.000000	0.214234
2071.000000	0.215469
2072.000000	0.216622
2073.000000	0.217706
2074.000000	0.218537
2075.000000	0.219570
2076.000000	0.220631
2077.000000	0.221806
2078.000000	0.223181
2079.000000	0.224448
2080.000000	0.225713
2081.000000	0.227112
2082.000000	0.228946
2083.000000	0.229910
2084.000000	0.230809
2085.000000	0.231684
2086.000000	0.231827
2087.000000	0.232031
2088.000000	0.232245
2089.000000	0.232736
2090.000000	0.233220
2091.000000	0.233616
2092.000000	0.234321
2093.000000	0.235220
2094.000000	0.236123
2095.000000	0.237375
2096.000000	0.238774
2097.000000	0.240222
2098.000000	0.241871
2099.000000	0.243194
2100.000000	0.243740
2101.000000	0.244372
2102.000000	0.244503
2103.000000	0.245185
2104.000000	0.245639
2105.000000	0.246384
2106.000000	0.247463
2107.000000	0.248319
2108.000000	0.249547
2109.000000	0.250212
2110.000000	0.250065
2111.000000	0.250186
2112.000000	0.250111
2113.000000	0.249646
2114.000000	0.250069
2115.000000	0.250625
2116.000000	0.251269
2117.000000	0.252134
2118.000000	0.253087
2119.000000	0.253960
2120.000000	0.254553
2121.000000	0.255095
2122.000000	0.255574
2123.000000	0.255686
2124.000000	0.255972
2125.000000	0.256092
2126.000000	0.256640
2127.000000	0.257524
2128.000000	0.258196
2129.000000	0.259145
2130.000000	0.260041
2131.000000	0.259953
2132.000000	0.259828
2133.000000	0.259609
2134.000000	0.259716
2135.000000	0.260131
2136.000000	0.260600
2137.000000	0.260906
2138.000000	0.261240
2139.000000	0.261436
2140.000000	0.261275
2141.000000	0.261495
2142.000000	0.262302
2143.000000	0.262346
2144.000000	0.262075
2145.000000	0.262273
2146.000000	0.262520
2147.000000	0.262337
2148.000000	0.263550
2149.000000	0.264773
2150.000000	0.264955
2151.000000	0.265183
2152.000000	0.265150
2153.000000	0.264513
2154.000000	0.264553
2155.000000	0.265365
2156.000000	0.265516
2157.000000	0.265721
2158.000000	0.265682
2159.000000	0.264920
2160.000000	0.264801
2161.000000	0.265000
2162.000000	0.264960
2163.000000	0.265114
2164.000000	0.265260
2165.000000	0.264982
2166.000000	0.265121
2167.000000	0.265791
2168.000000	0.266137
2169.000000	0.265568
2170.000000	0.264554
2171.000000	0.264125
2172.000000	0.262879
2173.000000	0.262734
2174.000000	0.263899
2175.000000	0.264334
2176.000000	0.264640
2177.000000	0.265154
2178.000000	0.266213
2179.000000	0.266598
2180.000000	0.266573
2181.000000	0.266959
2182.000000	0.266884
2183.000000	0.266008
2184.000000	0.266154
2185.000000	0.266177
2186.000000	0.265070
2187.000000	0.264619
2188.000000	0.264529
2189.000000	0.263676
2190.000000	0.263544
2191.000000	0.263475
2192.000000	0.263838
2193.000000	0.264500
2194.000000	0.265075
2195.000000	0.266234
2196.000000	0.267153
2197.000000	0.267614
2198.000000	0.268399
2199.000000	0.271316
2200.000000	0.271405
2201.000000	0.268504
2202.000000	0.267110
2203.000000	0.264574
2204.000000	0.261015
2205.000000	0.260347
2206.000000	0.262993
2207.000000	0.265790
2208.000000	0.268466
2209.000000	0.270594
2210.000000	0.270876
2211.000000	0.269652
2212.000000	0.270049
2213.000000	0.270009
2214.000000	0.270990
2215.000000	0.270493
2216.000000	0.268912
2217.000000	0.267508
2218.000000	0.264532
2219.000000	0.263918
2220.000000	0.264092
2221.000000	0.264974
2222.000000	0.268778
2223.000000	0.270286
2224.000000	0.270840
2225.000000	0.272174
2226.000000	0.271054
2227.000000	0.268917
2228.000000	0.267816
2229.000000	0.266319
2230.000000	0.266803
2231.000000	0.268170
2232.000000	0.268564
2233.000000	0.268166
2234.000000	0.266546
2235.000000	0.265131
2236.000000	0.265585
2237.000000	0.267764
2238.000000	0.268725
2239.000000	0.271767
2240.000000	0.271918
2241.000000	0.268584
2242.000000	0.268025
2243.000000	0.267899
2244.000000	0.267147
2245.000000	0.268324
2246.000000	0.267873
2247.000000	0.263513
2248.000000	0.263171
2249.000000	0.264384
2250.000000	0.266390
2251.000000	0.270136
2252.000000	0.273041
2253.000000	0.272322
2254.000000	0.271240
2255.000000	0.271145
2256.000000	0.270153
2257.000000	0.270299
2258.000000	0.269666
2259.000000	0.268837
2260.000000	0.269221
2261.000000	0.268281
2262.000000	0.267259
2263.000000	0.266212
2264.000000	0.264233
2265.000000	0.262858
2266.000000	0.261736
2267.000000	0.261750
2268.000000	0.261897
2269.000000	0.262205
2270.000000	0.264443
2271.000000	0.264681
2272.000000	0.263954
2273.000000	0.262984
2274.000000	0.260470
2275.000000	0.259295
2276.000000	0.258354
2277.000000	0.258062
2278.000000	0.256867
2279.000000	0.255704
2280.000000	0.253333
2281.000000	0.249401
2282.000000	0.249246
2283.000000	0.249589
2284.000000	0.249790
2285.000000	0.253802
2286.000000	0.257063
2287.000000	0.257440
2288.000000	0.259079
2289.000000	0.259829
2290.000000	0.257847
2291.000000	0.256385
2292.000000	0.252545
2293.000000	0.246547
2294.000000	0.243357
2295.000000	0.239725
2296.000000	0.238555
2297.000000	0.241022
2298.000000	0.242407
2299.000000	0.245409
2300.000000	0.246369
2301.000000	0.245896
2302.000000	0.245233
2303.000000	0.243179
2304.000000	0.241040
2305.000000	0.239886
2306.000000	0.238446
2307.000000	0.235585
2308.000000	0.233270
2309.000000	0.234693
2310.000000	0.233494
2311.000000	0.232705
2312.000000	0.235097
2313.000000	0.234062
2314.000000	0.232260
2315.000000	0.232193
2316.000000	0.230125
2317.000000	0.228688
2318.000000	0.228096
2319.000000	0.228388
2320.000000	0.227318
2321.000000	0.226099
2322.000000	0.224778
2323.000000	0.221225
2324.000000	0.220891
2325.000000	0.219889
2326.000000	0.217768
2327.000000	0.217268
2328.000000	0.215447
2329.000000	0.216456
2330.000000	0.219395
2331.000000	0.219433
2332.000000	0.218780
2333.000000	0.215889
2334.000000	0.213168
2335.000000	0.212525
2336.000000	0.213579
2337.000000	0.212721
2338.000000	0.213091
2339.000000	0.211987
2340.000000	0.208425
2341.000000	0.206671
2342.000000	0.205235
2343.000000	0.203925
2344.000000	0.203552
2345.000000	0.201917
2346.000000	0.200971
2347.000000	0.198914
2348.000000	0.194467
2349.000000	0.192055
2350.000000	0.190590
2351.000000	0.188936
2352.000000	0.190942
2353.000000	0.191857
2354.000000	0.190722
2355.000000	0.189691
2356.000000	0.186807
2357.000000	0.183511
2358.000000	0.182685
2359.000000	0.182136
2360.000000	0.182402
2361.000000	0.182142
2362.000000	0.181391
2363.000000	0.180096
2364.000000	0.174196
2365.000000	0.171721
2366.000000	0.171130
2367.000000	0.169018
2368.000000	0.170898
2369.000000	0.171012
2370.000000	0.167732
2371.000000	0.166524
2372.000000	0.164561
2373.000000	0.161408
2374.000000	0.158258
2375.000000	0.156258
2376.000000	0.158392
2377.000000	0.159858
2378.000000	0.161803
2379.000000	0.160607
2380.000000	0.155764
2381.000000	0.151420
2382.000000	0.143283
2383.000000	0.140565
2384.000000	0.139334
2385.000000	0.139898
2386.000000	0.147917
2387.000000	0.155087
2388.000000	0.158794
2389.000000	0.157452
2390.000000	0.156156
2391.000000	0.154722
2392.000000	0.154642
2393.000000	0.154709
2394.000000	0.147658
2395.000000	0.137098
2396.000000	0.130672
2397.000000	0.128019
2398.000000	0.131379
2399.000000	0.147245
2400.000000	0.155419
2401.000000	0.158927
2402.000000	0.163555
2403.000000	0.151890
2404.000000	0.142037
2405.000000	0.138577
2406.000000	0.133718
2407.000000	0.134393
2408.000000	0.139634
2409.000000	0.140274
2410.000000	0.138400
2411.000000	0.140613
2412.000000	0.137606
2413.000000	0.135138
2414.000000	0.138522
2415.000000	0.143723
2416.000000	0.149638
2417.000000	0.151849
2418.000000	0.151912
2419.000000	0.142946
2420.000000	0.132666
2421.000000	0.129827
2422.000000	0.124088
2423.000000	0.126306
2424.000000	0.128489
2425.000000	0.118842
2426.000000	0.109841
2427.000000	0.103420
2428.000000	0.104643
2429.000000	0.112983
2430.000000	0.125560
2431.000000	0.135416
2432.000000	0.133260
2433.000000	0.127360
2434.000000	0.118072
2435.000000	0.106427
2436.000000	0.104843
2437.000000	0.110110
2438.000000	0.115645
2439.000000	0.123115
2440.000000	0.121519
2441.000000	0.111452
2442.000000	0.099919
2443.000000	0.088020
2444.000000	0.081687
2445.000000	0.090668
2446.000000	0.106027
2447.000000	0.111575
2448.000000	0.114198
2449.000000	0.107480
2450.000000	0.111457
2451.000000	0.127557
2452.000000	0.135953
2453.000000	0.144574
2454.000000	0.142065
2455.000000	0.131344
2456.000000	0.125090
2457.000000	0.131279
2458.000000	0.134550
2459.000000	0.131249
2460.000000	0.137208
2461.000000	0.138532
2462.000000	0.146821
2463.000000	0.147659
2464.000000	0.135870
2465.000000	0.130612
2466.000000	0.108418
2467.000000	0.094582
2468.000000	0.090515
2469.000000	0.091716
2470.000000	0.084687
2471.000000	0.072872
2472.000000	0.107724
2473.000000	0.119232
2474.000000	0.124874
2475.000000	0.165425
2476.000000	0.150098
2477.000000	0.122350
2478.000000	0.122400
2479.000000	0.103760
2480.000000	0.085441
2481.000000	0.086681
2482.000000	0.099624
2483.000000	0.090060
2484.000000	0.082176
2485.000000	0.105505
2486.000000	0.096318
2487.000000	0.095847
2488.000000	0.124822
2489.000000	0.127261
2490.000000	0.135806
2491.000000	0.136806
2492.000000	0.118614
2493.000000	0.048208
2494.000000	0.021684
2495.000000	0.020627
2496.000000	0.007775
2497.000000	0.023870
2498.000000	0.042855
2499.000000	0.039784
2500.000000	0.061342
