# Wavelength	SM1200H-70_HEX-20_FV7-10_00000.asd.rts.txt
350.000000	0.422518
351.000000	0.423135
352.000000	0.416013
353.000000	0.416139
354.000000	0.427956
355.000000	0.419056
356.000000	0.407001
357.000000	0.403468
358.000000	0.411106
359.000000	0.423283
360.000000	0.434617
361.000000	0.439635
362.000000	0.435782
363.000000	0.435030
364.000000	0.439562
365.000000	0.428859
366.000000	0.427234
367.000000	0.434111
368.000000	0.428550
369.000000	0.428859
370.000000	0.431742
371.000000	0.429764
372.000000	0.434443
373.000000	0.439151
374.000000	0.439359
375.000000	0.435132
376.000000	0.435232
377.000000	0.439779
378.000000	0.441488
379.000000	0.441609
380.000000	0.440178
381.000000	0.438843
382.000000	0.438948
383.000000	0.439022
384.000000	0.438660
385.000000	0.439243
386.000000	0.441995
387.000000	0.445565
388.000000	0.444913
389.000000	0.443630
390.000000	0.444748
391.000000	0.449610
392.000000	0.447871
393.000000	0.445499
394.000000	0.447492
395.000000	0.448759
396.000000	0.448749
397.000000	0.448123
398.000000	0.449401
399.000000	0.450551
400.000000	0.450961
401.000000	0.450408
402.000000	0.451441
403.000000	0.452940
404.000000	0.453714
405.000000	0.453612
406.000000	0.453962
407.000000	0.455221
408.000000	0.456270
409.000000	0.456748
410.000000	0.456695
411.000000	0.456349
412.000000	0.455884
413.000000	0.455926
414.000000	0.456872
415.000000	0.457100
416.000000	0.457565
417.000000	0.458629
418.000000	0.458948
419.000000	0.458925
420.000000	0.459043
421.000000	0.459960
422.000000	0.460047
423.000000	0.459929
424.000000	0.460925
425.000000	0.462117
426.000000	0.462621
427.000000	0.462190
428.000000	0.462509
429.000000	0.463071
430.000000	0.463629
431.000000	0.464247
432.000000	0.464739
433.000000	0.465233
434.000000	0.466153
435.000000	0.466449
436.000000	0.466469
437.000000	0.466712
438.000000	0.467265
439.000000	0.467526
440.000000	0.467534
441.000000	0.468002
442.000000	0.468376
443.000000	0.468473
444.000000	0.468652
445.000000	0.468704
446.000000	0.468982
447.000000	0.469519
448.000000	0.469698
449.000000	0.470017
450.000000	0.470688
451.000000	0.470723
452.000000	0.470783
453.000000	0.471099
454.000000	0.471928
455.000000	0.472371
456.000000	0.472695
457.000000	0.473280
458.000000	0.473725
459.000000	0.473949
460.000000	0.474071
461.000000	0.474217
462.000000	0.474720
463.000000	0.475337
464.000000	0.475800
465.000000	0.476097
466.000000	0.476221
467.000000	0.476450
468.000000	0.476710
469.000000	0.476912
470.000000	0.477243
471.000000	0.477337
472.000000	0.477461
473.000000	0.477782
474.000000	0.477839
475.000000	0.477737
476.000000	0.477862
477.000000	0.478304
478.000000	0.478590
479.000000	0.478857
480.000000	0.478848
481.000000	0.478841
482.000000	0.479117
483.000000	0.479427
484.000000	0.479730
485.000000	0.479812
486.000000	0.479970
487.000000	0.480381
488.000000	0.480654
489.000000	0.480857
490.000000	0.481317
491.000000	0.481781
492.000000	0.482195
493.000000	0.482352
494.000000	0.482724
495.000000	0.483144
496.000000	0.483422
497.000000	0.483853
498.000000	0.484315
499.000000	0.484824
500.000000	0.485179
501.000000	0.485511
502.000000	0.485835
503.000000	0.485972
504.000000	0.486335
505.000000	0.486705
506.000000	0.486879
507.000000	0.487267
508.000000	0.487754
509.000000	0.488159
510.000000	0.488472
511.000000	0.488818
512.000000	0.489270
513.000000	0.489766
514.000000	0.490111
515.000000	0.490404
516.000000	0.490715
517.000000	0.491013
518.000000	0.491302
519.000000	0.491459
520.000000	0.491679
521.000000	0.491934
522.000000	0.492224
523.000000	0.492567
524.000000	0.492921
525.000000	0.493235
526.000000	0.493541
527.000000	0.493790
528.000000	0.494028
529.000000	0.494363
530.000000	0.494436
531.000000	0.494664
532.000000	0.495082
533.000000	0.495315
534.000000	0.495507
535.000000	0.495715
536.000000	0.496006
537.000000	0.496343
538.000000	0.496666
539.000000	0.496891
540.000000	0.497145
541.000000	0.497407
542.000000	0.497707
543.000000	0.498042
544.000000	0.498425
545.000000	0.498749
546.000000	0.499123
547.000000	0.499451
548.000000	0.499786
549.000000	0.500122
550.000000	0.500521
551.000000	0.500904
552.000000	0.501100
553.000000	0.501427
554.000000	0.501832
555.000000	0.502241
556.000000	0.502606
557.000000	0.502882
558.000000	0.503285
559.000000	0.503732
560.000000	0.504043
561.000000	0.504343
562.000000	0.504634
563.000000	0.504864
564.000000	0.505155
565.000000	0.505425
566.000000	0.505656
567.000000	0.505864
568.000000	0.506061
569.000000	0.506392
570.000000	0.506754
571.000000	0.507083
572.000000	0.507378
573.000000	0.507759
574.000000	0.508110
575.000000	0.508349
576.000000	0.508553
577.000000	0.508699
578.000000	0.508895
579.000000	0.509184
580.000000	0.509516
581.000000	0.509839
582.000000	0.510106
583.000000	0.510311
584.000000	0.510511
585.000000	0.510815
586.000000	0.511052
587.000000	0.511255
588.000000	0.511503
589.000000	0.511820
590.000000	0.512140
591.000000	0.512410
592.000000	0.512611
593.000000	0.512817
594.000000	0.513044
595.000000	0.513266
596.000000	0.513485
597.000000	0.513749
598.000000	0.513944
599.000000	0.514064
600.000000	0.514292
601.000000	0.514600
602.000000	0.514765
603.000000	0.514912
604.000000	0.515119
605.000000	0.515322
606.000000	0.515436
607.000000	0.515543
608.000000	0.515841
609.000000	0.516057
610.000000	0.516184
611.000000	0.516289
612.000000	0.516417
613.000000	0.516561
614.000000	0.516758
615.000000	0.516918
616.000000	0.517074
617.000000	0.517201
618.000000	0.517400
619.000000	0.517618
620.000000	0.517723
621.000000	0.517691
622.000000	0.517820
623.000000	0.517904
624.000000	0.517784
625.000000	0.517822
626.000000	0.517892
627.000000	0.517941
628.000000	0.518030
629.000000	0.518215
630.000000	0.518275
631.000000	0.518332
632.000000	0.518425
633.000000	0.518585
634.000000	0.518789
635.000000	0.518947
636.000000	0.519151
637.000000	0.519394
638.000000	0.519566
639.000000	0.519713
640.000000	0.519890
641.000000	0.519879
642.000000	0.519900
643.000000	0.520004
644.000000	0.520172
645.000000	0.520228
646.000000	0.520330
647.000000	0.520530
648.000000	0.520649
649.000000	0.520729
650.000000	0.520797
651.000000	0.520978
652.000000	0.521067
653.000000	0.521134
654.000000	0.521224
655.000000	0.521381
656.000000	0.521528
657.000000	0.521527
658.000000	0.521655
659.000000	0.521794
660.000000	0.521858
661.000000	0.521918
662.000000	0.521954
663.000000	0.522078
664.000000	0.522286
665.000000	0.522444
666.000000	0.522571
667.000000	0.522677
668.000000	0.522826
669.000000	0.522975
670.000000	0.523109
671.000000	0.523255
672.000000	0.523438
673.000000	0.523615
674.000000	0.523714
675.000000	0.523738
676.000000	0.523777
677.000000	0.523951
678.000000	0.524143
679.000000	0.524303
680.000000	0.524419
681.000000	0.524479
682.000000	0.524595
683.000000	0.524690
684.000000	0.524893
685.000000	0.525037
686.000000	0.525174
687.000000	0.525325
688.000000	0.525441
689.000000	0.525535
690.000000	0.525680
691.000000	0.525859
692.000000	0.525983
693.000000	0.526122
694.000000	0.526222
695.000000	0.526400
696.000000	0.526619
697.000000	0.526787
698.000000	0.526948
699.000000	0.527100
700.000000	0.527242
701.000000	0.527332
702.000000	0.527426
703.000000	0.527517
704.000000	0.527602
705.000000	0.527733
706.000000	0.527840
707.000000	0.527963
708.000000	0.528059
709.000000	0.528133
710.000000	0.528235
711.000000	0.528374
712.000000	0.528501
713.000000	0.528639
714.000000	0.528821
715.000000	0.528990
716.000000	0.529154
717.000000	0.529296
718.000000	0.529394
719.000000	0.529450
720.000000	0.529501
721.000000	0.529572
722.000000	0.529603
723.000000	0.529656
724.000000	0.529633
725.000000	0.529647
726.000000	0.529815
727.000000	0.529960
728.000000	0.530065
729.000000	0.530155
730.000000	0.530173
731.000000	0.530200
732.000000	0.530223
733.000000	0.530278
734.000000	0.530262
735.000000	0.530227
736.000000	0.530325
737.000000	0.530318
738.000000	0.530278
739.000000	0.530322
740.000000	0.530254
741.000000	0.530313
742.000000	0.530353
743.000000	0.530328
744.000000	0.530450
745.000000	0.530496
746.000000	0.530529
747.000000	0.530534
748.000000	0.530624
749.000000	0.530770
750.000000	0.530883
751.000000	0.531008
752.000000	0.531062
753.000000	0.531059
754.000000	0.531052
755.000000	0.531099
756.000000	0.531177
757.000000	0.531181
758.000000	0.531300
759.000000	0.531483
760.000000	0.531573
761.000000	0.531705
762.000000	0.531758
763.000000	0.531721
764.000000	0.531780
765.000000	0.531803
766.000000	0.531841
767.000000	0.531939
768.000000	0.532049
769.000000	0.532133
770.000000	0.532204
771.000000	0.532326
772.000000	0.532544
773.000000	0.532651
774.000000	0.532606
775.000000	0.532727
776.000000	0.532866
777.000000	0.532869
778.000000	0.532874
779.000000	0.532945
780.000000	0.533051
781.000000	0.533038
782.000000	0.532985
783.000000	0.533041
784.000000	0.533047
785.000000	0.533073
786.000000	0.533077
787.000000	0.533057
788.000000	0.533125
789.000000	0.533200
790.000000	0.533221
791.000000	0.533219
792.000000	0.533159
793.000000	0.533100
794.000000	0.533088
795.000000	0.532999
796.000000	0.532960
797.000000	0.533007
798.000000	0.533104
799.000000	0.533202
800.000000	0.533274
801.000000	0.533310
802.000000	0.533277
803.000000	0.533243
804.000000	0.533286
805.000000	0.533280
806.000000	0.533202
807.000000	0.533200
808.000000	0.533224
809.000000	0.533128
810.000000	0.532973
811.000000	0.532820
812.000000	0.532721
813.000000	0.532726
814.000000	0.532804
815.000000	0.532881
816.000000	0.532895
817.000000	0.532905
818.000000	0.532847
819.000000	0.532823
820.000000	0.532833
821.000000	0.532766
822.000000	0.532620
823.000000	0.532632
824.000000	0.532664
825.000000	0.532673
826.000000	0.532741
827.000000	0.532703
828.000000	0.532596
829.000000	0.532677
830.000000	0.532691
831.000000	0.532673
832.000000	0.532524
833.000000	0.532437
834.000000	0.532345
835.000000	0.532229
836.000000	0.532072
837.000000	0.531979
838.000000	0.531959
839.000000	0.531870
840.000000	0.531773
841.000000	0.531742
842.000000	0.531757
843.000000	0.531798
844.000000	0.531808
845.000000	0.531725
846.000000	0.531613
847.000000	0.531577
848.000000	0.531539
849.000000	0.531460
850.000000	0.531402
851.000000	0.531329
852.000000	0.531333
853.000000	0.531502
854.000000	0.531506
855.000000	0.531460
856.000000	0.531298
857.000000	0.531063
858.000000	0.530949
859.000000	0.530852
860.000000	0.530585
861.000000	0.530440
862.000000	0.530470
863.000000	0.530477
864.000000	0.530368
865.000000	0.530308
866.000000	0.530357
867.000000	0.530179
868.000000	0.530037
869.000000	0.529882
870.000000	0.529744
871.000000	0.529550
872.000000	0.529518
873.000000	0.529620
874.000000	0.529678
875.000000	0.529680
876.000000	0.529626
877.000000	0.529422
878.000000	0.529141
879.000000	0.528964
880.000000	0.528778
881.000000	0.528784
882.000000	0.528660
883.000000	0.528494
884.000000	0.528390
885.000000	0.528192
886.000000	0.527876
887.000000	0.527526
888.000000	0.527246
889.000000	0.527041
890.000000	0.526771
891.000000	0.526635
892.000000	0.526564
893.000000	0.526424
894.000000	0.526347
895.000000	0.526216
896.000000	0.525852
897.000000	0.525490
898.000000	0.525422
899.000000	0.525275
900.000000	0.525109
901.000000	0.524958
902.000000	0.525016
903.000000	0.524957
904.000000	0.524812
905.000000	0.524563
906.000000	0.524548
907.000000	0.524481
908.000000	0.524387
909.000000	0.524338
910.000000	0.524310
911.000000	0.524191
912.000000	0.523960
913.000000	0.523839
914.000000	0.523662
915.000000	0.523460
916.000000	0.523141
917.000000	0.522977
918.000000	0.522941
919.000000	0.522884
920.000000	0.522656
921.000000	0.522391
922.000000	0.522128
923.000000	0.521828
924.000000	0.521748
925.000000	0.521577
926.000000	0.521211
927.000000	0.520778
928.000000	0.520458
929.000000	0.520267
930.000000	0.520125
931.000000	0.519794
932.000000	0.519520
933.000000	0.519392
934.000000	0.519124
935.000000	0.518724
936.000000	0.518381
937.000000	0.518063
938.000000	0.517705
939.000000	0.517474
940.000000	0.517251
941.000000	0.517012
942.000000	0.516501
943.000000	0.516099
944.000000	0.515714
945.000000	0.514996
946.000000	0.514238
947.000000	0.513741
948.000000	0.513571
949.000000	0.513402
950.000000	0.513237
951.000000	0.513112
952.000000	0.513275
953.000000	0.513333
954.000000	0.513259
955.000000	0.513004
956.000000	0.512735
957.000000	0.512467
958.000000	0.512248
959.000000	0.512254
960.000000	0.511825
961.000000	0.511415
962.000000	0.511219
963.000000	0.511128
964.000000	0.511082
965.000000	0.510977
966.000000	0.510559
967.000000	0.510001
968.000000	0.509646
969.000000	0.509496
970.000000	0.509520
971.000000	0.509142
972.000000	0.508967
973.000000	0.509025
974.000000	0.508868
975.000000	0.508794
976.000000	0.508690
977.000000	0.508434
978.000000	0.508142
979.000000	0.508037
980.000000	0.507946
981.000000	0.508203
982.000000	0.507793
983.000000	0.507328
984.000000	0.507090
985.000000	0.506653
986.000000	0.506465
987.000000	0.506519
988.000000	0.506447
989.000000	0.505990
990.000000	0.505888
991.000000	0.505744
992.000000	0.505184
993.000000	0.505559
994.000000	0.505552
995.000000	0.505217
996.000000	0.504987
997.000000	0.504787
998.000000	0.504758
999.000000	0.504918
1000.000000	0.504672
1001.000000	0.505454
1002.000000	0.504521
1003.000000	0.504372
1004.000000	0.504106
1005.000000	0.503233
1006.000000	0.503291
1007.000000	0.504276
1008.000000	0.504712
1009.000000	0.504471
1010.000000	0.503531
1011.000000	0.502374
1012.000000	0.501811
1013.000000	0.501634
1014.000000	0.502247
1015.000000	0.503076
1016.000000	0.503270
1017.000000	0.503041
1018.000000	0.503380
1019.000000	0.503556
1020.000000	0.503663
1021.000000	0.502956
1022.000000	0.502287
1023.000000	0.502241
1024.000000	0.501318
1025.000000	0.501896
1026.000000	0.503062
1027.000000	0.502690
1028.000000	0.502585
1029.000000	0.502916
1030.000000	0.502473
1031.000000	0.502552
1032.000000	0.503291
1033.000000	0.502871
1034.000000	0.502696
1035.000000	0.502872
1036.000000	0.502839
1037.000000	0.502131
1038.000000	0.502026
1039.000000	0.502355
1040.000000	0.502975
1041.000000	0.503405
1042.000000	0.503549
1043.000000	0.503849
1044.000000	0.503390
1045.000000	0.502767
1046.000000	0.502936
1047.000000	0.503122
1048.000000	0.503486
1049.000000	0.503453
1050.000000	0.503593
1051.000000	0.503533
1052.000000	0.502656
1053.000000	0.502486
1054.000000	0.503140
1055.000000	0.503454
1056.000000	0.503806
1057.000000	0.504498
1058.000000	0.504622
1059.000000	0.504279
1060.000000	0.504314
1061.000000	0.504599
1062.000000	0.505067
1063.000000	0.505648
1064.000000	0.506022
1065.000000	0.506121
1066.000000	0.506410
1067.000000	0.506658
1068.000000	0.506949
1069.000000	0.507377
1070.000000	0.507542
1071.000000	0.507614
1072.000000	0.507715
1073.000000	0.507604
1074.000000	0.507921
1075.000000	0.508316
1076.000000	0.508275
1077.000000	0.508270
1078.000000	0.508485
1079.000000	0.508442
1080.000000	0.508320
1081.000000	0.508306
1082.000000	0.508336
1083.000000	0.508342
1084.000000	0.508451
1085.000000	0.508724
1086.000000	0.508919
1087.000000	0.509243
1088.000000	0.509703
1089.000000	0.510068
1090.000000	0.510430
1091.000000	0.510671
1092.000000	0.510844
1093.000000	0.511242
1094.000000	0.511415
1095.000000	0.511336
1096.000000	0.511450
1097.000000	0.511689
1098.000000	0.511665
1099.000000	0.511261
1100.000000	0.511392
1101.000000	0.511507
1102.000000	0.511705
1103.000000	0.512408
1104.000000	0.512768
1105.000000	0.512885
1106.000000	0.513043
1107.000000	0.513103
1108.000000	0.513056
1109.000000	0.513014
1110.000000	0.512821
1111.000000	0.513003
1112.000000	0.513301
1113.000000	0.513589
1114.000000	0.514283
1115.000000	0.514450
1116.000000	0.514326
1117.000000	0.514270
1118.000000	0.513950
1119.000000	0.513805
1120.000000	0.513703
1121.000000	0.513662
1122.000000	0.513946
1123.000000	0.514287
1124.000000	0.514280
1125.000000	0.514397
1126.000000	0.514437
1127.000000	0.514376
1128.000000	0.514277
1129.000000	0.514226
1130.000000	0.514220
1131.000000	0.514171
1132.000000	0.514124
1133.000000	0.514279
1134.000000	0.514311
1135.000000	0.514134
1136.000000	0.514059
1137.000000	0.514018
1138.000000	0.513885
1139.000000	0.513905
1140.000000	0.513942
1141.000000	0.513819
1142.000000	0.513790
1143.000000	0.513740
1144.000000	0.513794
1145.000000	0.513645
1146.000000	0.513378
1147.000000	0.513228
1148.000000	0.512835
1149.000000	0.512773
1150.000000	0.512971
1151.000000	0.513038
1152.000000	0.513109
1153.000000	0.513149
1154.000000	0.513046
1155.000000	0.512961
1156.000000	0.512875
1157.000000	0.512840
1158.000000	0.512676
1159.000000	0.512648
1160.000000	0.512744
1161.000000	0.512758
1162.000000	0.512945
1163.000000	0.513197
1164.000000	0.513042
1165.000000	0.512866
1166.000000	0.512827
1167.000000	0.512631
1168.000000	0.512538
1169.000000	0.512607
1170.000000	0.512707
1171.000000	0.512902
1172.000000	0.513057
1173.000000	0.513314
1174.000000	0.513385
1175.000000	0.513279
1176.000000	0.513109
1177.000000	0.512879
1178.000000	0.512774
1179.000000	0.512640
1180.000000	0.512475
1181.000000	0.512492
1182.000000	0.512577
1183.000000	0.512582
1184.000000	0.512590
1185.000000	0.512530
1186.000000	0.512391
1187.000000	0.512317
1188.000000	0.512218
1189.000000	0.512136
1190.000000	0.512192
1191.000000	0.512151
1192.000000	0.512258
1193.000000	0.512412
1194.000000	0.512315
1195.000000	0.512311
1196.000000	0.512259
1197.000000	0.512203
1198.000000	0.512219
1199.000000	0.512248
1200.000000	0.512288
1201.000000	0.512267
1202.000000	0.512275
1203.000000	0.512191
1204.000000	0.512085
1205.000000	0.512240
1206.000000	0.512229
1207.000000	0.512412
1208.000000	0.512339
1209.000000	0.512153
1210.000000	0.512117
1211.000000	0.512053
1212.000000	0.512026
1213.000000	0.512225
1214.000000	0.512326
1215.000000	0.512306
1216.000000	0.512333
1217.000000	0.512329
1218.000000	0.512309
1219.000000	0.512310
1220.000000	0.512388
1221.000000	0.512435
1222.000000	0.512323
1223.000000	0.512133
1224.000000	0.512091
1225.000000	0.511993
1226.000000	0.511954
1227.000000	0.512043
1228.000000	0.512105
1229.000000	0.512133
1230.000000	0.512220
1231.000000	0.512129
1232.000000	0.512097
1233.000000	0.512160
1234.000000	0.512090
1235.000000	0.512138
1236.000000	0.512181
1237.000000	0.512303
1238.000000	0.512481
1239.000000	0.512492
1240.000000	0.512455
1241.000000	0.512365
1242.000000	0.512190
1243.000000	0.512087
1244.000000	0.511984
1245.000000	0.511871
1246.000000	0.511743
1247.000000	0.511868
1248.000000	0.511986
1249.000000	0.512020
1250.000000	0.512170
1251.000000	0.512243
1252.000000	0.512180
1253.000000	0.512106
1254.000000	0.512067
1255.000000	0.511836
1256.000000	0.511736
1257.000000	0.511903
1258.000000	0.511892
1259.000000	0.511562
1260.000000	0.511555
1261.000000	0.511573
1262.000000	0.511547
1263.000000	0.511699
1264.000000	0.511761
1265.000000	0.511666
1266.000000	0.511558
1267.000000	0.511481
1268.000000	0.511506
1269.000000	0.511475
1270.000000	0.511344
1271.000000	0.511212
1272.000000	0.511130
1273.000000	0.511097
1274.000000	0.511163
1275.000000	0.511060
1276.000000	0.510883
1277.000000	0.510871
1278.000000	0.510672
1279.000000	0.510606
1280.000000	0.510623
1281.000000	0.510517
1282.000000	0.510445
1283.000000	0.510460
1284.000000	0.510387
1285.000000	0.510354
1286.000000	0.510343
1287.000000	0.510283
1288.000000	0.510189
1289.000000	0.509988
1290.000000	0.509807
1291.000000	0.509672
1292.000000	0.509678
1293.000000	0.509755
1294.000000	0.509902
1295.000000	0.509938
1296.000000	0.509705
1297.000000	0.509576
1298.000000	0.509433
1299.000000	0.509305
1300.000000	0.509548
1301.000000	0.509653
1302.000000	0.509575
1303.000000	0.509651
1304.000000	0.509507
1305.000000	0.509176
1306.000000	0.509040
1307.000000	0.509064
1308.000000	0.508948
1309.000000	0.508800
1310.000000	0.508682
1311.000000	0.508575
1312.000000	0.508311
1313.000000	0.508126
1314.000000	0.507992
1315.000000	0.507639
1316.000000	0.507439
1317.000000	0.507364
1318.000000	0.507313
1319.000000	0.507147
1320.000000	0.506928
1321.000000	0.506709
1322.000000	0.506410
1323.000000	0.506248
1324.000000	0.506103
1325.000000	0.505831
1326.000000	0.505668
1327.000000	0.505485
1328.000000	0.505254
1329.000000	0.504791
1330.000000	0.504176
1331.000000	0.503639
1332.000000	0.502917
1333.000000	0.502448
1334.000000	0.502280
1335.000000	0.502028
1336.000000	0.501893
1337.000000	0.501639
1338.000000	0.501247
1339.000000	0.500847
1340.000000	0.500484
1341.000000	0.500077
1342.000000	0.499835
1343.000000	0.499559
1344.000000	0.499160
1345.000000	0.498941
1346.000000	0.498704
1347.000000	0.498334
1348.000000	0.498196
1349.000000	0.497779
1350.000000	0.497598
1351.000000	0.497415
1352.000000	0.496852
1353.000000	0.496555
1354.000000	0.496290
1355.000000	0.495783
1356.000000	0.495545
1357.000000	0.495226
1358.000000	0.494658
1359.000000	0.494178
1360.000000	0.493795
1361.000000	0.493549
1362.000000	0.493146
1363.000000	0.492874
1364.000000	0.492398
1365.000000	0.491598
1366.000000	0.491010
1367.000000	0.490525
1368.000000	0.489692
1369.000000	0.489091
1370.000000	0.488260
1371.000000	0.487068
1372.000000	0.485874
1373.000000	0.484581
1374.000000	0.483146
1375.000000	0.481402
1376.000000	0.479468
1377.000000	0.476998
1378.000000	0.473703
1379.000000	0.469972
1380.000000	0.465724
1381.000000	0.460759
1382.000000	0.455427
1383.000000	0.449838
1384.000000	0.444087
1385.000000	0.438566
1386.000000	0.433448
1387.000000	0.428854
1388.000000	0.424846
1389.000000	0.421619
1390.000000	0.419466
1391.000000	0.418171
1392.000000	0.417651
1393.000000	0.417664
1394.000000	0.418892
1395.000000	0.419573
1396.000000	0.420718
1397.000000	0.421237
1398.000000	0.421400
1399.000000	0.421291
1400.000000	0.420996
1401.000000	0.420255
1402.000000	0.419189
1403.000000	0.417947
1404.000000	0.416526
1405.000000	0.414947
1406.000000	0.413386
1407.000000	0.411875
1408.000000	0.410301
1409.000000	0.408947
1410.000000	0.407836
1411.000000	0.406776
1412.000000	0.405843
1413.000000	0.405079
1414.000000	0.404469
1415.000000	0.403995
1416.000000	0.403589
1417.000000	0.403369
1418.000000	0.403193
1419.000000	0.403030
1420.000000	0.402908
1421.000000	0.402920
1422.000000	0.402933
1423.000000	0.403218
1424.000000	0.403471
1425.000000	0.403699
1426.000000	0.403845
1427.000000	0.403932
1428.000000	0.404122
1429.000000	0.404318
1430.000000	0.404668
1431.000000	0.405003
1432.000000	0.405214
1433.000000	0.405405
1434.000000	0.405571
1435.000000	0.405759
1436.000000	0.405910
1437.000000	0.406060
1438.000000	0.406120
1439.000000	0.406118
1440.000000	0.406131
1441.000000	0.406157
1442.000000	0.406211
1443.000000	0.406178
1444.000000	0.406187
1445.000000	0.406211
1446.000000	0.406140
1447.000000	0.406064
1448.000000	0.406053
1449.000000	0.405925
1450.000000	0.405716
1451.000000	0.405610
1452.000000	0.405421
1453.000000	0.405243
1454.000000	0.405096
1455.000000	0.404849
1456.000000	0.404626
1457.000000	0.404522
1458.000000	0.404508
1459.000000	0.404469
1460.000000	0.404411
1461.000000	0.404375
1462.000000	0.404316
1463.000000	0.404272
1464.000000	0.404452
1465.000000	0.404716
1466.000000	0.404899
1467.000000	0.405255
1468.000000	0.405681
1469.000000	0.406097
1470.000000	0.406532
1471.000000	0.407031
1472.000000	0.407447
1473.000000	0.408061
1474.000000	0.408809
1475.000000	0.409511
1476.000000	0.410186
1477.000000	0.410837
1478.000000	0.411444
1479.000000	0.412045
1480.000000	0.412743
1481.000000	0.413375
1482.000000	0.413999
1483.000000	0.414697
1484.000000	0.415425
1485.000000	0.416142
1486.000000	0.416876
1487.000000	0.417676
1488.000000	0.418555
1489.000000	0.419356
1490.000000	0.419991
1491.000000	0.420747
1492.000000	0.421432
1493.000000	0.422146
1494.000000	0.422938
1495.000000	0.423591
1496.000000	0.424122
1497.000000	0.424731
1498.000000	0.425367
1499.000000	0.425913
1500.000000	0.426585
1501.000000	0.427270
1502.000000	0.427858
1503.000000	0.428585
1504.000000	0.429285
1505.000000	0.429738
1506.000000	0.430194
1507.000000	0.430700
1508.000000	0.431227
1509.000000	0.431791
1510.000000	0.432312
1511.000000	0.432855
1512.000000	0.433371
1513.000000	0.433829
1514.000000	0.434408
1515.000000	0.434914
1516.000000	0.435346
1517.000000	0.435728
1518.000000	0.436038
1519.000000	0.436339
1520.000000	0.436689
1521.000000	0.436943
1522.000000	0.437290
1523.000000	0.437631
1524.000000	0.437725
1525.000000	0.437994
1526.000000	0.438322
1527.000000	0.438582
1528.000000	0.438949
1529.000000	0.439267
1530.000000	0.439457
1531.000000	0.439642
1532.000000	0.439822
1533.000000	0.440091
1534.000000	0.440416
1535.000000	0.440718
1536.000000	0.441060
1537.000000	0.441496
1538.000000	0.441750
1539.000000	0.441983
1540.000000	0.442337
1541.000000	0.442667
1542.000000	0.443113
1543.000000	0.443511
1544.000000	0.443749
1545.000000	0.444063
1546.000000	0.444325
1547.000000	0.444502
1548.000000	0.444782
1549.000000	0.444995
1550.000000	0.445052
1551.000000	0.445188
1552.000000	0.445326
1553.000000	0.445353
1554.000000	0.445360
1555.000000	0.445406
1556.000000	0.445560
1557.000000	0.445784
1558.000000	0.445963
1559.000000	0.446159
1560.000000	0.446278
1561.000000	0.446304
1562.000000	0.446375
1563.000000	0.446589
1564.000000	0.446688
1565.000000	0.446724
1566.000000	0.446631
1567.000000	0.446496
1568.000000	0.446546
1569.000000	0.446762
1570.000000	0.446876
1571.000000	0.447095
1572.000000	0.447149
1573.000000	0.446991
1574.000000	0.447048
1575.000000	0.447202
1576.000000	0.447347
1577.000000	0.447629
1578.000000	0.447672
1579.000000	0.447602
1580.000000	0.447656
1581.000000	0.447754
1582.000000	0.447833
1583.000000	0.448023
1584.000000	0.448077
1585.000000	0.448161
1586.000000	0.448183
1587.000000	0.448109
1588.000000	0.448144
1589.000000	0.448165
1590.000000	0.448259
1591.000000	0.448541
1592.000000	0.448664
1593.000000	0.448743
1594.000000	0.448814
1595.000000	0.448931
1596.000000	0.449037
1597.000000	0.449156
1598.000000	0.449264
1599.000000	0.449454
1600.000000	0.449439
1601.000000	0.449396
1602.000000	0.449454
1603.000000	0.449481
1604.000000	0.449514
1605.000000	0.449732
1606.000000	0.449796
1607.000000	0.449741
1608.000000	0.449801
1609.000000	0.449990
1610.000000	0.450071
1611.000000	0.450236
1612.000000	0.450300
1613.000000	0.450376
1614.000000	0.450456
1615.000000	0.450603
1616.000000	0.450713
1617.000000	0.450697
1618.000000	0.450803
1619.000000	0.450944
1620.000000	0.451060
1621.000000	0.451272
1622.000000	0.451500
1623.000000	0.451598
1624.000000	0.451781
1625.000000	0.451846
1626.000000	0.451986
1627.000000	0.452224
1628.000000	0.452461
1629.000000	0.452744
1630.000000	0.453040
1631.000000	0.453216
1632.000000	0.453408
1633.000000	0.453698
1634.000000	0.453862
1635.000000	0.454008
1636.000000	0.454130
1637.000000	0.454197
1638.000000	0.454289
1639.000000	0.454439
1640.000000	0.454547
1641.000000	0.454754
1642.000000	0.454899
1643.000000	0.455102
1644.000000	0.455238
1645.000000	0.455272
1646.000000	0.455347
1647.000000	0.455434
1648.000000	0.455537
1649.000000	0.455824
1650.000000	0.456052
1651.000000	0.456314
1652.000000	0.456582
1653.000000	0.456802
1654.000000	0.457069
1655.000000	0.457299
1656.000000	0.457326
1657.000000	0.457394
1658.000000	0.457382
1659.000000	0.457319
1660.000000	0.457449
1661.000000	0.457524
1662.000000	0.457636
1663.000000	0.457784
1664.000000	0.457955
1665.000000	0.458138
1666.000000	0.458423
1667.000000	0.458636
1668.000000	0.458921
1669.000000	0.459291
1670.000000	0.459426
1671.000000	0.459660
1672.000000	0.459898
1673.000000	0.459964
1674.000000	0.460120
1675.000000	0.460429
1676.000000	0.460646
1677.000000	0.460505
1678.000000	0.460495
1679.000000	0.460695
1680.000000	0.460736
1681.000000	0.460849
1682.000000	0.460966
1683.000000	0.460917
1684.000000	0.460922
1685.000000	0.461058
1686.000000	0.461132
1687.000000	0.461209
1688.000000	0.461293
1689.000000	0.461392
1690.000000	0.461394
1691.000000	0.461517
1692.000000	0.461564
1693.000000	0.461525
1694.000000	0.461506
1695.000000	0.461402
1696.000000	0.461506
1697.000000	0.461385
1698.000000	0.461207
1699.000000	0.461194
1700.000000	0.461044
1701.000000	0.461118
1702.000000	0.461294
1703.000000	0.461294
1704.000000	0.461417
1705.000000	0.461390
1706.000000	0.461207
1707.000000	0.461160
1708.000000	0.461045
1709.000000	0.460894
1710.000000	0.460872
1711.000000	0.460997
1712.000000	0.461269
1713.000000	0.461414
1714.000000	0.461790
1715.000000	0.461963
1716.000000	0.461904
1717.000000	0.461916
1718.000000	0.461820
1719.000000	0.461804
1720.000000	0.461910
1721.000000	0.461968
1722.000000	0.462123
1723.000000	0.462149
1724.000000	0.462106
1725.000000	0.462097
1726.000000	0.461885
1727.000000	0.461810
1728.000000	0.461712
1729.000000	0.461559
1730.000000	0.461611
1731.000000	0.461611
1732.000000	0.461613
1733.000000	0.461688
1734.000000	0.461584
1735.000000	0.461608
1736.000000	0.461643
1737.000000	0.461660
1738.000000	0.461814
1739.000000	0.461736
1740.000000	0.461487
1741.000000	0.461328
1742.000000	0.461077
1743.000000	0.461040
1744.000000	0.461121
1745.000000	0.461067
1746.000000	0.461001
1747.000000	0.460981
1748.000000	0.460872
1749.000000	0.460800
1750.000000	0.460673
1751.000000	0.460646
1752.000000	0.460711
1753.000000	0.460614
1754.000000	0.460545
1755.000000	0.460442
1756.000000	0.460289
1757.000000	0.460074
1758.000000	0.459962
1759.000000	0.459839
1760.000000	0.459734
1761.000000	0.459668
1762.000000	0.459565
1763.000000	0.459486
1764.000000	0.459362
1765.000000	0.459128
1766.000000	0.459013
1767.000000	0.458779
1768.000000	0.458582
1769.000000	0.458631
1770.000000	0.458631
1771.000000	0.458498
1772.000000	0.458510
1773.000000	0.458552
1774.000000	0.458559
1775.000000	0.458802
1776.000000	0.458723
1777.000000	0.458286
1778.000000	0.458216
1779.000000	0.458115
1780.000000	0.458182
1781.000000	0.458541
1782.000000	0.458624
1783.000000	0.458620
1784.000000	0.458903
1785.000000	0.458867
1786.000000	0.458854
1787.000000	0.459122
1788.000000	0.459095
1789.000000	0.459120
1790.000000	0.458840
1791.000000	0.458673
1792.000000	0.458462
1793.000000	0.458477
1794.000000	0.458926
1795.000000	0.459203
1796.000000	0.459536
1797.000000	0.459705
1798.000000	0.459694
1799.000000	0.459714
1800.000000	0.459702
1801.000000	0.460841
1802.000000	0.460358
1803.000000	0.457911
1804.000000	0.457843
1805.000000	0.458420
1806.000000	0.458668
1807.000000	0.460480
1808.000000	0.461067
1809.000000	0.460496
1810.000000	0.460068
1811.000000	0.459988
1812.000000	0.460194
1813.000000	0.459732
1814.000000	0.458861
1815.000000	0.458641
1816.000000	0.458204
1817.000000	0.457901
1818.000000	0.458222
1819.000000	0.458936
1820.000000	0.458575
1821.000000	0.458195
1822.000000	0.457922
1823.000000	0.456832
1824.000000	0.456923
1825.000000	0.458177
1826.000000	0.458318
1827.000000	0.457776
1828.000000	0.458716
1829.000000	0.457859
1830.000000	0.456464
1831.000000	0.456056
1832.000000	0.455976
1833.000000	0.455693
1834.000000	0.455885
1835.000000	0.455793
1836.000000	0.455397
1837.000000	0.455143
1838.000000	0.454791
1839.000000	0.454320
1840.000000	0.453976
1841.000000	0.453324
1842.000000	0.452611
1843.000000	0.451521
1844.000000	0.450889
1845.000000	0.450109
1846.000000	0.449642
1847.000000	0.449448
1848.000000	0.448969
1849.000000	0.448536
1850.000000	0.448109
1851.000000	0.447568
1852.000000	0.446982
1853.000000	0.446327
1854.000000	0.445186
1855.000000	0.444087
1856.000000	0.442841
1857.000000	0.441638
1858.000000	0.439894
1859.000000	0.438348
1860.000000	0.436852
1861.000000	0.435294
1862.000000	0.433388
1863.000000	0.431471
1864.000000	0.429598
1865.000000	0.427515
1866.000000	0.425138
1867.000000	0.422861
1868.000000	0.420370
1869.000000	0.416888
1870.000000	0.413197
1871.000000	0.409322
1872.000000	0.405963
1873.000000	0.402270
1874.000000	0.398297
1875.000000	0.394702
1876.000000	0.391372
1877.000000	0.386680
1878.000000	0.382022
1879.000000	0.377029
1880.000000	0.370747
1881.000000	0.364260
1882.000000	0.357303
1883.000000	0.350219
1884.000000	0.343412
1885.000000	0.336322
1886.000000	0.329271
1887.000000	0.322406
1888.000000	0.315021
1889.000000	0.307655
1890.000000	0.300617
1891.000000	0.293376
1892.000000	0.285988
1893.000000	0.278693
1894.000000	0.271278
1895.000000	0.264475
1896.000000	0.257982
1897.000000	0.252363
1898.000000	0.247178
1899.000000	0.242627
1900.000000	0.238681
1901.000000	0.235091
1902.000000	0.231482
1903.000000	0.228412
1904.000000	0.225749
1905.000000	0.222976
1906.000000	0.221074
1907.000000	0.220004
1908.000000	0.219474
1909.000000	0.218779
1910.000000	0.219088
1911.000000	0.219600
1912.000000	0.219675
1913.000000	0.219929
1914.000000	0.220033
1915.000000	0.220734
1916.000000	0.221320
1917.000000	0.221689
1918.000000	0.222245
1919.000000	0.223196
1920.000000	0.222568
1921.000000	0.222550
1922.000000	0.223508
1923.000000	0.224065
1924.000000	0.225641
1925.000000	0.227235
1926.000000	0.228249
1927.000000	0.229249
1928.000000	0.229991
1929.000000	0.230528
1930.000000	0.231000
1931.000000	0.231360
1932.000000	0.231807
1933.000000	0.232336
1934.000000	0.232752
1935.000000	0.232992
1936.000000	0.233377
1937.000000	0.234542
1938.000000	0.235418
1939.000000	0.236313
1940.000000	0.237697
1941.000000	0.238723
1942.000000	0.238327
1943.000000	0.238317
1944.000000	0.238020
1945.000000	0.237805
1946.000000	0.238062
1947.000000	0.238254
1948.000000	0.238310
1949.000000	0.238621
1950.000000	0.239532
1951.000000	0.239834
1952.000000	0.240079
1953.000000	0.240307
1954.000000	0.240067
1955.000000	0.239641
1956.000000	0.240187
1957.000000	0.240694
1958.000000	0.240906
1959.000000	0.241289
1960.000000	0.241411
1961.000000	0.241556
1962.000000	0.242155
1963.000000	0.243468
1964.000000	0.244636
1965.000000	0.245082
1966.000000	0.245412
1967.000000	0.245776
1968.000000	0.246014
1969.000000	0.246459
1970.000000	0.247095
1971.000000	0.247169
1972.000000	0.247040
1973.000000	0.247368
1974.000000	0.248281
1975.000000	0.248958
1976.000000	0.249827
1977.000000	0.250613
1978.000000	0.251447
1979.000000	0.252099
1980.000000	0.252934
1981.000000	0.254071
1982.000000	0.255074
1983.000000	0.255797
1984.000000	0.256736
1985.000000	0.258082
1986.000000	0.259051
1987.000000	0.259879
1988.000000	0.260872
1989.000000	0.261835
1990.000000	0.262753
1991.000000	0.263976
1992.000000	0.265328
1993.000000	0.266380
1994.000000	0.267699
1995.000000	0.269210
1996.000000	0.269941
1997.000000	0.270859
1998.000000	0.271825
1999.000000	0.272799
2000.000000	0.273457
2001.000000	0.274716
2002.000000	0.276123
2003.000000	0.277416
2004.000000	0.278773
2005.000000	0.280091
2006.000000	0.281262
2007.000000	0.282437
2008.000000	0.283704
2009.000000	0.284927
2010.000000	0.286440
2011.000000	0.288025
2012.000000	0.289457
2013.000000	0.291174
2014.000000	0.291906
2015.000000	0.292767
2016.000000	0.294309
2017.000000	0.295834
2018.000000	0.297350
2019.000000	0.298742
2020.000000	0.299938
2021.000000	0.300853
2022.000000	0.301003
2023.000000	0.301880
2024.000000	0.302936
2025.000000	0.303980
2026.000000	0.304949
2027.000000	0.306703
2028.000000	0.307677
2029.000000	0.308363
2030.000000	0.309787
2031.000000	0.310682
2032.000000	0.311750
2033.000000	0.313390
2034.000000	0.314378
2035.000000	0.314725
2036.000000	0.315693
2037.000000	0.317127
2038.000000	0.318126
2039.000000	0.319203
2040.000000	0.320655
2041.000000	0.321314
2042.000000	0.321870
2043.000000	0.323093
2044.000000	0.324423
2045.000000	0.326034
2046.000000	0.327083
2047.000000	0.327765
2048.000000	0.327895
2049.000000	0.328428
2050.000000	0.327913
2051.000000	0.328549
2052.000000	0.329886
2053.000000	0.330883
2054.000000	0.332526
2055.000000	0.334024
2056.000000	0.335276
2057.000000	0.336000
2058.000000	0.336365
2059.000000	0.337172
2060.000000	0.337903
2061.000000	0.338611
2062.000000	0.339260
2063.000000	0.340101
2064.000000	0.340515
2065.000000	0.340719
2066.000000	0.341075
2067.000000	0.341797
2068.000000	0.342483
2069.000000	0.342941
2070.000000	0.343615
2071.000000	0.343586
2072.000000	0.343997
2073.000000	0.344370
2074.000000	0.344677
2075.000000	0.345439
2076.000000	0.346695
2077.000000	0.347433
2078.000000	0.348329
2079.000000	0.349075
2080.000000	0.349235
2081.000000	0.349978
2082.000000	0.351233
2083.000000	0.352157
2084.000000	0.352925
2085.000000	0.354203
2086.000000	0.354798
2087.000000	0.355153
2088.000000	0.356141
2089.000000	0.356973
2090.000000	0.357678
2091.000000	0.358539
2092.000000	0.359419
2093.000000	0.360344
2094.000000	0.360769
2095.000000	0.361137
2096.000000	0.361483
2097.000000	0.361173
2098.000000	0.360988
2099.000000	0.361303
2100.000000	0.361810
2101.000000	0.362708
2102.000000	0.363624
2103.000000	0.365255
2104.000000	0.367127
2105.000000	0.368222
2106.000000	0.369010
2107.000000	0.369699
2108.000000	0.369851
2109.000000	0.370055
2110.000000	0.369907
2111.000000	0.370056
2112.000000	0.370046
2113.000000	0.369622
2114.000000	0.370323
2115.000000	0.371396
2116.000000	0.372231
2117.000000	0.373019
2118.000000	0.373290
2119.000000	0.373528
2120.000000	0.374051
2121.000000	0.374827
2122.000000	0.375415
2123.000000	0.375982
2124.000000	0.376568
2125.000000	0.377229
2126.000000	0.377452
2127.000000	0.377497
2128.000000	0.377873
2129.000000	0.377711
2130.000000	0.378460
2131.000000	0.378734
2132.000000	0.378302
2133.000000	0.378174
2134.000000	0.377456
2135.000000	0.377409
2136.000000	0.378414
2137.000000	0.379236
2138.000000	0.380997
2139.000000	0.381482
2140.000000	0.381209
2141.000000	0.381504
2142.000000	0.381123
2143.000000	0.380787
2144.000000	0.381427
2145.000000	0.381731
2146.000000	0.381420
2147.000000	0.382279
2148.000000	0.382463
2149.000000	0.382893
2150.000000	0.383487
2151.000000	0.383244
2152.000000	0.383366
2153.000000	0.383616
2154.000000	0.384032
2155.000000	0.384756
2156.000000	0.384929
2157.000000	0.385314
2158.000000	0.385110
2159.000000	0.383899
2160.000000	0.383540
2161.000000	0.383238
2162.000000	0.383403
2163.000000	0.384065
2164.000000	0.384453
2165.000000	0.385198
2166.000000	0.385644
2167.000000	0.385160
2168.000000	0.384551
2169.000000	0.383890
2170.000000	0.383378
2171.000000	0.383486
2172.000000	0.384215
2173.000000	0.385044
2174.000000	0.386492
2175.000000	0.387142
2176.000000	0.388321
2177.000000	0.388536
2178.000000	0.388110
2179.000000	0.387596
2180.000000	0.385473
2181.000000	0.385016
2182.000000	0.384951
2183.000000	0.383529
2184.000000	0.383888
2185.000000	0.384742
2186.000000	0.383510
2187.000000	0.382922
2188.000000	0.382753
2189.000000	0.382334
2190.000000	0.382096
2191.000000	0.383273
2192.000000	0.383315
2193.000000	0.382528
2194.000000	0.381712
2195.000000	0.380726
2196.000000	0.379820
2197.000000	0.377656
2198.000000	0.377447
2199.000000	0.379392
2200.000000	0.379678
2201.000000	0.380363
2202.000000	0.381312
2203.000000	0.380742
2204.000000	0.380359
2205.000000	0.384220
2206.000000	0.386239
2207.000000	0.385679
2208.000000	0.384614
2209.000000	0.382190
2210.000000	0.379537
2211.000000	0.378664
2212.000000	0.377846
2213.000000	0.376513
2214.000000	0.374329
2215.000000	0.373222
2216.000000	0.372098
2217.000000	0.372282
2218.000000	0.372747
2219.000000	0.374011
2220.000000	0.378072
2221.000000	0.379675
2222.000000	0.381259
2223.000000	0.381368
2224.000000	0.379708
2225.000000	0.377049
2226.000000	0.375326
2227.000000	0.373726
2228.000000	0.374425
2229.000000	0.375629
2230.000000	0.374686
2231.000000	0.375484
2232.000000	0.374618
2233.000000	0.371974
2234.000000	0.373478
2235.000000	0.373436
2236.000000	0.372828
2237.000000	0.372461
2238.000000	0.372103
2239.000000	0.370229
2240.000000	0.370564
2241.000000	0.372644
2242.000000	0.373028
2243.000000	0.372640
2244.000000	0.373119
2245.000000	0.373494
2246.000000	0.374336
2247.000000	0.376088
2248.000000	0.377432
2249.000000	0.378752
2250.000000	0.380123
2251.000000	0.380395
2252.000000	0.381282
2253.000000	0.378689
2254.000000	0.376508
2255.000000	0.375016
2256.000000	0.371526
2257.000000	0.371089
2258.000000	0.369686
2259.000000	0.366598
2260.000000	0.366720
2261.000000	0.365358
2262.000000	0.362786
2263.000000	0.362005
2264.000000	0.361461
2265.000000	0.361533
2266.000000	0.363806
2267.000000	0.364007
2268.000000	0.364122
2269.000000	0.363749
2270.000000	0.361905
2271.000000	0.360557
2272.000000	0.360263
2273.000000	0.358220
2274.000000	0.353404
2275.000000	0.350774
2276.000000	0.348905
2277.000000	0.345694
2278.000000	0.344476
2279.000000	0.345991
2280.000000	0.343832
2281.000000	0.341874
2282.000000	0.338768
2283.000000	0.334951
2284.000000	0.332768
2285.000000	0.329340
2286.000000	0.328155
2287.000000	0.326617
2288.000000	0.324662
2289.000000	0.324296
2290.000000	0.322993
2291.000000	0.322009
2292.000000	0.318771
2293.000000	0.314359
2294.000000	0.311661
2295.000000	0.307769
2296.000000	0.305973
2297.000000	0.308153
2298.000000	0.306799
2299.000000	0.304337
2300.000000	0.301497
2301.000000	0.295579
2302.000000	0.292232
2303.000000	0.290242
2304.000000	0.288268
2305.000000	0.288438
2306.000000	0.287265
2307.000000	0.285819
2308.000000	0.282523
2309.000000	0.279544
2310.000000	0.276029
2311.000000	0.274088
2312.000000	0.273624
2313.000000	0.273244
2314.000000	0.273652
2315.000000	0.273303
2316.000000	0.272532
2317.000000	0.273249
2318.000000	0.274171
2319.000000	0.275459
2320.000000	0.276666
2321.000000	0.279104
2322.000000	0.281812
2323.000000	0.283257
2324.000000	0.287073
2325.000000	0.289932
2326.000000	0.291778
2327.000000	0.294952
2328.000000	0.297455
2329.000000	0.298845
2330.000000	0.299429
2331.000000	0.300738
2332.000000	0.300450
2333.000000	0.301246
2334.000000	0.301135
2335.000000	0.301244
2336.000000	0.300826
2337.000000	0.301198
2338.000000	0.302614
2339.000000	0.302513
2340.000000	0.300553
2341.000000	0.300042
2342.000000	0.298402
2343.000000	0.298530
2344.000000	0.302328
2345.000000	0.303061
2346.000000	0.303582
2347.000000	0.303356
2348.000000	0.301478
2349.000000	0.298203
2350.000000	0.297890
2351.000000	0.297841
2352.000000	0.297428
2353.000000	0.298005
2354.000000	0.295719
2355.000000	0.292402
2356.000000	0.290815
2357.000000	0.288408
2358.000000	0.287752
2359.000000	0.288618
2360.000000	0.289212
2361.000000	0.289599
2362.000000	0.291646
2363.000000	0.293223
2364.000000	0.289736
2365.000000	0.291558
2366.000000	0.292351
2367.000000	0.287269
2368.000000	0.283381
2369.000000	0.276194
2370.000000	0.271054
2371.000000	0.264999
2372.000000	0.258436
2373.000000	0.257024
2374.000000	0.255410
2375.000000	0.257572
2376.000000	0.264935
2377.000000	0.268386
2378.000000	0.266456
2379.000000	0.264828
2380.000000	0.262136
2381.000000	0.258526
2382.000000	0.256144
2383.000000	0.250444
2384.000000	0.244529
2385.000000	0.246398
2386.000000	0.242996
2387.000000	0.242392
2388.000000	0.247101
2389.000000	0.241910
2390.000000	0.243364
2391.000000	0.246694
2392.000000	0.249897
2393.000000	0.252463
2394.000000	0.251535
2395.000000	0.253537
2396.000000	0.247642
2397.000000	0.242653
2398.000000	0.241321
2399.000000	0.236149
2400.000000	0.230770
2401.000000	0.232034
2402.000000	0.239800
2403.000000	0.245247
2404.000000	0.253714
2405.000000	0.257499
2406.000000	0.253018
2407.000000	0.252664
2408.000000	0.252435
2409.000000	0.249344
2410.000000	0.245532
2411.000000	0.240091
2412.000000	0.234823
2413.000000	0.239454
2414.000000	0.245615
2415.000000	0.245344
2416.000000	0.248160
2417.000000	0.247054
2418.000000	0.249157
2419.000000	0.260105
2420.000000	0.263252
2421.000000	0.261305
2422.000000	0.246532
2423.000000	0.225974
2424.000000	0.226445
2425.000000	0.224535
2426.000000	0.227083
2427.000000	0.241713
2428.000000	0.237043
2429.000000	0.229839
2430.000000	0.225618
2431.000000	0.219104
2432.000000	0.220864
2433.000000	0.227747
2434.000000	0.238283
2435.000000	0.242950
2436.000000	0.230183
2437.000000	0.219809
2438.000000	0.217204
2439.000000	0.213728
2440.000000	0.218292
2441.000000	0.226891
2442.000000	0.227534
2443.000000	0.225467
2444.000000	0.228060
2445.000000	0.217731
2446.000000	0.206503
2447.000000	0.195891
2448.000000	0.179199
2449.000000	0.177133
2450.000000	0.181948
2451.000000	0.194677
2452.000000	0.199574
2453.000000	0.204101
2454.000000	0.203290
2455.000000	0.182772
2456.000000	0.175041
2457.000000	0.181239
2458.000000	0.195530
2459.000000	0.207508
2460.000000	0.227149
2461.000000	0.220327
2462.000000	0.190760
2463.000000	0.193546
2464.000000	0.186461
2465.000000	0.198580
2466.000000	0.220411
2467.000000	0.204940
2468.000000	0.212893
2469.000000	0.201741
2470.000000	0.179280
2471.000000	0.185376
2472.000000	0.181753
2473.000000	0.182463
2474.000000	0.176900
2475.000000	0.169305
2476.000000	0.168538
2477.000000	0.181575
2478.000000	0.214858
2479.000000	0.239666
2480.000000	0.268056
2481.000000	0.273229
2482.000000	0.260744
2483.000000	0.254474
2484.000000	0.234700
2485.000000	0.214516
2486.000000	0.202580
2487.000000	0.197062
2488.000000	0.178594
2489.000000	0.160494
2490.000000	0.153695
2491.000000	0.156158
2492.000000	0.167510
2493.000000	0.225537
2494.000000	0.244440
2495.000000	0.234819
2496.000000	0.227990
2497.000000	0.179187
2498.000000	0.151155
2499.000000	0.149104
2500.000000	0.147447
