# Wavelength	SM1200H-50_HEX-40_FV7-10_00001.asd.rts.txt
350.000000	0.395916
351.000000	0.420445
352.000000	0.420775
353.000000	0.411873
354.000000	0.409957
355.000000	0.410442
356.000000	0.419218
357.000000	0.428256
358.000000	0.411075
359.000000	0.408511
360.000000	0.414905
361.000000	0.414494
362.000000	0.414383
363.000000	0.416842
364.000000	0.420091
365.000000	0.417684
366.000000	0.412399
367.000000	0.408377
368.000000	0.412053
369.000000	0.417012
370.000000	0.418826
371.000000	0.415383
372.000000	0.418844
373.000000	0.420335
374.000000	0.416529
375.000000	0.421598
376.000000	0.423077
377.000000	0.419644
378.000000	0.420720
379.000000	0.423627
380.000000	0.424480
381.000000	0.421380
382.000000	0.420328
383.000000	0.419820
384.000000	0.419107
385.000000	0.420480
386.000000	0.423615
387.000000	0.426774
388.000000	0.425500
389.000000	0.426158
390.000000	0.427919
391.000000	0.427233
392.000000	0.425687
393.000000	0.424993
394.000000	0.426128
395.000000	0.428269
396.000000	0.429430
397.000000	0.429239
398.000000	0.429388
399.000000	0.430535
400.000000	0.432130
401.000000	0.432781
402.000000	0.432673
403.000000	0.432604
404.000000	0.433311
405.000000	0.433536
406.000000	0.433876
407.000000	0.434467
408.000000	0.434168
409.000000	0.434652
410.000000	0.435758
411.000000	0.436228
412.000000	0.436519
413.000000	0.437246
414.000000	0.438692
415.000000	0.438730
416.000000	0.438470
417.000000	0.438646
418.000000	0.438650
419.000000	0.438719
420.000000	0.439160
421.000000	0.440430
422.000000	0.440803
423.000000	0.440423
424.000000	0.440240
425.000000	0.440855
426.000000	0.441574
427.000000	0.441855
428.000000	0.442227
429.000000	0.442881
430.000000	0.443620
431.000000	0.443590
432.000000	0.444145
433.000000	0.444917
434.000000	0.444988
435.000000	0.445095
436.000000	0.445361
437.000000	0.445730
438.000000	0.446157
439.000000	0.446335
440.000000	0.446362
441.000000	0.446459
442.000000	0.446977
443.000000	0.447708
444.000000	0.448309
445.000000	0.448503
446.000000	0.448673
447.000000	0.449023
448.000000	0.449595
449.000000	0.449963
450.000000	0.449991
451.000000	0.450384
452.000000	0.450534
453.000000	0.450341
454.000000	0.450696
455.000000	0.451068
456.000000	0.451562
457.000000	0.452150
458.000000	0.452426
459.000000	0.452825
460.000000	0.453704
461.000000	0.454001
462.000000	0.454164
463.000000	0.454286
464.000000	0.454758
465.000000	0.455074
466.000000	0.455078
467.000000	0.455073
468.000000	0.455232
469.000000	0.455279
470.000000	0.455234
471.000000	0.455644
472.000000	0.456187
473.000000	0.456619
474.000000	0.456910
475.000000	0.457036
476.000000	0.457230
477.000000	0.457368
478.000000	0.457524
479.000000	0.457919
480.000000	0.458197
481.000000	0.458499
482.000000	0.458818
483.000000	0.458816
484.000000	0.459126
485.000000	0.459288
486.000000	0.459476
487.000000	0.460067
488.000000	0.460462
489.000000	0.460652
490.000000	0.460958
491.000000	0.461211
492.000000	0.461516
493.000000	0.461791
494.000000	0.462137
495.000000	0.462607
496.000000	0.463079
497.000000	0.463236
498.000000	0.463450
499.000000	0.463934
500.000000	0.464410
501.000000	0.464626
502.000000	0.464866
503.000000	0.465471
504.000000	0.465731
505.000000	0.465864
506.000000	0.466172
507.000000	0.466376
508.000000	0.466643
509.000000	0.466997
510.000000	0.467412
511.000000	0.467753
512.000000	0.468064
513.000000	0.468435
514.000000	0.468791
515.000000	0.469171
516.000000	0.469516
517.000000	0.469748
518.000000	0.470041
519.000000	0.470377
520.000000	0.470720
521.000000	0.471078
522.000000	0.471434
523.000000	0.471670
524.000000	0.472047
525.000000	0.472456
526.000000	0.472671
527.000000	0.472909
528.000000	0.473205
529.000000	0.473606
530.000000	0.473824
531.000000	0.474091
532.000000	0.474406
533.000000	0.474734
534.000000	0.475108
535.000000	0.475465
536.000000	0.475696
537.000000	0.475955
538.000000	0.476279
539.000000	0.476633
540.000000	0.476959
541.000000	0.477241
542.000000	0.477545
543.000000	0.477889
544.000000	0.478267
545.000000	0.478557
546.000000	0.478833
547.000000	0.479158
548.000000	0.479535
549.000000	0.479753
550.000000	0.480118
551.000000	0.480593
552.000000	0.480953
553.000000	0.481200
554.000000	0.481523
555.000000	0.482025
556.000000	0.482487
557.000000	0.482757
558.000000	0.483049
559.000000	0.483433
560.000000	0.483751
561.000000	0.484085
562.000000	0.484364
563.000000	0.484634
564.000000	0.484995
565.000000	0.485337
566.000000	0.485661
567.000000	0.485982
568.000000	0.486272
569.000000	0.486546
570.000000	0.486853
571.000000	0.487171
572.000000	0.487461
573.000000	0.487753
574.000000	0.488054
575.000000	0.488452
576.000000	0.488778
577.000000	0.489057
578.000000	0.489424
579.000000	0.489768
580.000000	0.490067
581.000000	0.490319
582.000000	0.490549
583.000000	0.490819
584.000000	0.491139
585.000000	0.491482
586.000000	0.491744
587.000000	0.491958
588.000000	0.492194
589.000000	0.492470
590.000000	0.492720
591.000000	0.492927
592.000000	0.493233
593.000000	0.493505
594.000000	0.493740
595.000000	0.494074
596.000000	0.494239
597.000000	0.494415
598.000000	0.494758
599.000000	0.494989
600.000000	0.495220
601.000000	0.495452
602.000000	0.495710
603.000000	0.495864
604.000000	0.495930
605.000000	0.496150
606.000000	0.496294
607.000000	0.496394
608.000000	0.496632
609.000000	0.496883
610.000000	0.497097
611.000000	0.497244
612.000000	0.497336
613.000000	0.497478
614.000000	0.497762
615.000000	0.498023
616.000000	0.498164
617.000000	0.498209
618.000000	0.498500
619.000000	0.498734
620.000000	0.498804
621.000000	0.498799
622.000000	0.498974
623.000000	0.499079
624.000000	0.498959
625.000000	0.499154
626.000000	0.499351
627.000000	0.499432
628.000000	0.499613
629.000000	0.499930
630.000000	0.500176
631.000000	0.500465
632.000000	0.500541
633.000000	0.500618
634.000000	0.500889
635.000000	0.501023
636.000000	0.501162
637.000000	0.501347
638.000000	0.501454
639.000000	0.501551
640.000000	0.501738
641.000000	0.501878
642.000000	0.501953
643.000000	0.502043
644.000000	0.502246
645.000000	0.502403
646.000000	0.502506
647.000000	0.502552
648.000000	0.502690
649.000000	0.502831
650.000000	0.502917
651.000000	0.503023
652.000000	0.503160
653.000000	0.503359
654.000000	0.503505
655.000000	0.503678
656.000000	0.503856
657.000000	0.503938
658.000000	0.504096
659.000000	0.504251
660.000000	0.504347
661.000000	0.504469
662.000000	0.504493
663.000000	0.504564
664.000000	0.504800
665.000000	0.504961
666.000000	0.505094
667.000000	0.505243
668.000000	0.505397
669.000000	0.505541
670.000000	0.505682
671.000000	0.505851
672.000000	0.505991
673.000000	0.506118
674.000000	0.506349
675.000000	0.506579
676.000000	0.506740
677.000000	0.506830
678.000000	0.506962
679.000000	0.507119
680.000000	0.507282
681.000000	0.507407
682.000000	0.507537
683.000000	0.507626
684.000000	0.507931
685.000000	0.508163
686.000000	0.508327
687.000000	0.508445
688.000000	0.508623
689.000000	0.508800
690.000000	0.508966
691.000000	0.509078
692.000000	0.509118
693.000000	0.509227
694.000000	0.509448
695.000000	0.509636
696.000000	0.509766
697.000000	0.509871
698.000000	0.509980
699.000000	0.510139
700.000000	0.510362
701.000000	0.510487
702.000000	0.510635
703.000000	0.510812
704.000000	0.510950
705.000000	0.511138
706.000000	0.511279
707.000000	0.511366
708.000000	0.511491
709.000000	0.511597
710.000000	0.511673
711.000000	0.511813
712.000000	0.511952
713.000000	0.512086
714.000000	0.512193
715.000000	0.512320
716.000000	0.512500
717.000000	0.512703
718.000000	0.512776
719.000000	0.512798
720.000000	0.512899
721.000000	0.513125
722.000000	0.513265
723.000000	0.513376
724.000000	0.513590
725.000000	0.513686
726.000000	0.513759
727.000000	0.513762
728.000000	0.513781
729.000000	0.513826
730.000000	0.513828
731.000000	0.513955
732.000000	0.514058
733.000000	0.514142
734.000000	0.514206
735.000000	0.514292
736.000000	0.514519
737.000000	0.514605
738.000000	0.514542
739.000000	0.514618
740.000000	0.514733
741.000000	0.514804
742.000000	0.514912
743.000000	0.515030
744.000000	0.515160
745.000000	0.515153
746.000000	0.515158
747.000000	0.515226
748.000000	0.515218
749.000000	0.515311
750.000000	0.515535
751.000000	0.515699
752.000000	0.515806
753.000000	0.515883
754.000000	0.515939
755.000000	0.515994
756.000000	0.516078
757.000000	0.516130
758.000000	0.516091
759.000000	0.516128
760.000000	0.516195
761.000000	0.516261
762.000000	0.516279
763.000000	0.516269
764.000000	0.516422
765.000000	0.516462
766.000000	0.516481
767.000000	0.516588
768.000000	0.516712
769.000000	0.516794
770.000000	0.516826
771.000000	0.516843
772.000000	0.516945
773.000000	0.516979
774.000000	0.516938
775.000000	0.517048
776.000000	0.517181
777.000000	0.517214
778.000000	0.517311
779.000000	0.517393
780.000000	0.517448
781.000000	0.517482
782.000000	0.517546
783.000000	0.517730
784.000000	0.517803
785.000000	0.517754
786.000000	0.517751
787.000000	0.517822
788.000000	0.517723
789.000000	0.517572
790.000000	0.517480
791.000000	0.517629
792.000000	0.517719
793.000000	0.517720
794.000000	0.517696
795.000000	0.517814
796.000000	0.517876
797.000000	0.517838
798.000000	0.517843
799.000000	0.517855
800.000000	0.517840
801.000000	0.517786
802.000000	0.517766
803.000000	0.517811
804.000000	0.517951
805.000000	0.518011
806.000000	0.517970
807.000000	0.517984
808.000000	0.518034
809.000000	0.518004
810.000000	0.517956
811.000000	0.517931
812.000000	0.517914
813.000000	0.517906
814.000000	0.517910
815.000000	0.517964
816.000000	0.517960
817.000000	0.517970
818.000000	0.517934
819.000000	0.517826
820.000000	0.517735
821.000000	0.517677
822.000000	0.517829
823.000000	0.517917
824.000000	0.517911
825.000000	0.518050
826.000000	0.518063
827.000000	0.517927
828.000000	0.517792
829.000000	0.517890
830.000000	0.517801
831.000000	0.517636
832.000000	0.517505
833.000000	0.517429
834.000000	0.517382
835.000000	0.517367
836.000000	0.517260
837.000000	0.517197
838.000000	0.517259
839.000000	0.517398
840.000000	0.517371
841.000000	0.517215
842.000000	0.516988
843.000000	0.516907
844.000000	0.516910
845.000000	0.516909
846.000000	0.516932
847.000000	0.516904
848.000000	0.516863
849.000000	0.516907
850.000000	0.516924
851.000000	0.516789
852.000000	0.516582
853.000000	0.516472
854.000000	0.516342
855.000000	0.516303
856.000000	0.516219
857.000000	0.516245
858.000000	0.516285
859.000000	0.516143
860.000000	0.515885
861.000000	0.515770
862.000000	0.515858
863.000000	0.515961
864.000000	0.515917
865.000000	0.515896
866.000000	0.515963
867.000000	0.515765
868.000000	0.515747
869.000000	0.515734
870.000000	0.515535
871.000000	0.515354
872.000000	0.515132
873.000000	0.514815
874.000000	0.514780
875.000000	0.514660
876.000000	0.514486
877.000000	0.514332
878.000000	0.514250
879.000000	0.514184
880.000000	0.513906
881.000000	0.513733
882.000000	0.513549
883.000000	0.513295
884.000000	0.512880
885.000000	0.512815
886.000000	0.512749
887.000000	0.512565
888.000000	0.512583
889.000000	0.512606
890.000000	0.512536
891.000000	0.512641
892.000000	0.512513
893.000000	0.512257
894.000000	0.512126
895.000000	0.511859
896.000000	0.511625
897.000000	0.511422
898.000000	0.511206
899.000000	0.511058
900.000000	0.510907
901.000000	0.510707
902.000000	0.510684
903.000000	0.510419
904.000000	0.510133
905.000000	0.509978
906.000000	0.509937
907.000000	0.509890
908.000000	0.509795
909.000000	0.509417
910.000000	0.509256
911.000000	0.509208
912.000000	0.509093
913.000000	0.508874
914.000000	0.508786
915.000000	0.508799
916.000000	0.508427
917.000000	0.508082
918.000000	0.507851
919.000000	0.507683
920.000000	0.507475
921.000000	0.507399
922.000000	0.507277
923.000000	0.506789
924.000000	0.506562
925.000000	0.506386
926.000000	0.506162
927.000000	0.505948
928.000000	0.505857
929.000000	0.505703
930.000000	0.505310
931.000000	0.505123
932.000000	0.504838
933.000000	0.504435
934.000000	0.504068
935.000000	0.503961
936.000000	0.503917
937.000000	0.503579
938.000000	0.503211
939.000000	0.502846
940.000000	0.502462
941.000000	0.502253
942.000000	0.502027
943.000000	0.501769
944.000000	0.501315
945.000000	0.500931
946.000000	0.500298
947.000000	0.499722
948.000000	0.499484
949.000000	0.499347
950.000000	0.499354
951.000000	0.499368
952.000000	0.499297
953.000000	0.499286
954.000000	0.499120
955.000000	0.498634
956.000000	0.498442
957.000000	0.498242
958.000000	0.498007
959.000000	0.497958
960.000000	0.497621
961.000000	0.497228
962.000000	0.496900
963.000000	0.496667
964.000000	0.496337
965.000000	0.496269
966.000000	0.496378
967.000000	0.495773
968.000000	0.495472
969.000000	0.495441
970.000000	0.495323
971.000000	0.494856
972.000000	0.494552
973.000000	0.494390
974.000000	0.493956
975.000000	0.493723
976.000000	0.493497
977.000000	0.493143
978.000000	0.493153
979.000000	0.493447
980.000000	0.493388
981.000000	0.493031
982.000000	0.492768
983.000000	0.492530
984.000000	0.492401
985.000000	0.492377
986.000000	0.492129
987.000000	0.491874
988.000000	0.491617
989.000000	0.491332
990.000000	0.491240
991.000000	0.491164
992.000000	0.490983
993.000000	0.491140
994.000000	0.491034
995.000000	0.490925
996.000000	0.491007
997.000000	0.490909
998.000000	0.490866
999.000000	0.490987
1000.000000	0.490680
1001.000000	0.490862
1002.000000	0.490980
1003.000000	0.490691
1004.000000	0.490836
1005.000000	0.491586
1006.000000	0.491244
1007.000000	0.490527
1008.000000	0.490219
1009.000000	0.489707
1010.000000	0.489190
1011.000000	0.489262
1012.000000	0.489813
1013.000000	0.489159
1014.000000	0.488849
1015.000000	0.489137
1016.000000	0.489085
1017.000000	0.489454
1018.000000	0.489841
1019.000000	0.489843
1020.000000	0.489461
1021.000000	0.489045
1022.000000	0.488555
1023.000000	0.488783
1024.000000	0.489279
1025.000000	0.489648
1026.000000	0.489782
1027.000000	0.489982
1028.000000	0.489830
1029.000000	0.489605
1030.000000	0.489304
1031.000000	0.489240
1032.000000	0.489473
1033.000000	0.489414
1034.000000	0.489728
1035.000000	0.490759
1036.000000	0.491190
1037.000000	0.491640
1038.000000	0.491578
1039.000000	0.491203
1040.000000	0.490900
1041.000000	0.490758
1042.000000	0.490752
1043.000000	0.491105
1044.000000	0.491316
1045.000000	0.490992
1046.000000	0.490140
1047.000000	0.490027
1048.000000	0.490029
1049.000000	0.490022
1050.000000	0.490666
1051.000000	0.490781
1052.000000	0.490316
1053.000000	0.490077
1054.000000	0.489774
1055.000000	0.490067
1056.000000	0.490756
1057.000000	0.491761
1058.000000	0.492391
1059.000000	0.492520
1060.000000	0.492634
1061.000000	0.492792
1062.000000	0.493005
1063.000000	0.493375
1064.000000	0.493609
1065.000000	0.493443
1066.000000	0.493590
1067.000000	0.493883
1068.000000	0.494044
1069.000000	0.494101
1070.000000	0.494212
1071.000000	0.494378
1072.000000	0.494660
1073.000000	0.495265
1074.000000	0.495659
1075.000000	0.495652
1076.000000	0.495532
1077.000000	0.494948
1078.000000	0.494619
1079.000000	0.494731
1080.000000	0.495445
1081.000000	0.495678
1082.000000	0.496160
1083.000000	0.496472
1084.000000	0.496661
1085.000000	0.496821
1086.000000	0.497012
1087.000000	0.497142
1088.000000	0.496819
1089.000000	0.496705
1090.000000	0.496567
1091.000000	0.496608
1092.000000	0.496569
1093.000000	0.497042
1094.000000	0.497250
1095.000000	0.497289
1096.000000	0.497670
1097.000000	0.498377
1098.000000	0.498577
1099.000000	0.498608
1100.000000	0.498889
1101.000000	0.498898
1102.000000	0.498877
1103.000000	0.498845
1104.000000	0.499159
1105.000000	0.499631
1106.000000	0.499809
1107.000000	0.500073
1108.000000	0.500319
1109.000000	0.500357
1110.000000	0.500271
1111.000000	0.500387
1112.000000	0.500730
1113.000000	0.501165
1114.000000	0.501743
1115.000000	0.501997
1116.000000	0.502360
1117.000000	0.502585
1118.000000	0.502448
1119.000000	0.502337
1120.000000	0.502236
1121.000000	0.502246
1122.000000	0.502398
1123.000000	0.502639
1124.000000	0.502532
1125.000000	0.502735
1126.000000	0.503014
1127.000000	0.503032
1128.000000	0.503018
1129.000000	0.503273
1130.000000	0.503260
1131.000000	0.502892
1132.000000	0.502748
1133.000000	0.502798
1134.000000	0.502810
1135.000000	0.502816
1136.000000	0.502645
1137.000000	0.502351
1138.000000	0.502121
1139.000000	0.501945
1140.000000	0.501823
1141.000000	0.501651
1142.000000	0.501599
1143.000000	0.501429
1144.000000	0.501496
1145.000000	0.501568
1146.000000	0.501501
1147.000000	0.501397
1148.000000	0.501101
1149.000000	0.500854
1150.000000	0.500527
1151.000000	0.500409
1152.000000	0.500221
1153.000000	0.500201
1154.000000	0.500396
1155.000000	0.500337
1156.000000	0.500212
1157.000000	0.500127
1158.000000	0.499773
1159.000000	0.499664
1160.000000	0.499739
1161.000000	0.499729
1162.000000	0.499933
1163.000000	0.500154
1164.000000	0.500119
1165.000000	0.499959
1166.000000	0.499975
1167.000000	0.499899
1168.000000	0.499862
1169.000000	0.500012
1170.000000	0.500066
1171.000000	0.500161
1172.000000	0.500136
1173.000000	0.499916
1174.000000	0.499872
1175.000000	0.499693
1176.000000	0.499658
1177.000000	0.500141
1178.000000	0.500210
1179.000000	0.500088
1180.000000	0.499892
1181.000000	0.499621
1182.000000	0.499241
1183.000000	0.499070
1184.000000	0.499151
1185.000000	0.499208
1186.000000	0.499411
1187.000000	0.499457
1188.000000	0.499535
1189.000000	0.499458
1190.000000	0.499369
1191.000000	0.499191
1192.000000	0.498989
1193.000000	0.499001
1194.000000	0.498847
1195.000000	0.498732
1196.000000	0.498567
1197.000000	0.498558
1198.000000	0.498676
1199.000000	0.498737
1200.000000	0.498896
1201.000000	0.499000
1202.000000	0.498956
1203.000000	0.499067
1204.000000	0.499314
1205.000000	0.499435
1206.000000	0.499375
1207.000000	0.499297
1208.000000	0.499219
1209.000000	0.499130
1210.000000	0.499084
1211.000000	0.499070
1212.000000	0.499035
1213.000000	0.499072
1214.000000	0.499009
1215.000000	0.498918
1216.000000	0.498829
1217.000000	0.498513
1218.000000	0.498330
1219.000000	0.498224
1220.000000	0.498290
1221.000000	0.498303
1222.000000	0.498432
1223.000000	0.498525
1224.000000	0.498544
1225.000000	0.498638
1226.000000	0.498561
1227.000000	0.498335
1228.000000	0.498301
1229.000000	0.498159
1230.000000	0.497820
1231.000000	0.497718
1232.000000	0.497991
1233.000000	0.498153
1234.000000	0.498394
1235.000000	0.498467
1236.000000	0.498192
1237.000000	0.498175
1238.000000	0.498191
1239.000000	0.498112
1240.000000	0.498009
1241.000000	0.498052
1242.000000	0.497913
1243.000000	0.497807
1244.000000	0.497950
1245.000000	0.498023
1246.000000	0.498019
1247.000000	0.498143
1248.000000	0.498179
1249.000000	0.498309
1250.000000	0.498365
1251.000000	0.498333
1252.000000	0.498281
1253.000000	0.498152
1254.000000	0.498031
1255.000000	0.497867
1256.000000	0.497812
1257.000000	0.497827
1258.000000	0.497931
1259.000000	0.498140
1260.000000	0.498223
1261.000000	0.498113
1262.000000	0.498077
1263.000000	0.498068
1264.000000	0.497920
1265.000000	0.497899
1266.000000	0.497884
1267.000000	0.497779
1268.000000	0.497763
1269.000000	0.497758
1270.000000	0.497776
1271.000000	0.497665
1272.000000	0.497555
1273.000000	0.497641
1274.000000	0.497750
1275.000000	0.497718
1276.000000	0.497771
1277.000000	0.497829
1278.000000	0.497547
1279.000000	0.497452
1280.000000	0.497407
1281.000000	0.497323
1282.000000	0.497392
1283.000000	0.497409
1284.000000	0.497235
1285.000000	0.497213
1286.000000	0.497181
1287.000000	0.497052
1288.000000	0.497293
1289.000000	0.497448
1290.000000	0.497215
1291.000000	0.496984
1292.000000	0.496745
1293.000000	0.496568
1294.000000	0.496571
1295.000000	0.496722
1296.000000	0.496725
1297.000000	0.496553
1298.000000	0.496604
1299.000000	0.496619
1300.000000	0.496577
1301.000000	0.496550
1302.000000	0.496344
1303.000000	0.496069
1304.000000	0.495857
1305.000000	0.495791
1306.000000	0.495616
1307.000000	0.495479
1308.000000	0.495375
1309.000000	0.495254
1310.000000	0.495090
1311.000000	0.494980
1312.000000	0.494768
1313.000000	0.494600
1314.000000	0.494409
1315.000000	0.494162
1316.000000	0.494083
1317.000000	0.493943
1318.000000	0.493806
1319.000000	0.493571
1320.000000	0.493340
1321.000000	0.493068
1322.000000	0.492596
1323.000000	0.492367
1324.000000	0.492191
1325.000000	0.491693
1326.000000	0.491328
1327.000000	0.491106
1328.000000	0.490965
1329.000000	0.490589
1330.000000	0.490243
1331.000000	0.489815
1332.000000	0.489180
1333.000000	0.488664
1334.000000	0.488356
1335.000000	0.488124
1336.000000	0.487896
1337.000000	0.487665
1338.000000	0.487484
1339.000000	0.487111
1340.000000	0.486811
1341.000000	0.486547
1342.000000	0.486195
1343.000000	0.485889
1344.000000	0.485603
1345.000000	0.485153
1346.000000	0.484902
1347.000000	0.484667
1348.000000	0.484255
1349.000000	0.483762
1350.000000	0.483434
1351.000000	0.482969
1352.000000	0.482528
1353.000000	0.482287
1354.000000	0.481764
1355.000000	0.481152
1356.000000	0.480868
1357.000000	0.480445
1358.000000	0.480099
1359.000000	0.479832
1360.000000	0.479376
1361.000000	0.478746
1362.000000	0.478189
1363.000000	0.477507
1364.000000	0.477001
1365.000000	0.476655
1366.000000	0.476121
1367.000000	0.475578
1368.000000	0.474880
1369.000000	0.474248
1370.000000	0.473369
1371.000000	0.472416
1372.000000	0.471510
1373.000000	0.470341
1374.000000	0.468982
1375.000000	0.467454
1376.000000	0.465775
1377.000000	0.463853
1378.000000	0.461549
1379.000000	0.458764
1380.000000	0.455612
1381.000000	0.451960
1382.000000	0.447959
1383.000000	0.444007
1384.000000	0.439717
1385.000000	0.435312
1386.000000	0.431259
1387.000000	0.427534
1388.000000	0.424271
1389.000000	0.421759
1390.000000	0.420011
1391.000000	0.418800
1392.000000	0.418273
1393.000000	0.417974
1394.000000	0.418425
1395.000000	0.418599
1396.000000	0.419065
1397.000000	0.419069
1398.000000	0.418991
1399.000000	0.418578
1400.000000	0.417868
1401.000000	0.416872
1402.000000	0.415687
1403.000000	0.414159
1404.000000	0.412680
1405.000000	0.411103
1406.000000	0.409423
1407.000000	0.407861
1408.000000	0.406024
1409.000000	0.404407
1410.000000	0.403057
1411.000000	0.401607
1412.000000	0.400301
1413.000000	0.399024
1414.000000	0.397781
1415.000000	0.396818
1416.000000	0.395862
1417.000000	0.394960
1418.000000	0.394183
1419.000000	0.393387
1420.000000	0.392591
1421.000000	0.392050
1422.000000	0.391432
1423.000000	0.390857
1424.000000	0.390262
1425.000000	0.389617
1426.000000	0.388889
1427.000000	0.388249
1428.000000	0.387744
1429.000000	0.387228
1430.000000	0.386832
1431.000000	0.386365
1432.000000	0.385817
1433.000000	0.385188
1434.000000	0.384655
1435.000000	0.384238
1436.000000	0.383794
1437.000000	0.383372
1438.000000	0.382820
1439.000000	0.382248
1440.000000	0.381720
1441.000000	0.381178
1442.000000	0.380728
1443.000000	0.380290
1444.000000	0.379742
1445.000000	0.379283
1446.000000	0.378839
1447.000000	0.378362
1448.000000	0.377957
1449.000000	0.377565
1450.000000	0.377106
1451.000000	0.376714
1452.000000	0.376218
1453.000000	0.375649
1454.000000	0.375232
1455.000000	0.374943
1456.000000	0.374788
1457.000000	0.374689
1458.000000	0.374590
1459.000000	0.374429
1460.000000	0.374201
1461.000000	0.373986
1462.000000	0.373759
1463.000000	0.373568
1464.000000	0.373466
1465.000000	0.373474
1466.000000	0.373579
1467.000000	0.373691
1468.000000	0.373864
1469.000000	0.374195
1470.000000	0.374437
1471.000000	0.374655
1472.000000	0.374975
1473.000000	0.375441
1474.000000	0.375822
1475.000000	0.376366
1476.000000	0.377001
1477.000000	0.377454
1478.000000	0.377931
1479.000000	0.378487
1480.000000	0.379114
1481.000000	0.379741
1482.000000	0.380566
1483.000000	0.381291
1484.000000	0.381940
1485.000000	0.382616
1486.000000	0.383280
1487.000000	0.383983
1488.000000	0.384711
1489.000000	0.385505
1490.000000	0.386230
1491.000000	0.386960
1492.000000	0.387676
1493.000000	0.388389
1494.000000	0.388994
1495.000000	0.389641
1496.000000	0.390407
1497.000000	0.390988
1498.000000	0.391494
1499.000000	0.391945
1500.000000	0.392452
1501.000000	0.393000
1502.000000	0.393585
1503.000000	0.394302
1504.000000	0.394913
1505.000000	0.395365
1506.000000	0.395925
1507.000000	0.396481
1508.000000	0.397061
1509.000000	0.397569
1510.000000	0.397939
1511.000000	0.398374
1512.000000	0.398719
1513.000000	0.399135
1514.000000	0.399772
1515.000000	0.400175
1516.000000	0.400430
1517.000000	0.400591
1518.000000	0.400596
1519.000000	0.400741
1520.000000	0.401210
1521.000000	0.401569
1522.000000	0.401924
1523.000000	0.402318
1524.000000	0.402397
1525.000000	0.402581
1526.000000	0.402877
1527.000000	0.403154
1528.000000	0.403594
1529.000000	0.403904
1530.000000	0.404056
1531.000000	0.404298
1532.000000	0.404391
1533.000000	0.404552
1534.000000	0.404903
1535.000000	0.405158
1536.000000	0.405280
1537.000000	0.405539
1538.000000	0.405789
1539.000000	0.405866
1540.000000	0.406155
1541.000000	0.406620
1542.000000	0.406945
1543.000000	0.407173
1544.000000	0.407325
1545.000000	0.407435
1546.000000	0.407538
1547.000000	0.407784
1548.000000	0.408040
1549.000000	0.408063
1550.000000	0.408116
1551.000000	0.408323
1552.000000	0.408520
1553.000000	0.408730
1554.000000	0.408942
1555.000000	0.408997
1556.000000	0.409026
1557.000000	0.409073
1558.000000	0.409099
1559.000000	0.409002
1560.000000	0.408955
1561.000000	0.408931
1562.000000	0.408942
1563.000000	0.409065
1564.000000	0.409138
1565.000000	0.409231
1566.000000	0.409138
1567.000000	0.409030
1568.000000	0.409000
1569.000000	0.409026
1570.000000	0.409056
1571.000000	0.409114
1572.000000	0.409164
1573.000000	0.409210
1574.000000	0.409263
1575.000000	0.409386
1576.000000	0.409521
1577.000000	0.409609
1578.000000	0.409680
1579.000000	0.409857
1580.000000	0.409947
1581.000000	0.410072
1582.000000	0.410139
1583.000000	0.410208
1584.000000	0.410177
1585.000000	0.410085
1586.000000	0.410136
1587.000000	0.410199
1588.000000	0.410250
1589.000000	0.410439
1590.000000	0.410503
1591.000000	0.410435
1592.000000	0.410572
1593.000000	0.410917
1594.000000	0.410992
1595.000000	0.411093
1596.000000	0.411152
1597.000000	0.411024
1598.000000	0.411023
1599.000000	0.411242
1600.000000	0.411225
1601.000000	0.411104
1602.000000	0.411094
1603.000000	0.411068
1604.000000	0.411110
1605.000000	0.411384
1606.000000	0.411448
1607.000000	0.411466
1608.000000	0.411536
1609.000000	0.411605
1610.000000	0.411643
1611.000000	0.411789
1612.000000	0.411821
1613.000000	0.411811
1614.000000	0.411885
1615.000000	0.412034
1616.000000	0.412224
1617.000000	0.412516
1618.000000	0.412686
1619.000000	0.412700
1620.000000	0.412884
1621.000000	0.413092
1622.000000	0.413381
1623.000000	0.413827
1624.000000	0.414171
1625.000000	0.414335
1626.000000	0.414489
1627.000000	0.414609
1628.000000	0.414811
1629.000000	0.414941
1630.000000	0.415208
1631.000000	0.415564
1632.000000	0.415808
1633.000000	0.416052
1634.000000	0.416338
1635.000000	0.416607
1636.000000	0.416908
1637.000000	0.417385
1638.000000	0.417620
1639.000000	0.417871
1640.000000	0.417987
1641.000000	0.417886
1642.000000	0.418073
1643.000000	0.418422
1644.000000	0.418594
1645.000000	0.418858
1646.000000	0.418981
1647.000000	0.418892
1648.000000	0.419021
1649.000000	0.419411
1650.000000	0.419684
1651.000000	0.419950
1652.000000	0.420381
1653.000000	0.420790
1654.000000	0.421280
1655.000000	0.421945
1656.000000	0.422231
1657.000000	0.422441
1658.000000	0.422676
1659.000000	0.422889
1660.000000	0.423193
1661.000000	0.423451
1662.000000	0.423697
1663.000000	0.423886
1664.000000	0.424104
1665.000000	0.424357
1666.000000	0.424607
1667.000000	0.424741
1668.000000	0.424896
1669.000000	0.424983
1670.000000	0.425120
1671.000000	0.425450
1672.000000	0.425662
1673.000000	0.425788
1674.000000	0.426002
1675.000000	0.426196
1676.000000	0.426341
1677.000000	0.426611
1678.000000	0.426720
1679.000000	0.426814
1680.000000	0.426951
1681.000000	0.427026
1682.000000	0.427232
1683.000000	0.427439
1684.000000	0.427619
1685.000000	0.427900
1686.000000	0.427990
1687.000000	0.428017
1688.000000	0.427931
1689.000000	0.427847
1690.000000	0.427902
1691.000000	0.428053
1692.000000	0.428103
1693.000000	0.428238
1694.000000	0.428284
1695.000000	0.428214
1696.000000	0.428398
1697.000000	0.428450
1698.000000	0.428496
1699.000000	0.428634
1700.000000	0.428805
1701.000000	0.428997
1702.000000	0.429041
1703.000000	0.429037
1704.000000	0.429027
1705.000000	0.429058
1706.000000	0.429138
1707.000000	0.429253
1708.000000	0.429391
1709.000000	0.429447
1710.000000	0.429651
1711.000000	0.429786
1712.000000	0.429794
1713.000000	0.429965
1714.000000	0.430253
1715.000000	0.430566
1716.000000	0.431152
1717.000000	0.431419
1718.000000	0.431404
1719.000000	0.431555
1720.000000	0.431723
1721.000000	0.431854
1722.000000	0.432164
1723.000000	0.432257
1724.000000	0.432090
1725.000000	0.432185
1726.000000	0.432240
1727.000000	0.432302
1728.000000	0.432409
1729.000000	0.432397
1730.000000	0.432429
1731.000000	0.432549
1732.000000	0.432734
1733.000000	0.432983
1734.000000	0.433150
1735.000000	0.433288
1736.000000	0.433366
1737.000000	0.433501
1738.000000	0.433652
1739.000000	0.433799
1740.000000	0.434037
1741.000000	0.433988
1742.000000	0.433754
1743.000000	0.433808
1744.000000	0.433759
1745.000000	0.433877
1746.000000	0.434285
1747.000000	0.434203
1748.000000	0.434149
1749.000000	0.434076
1750.000000	0.433892
1751.000000	0.433810
1752.000000	0.433887
1753.000000	0.433754
1754.000000	0.433668
1755.000000	0.433517
1756.000000	0.433574
1757.000000	0.433839
1758.000000	0.433958
1759.000000	0.434159
1760.000000	0.434335
1761.000000	0.434242
1762.000000	0.434291
1763.000000	0.434686
1764.000000	0.434709
1765.000000	0.434416
1766.000000	0.434299
1767.000000	0.433886
1768.000000	0.433683
1769.000000	0.433813
1770.000000	0.433915
1771.000000	0.434013
1772.000000	0.434090
1773.000000	0.434086
1774.000000	0.434244
1775.000000	0.434623
1776.000000	0.434735
1777.000000	0.434781
1778.000000	0.434821
1779.000000	0.434564
1780.000000	0.434708
1781.000000	0.435124
1782.000000	0.435241
1783.000000	0.435415
1784.000000	0.435560
1785.000000	0.435492
1786.000000	0.435305
1787.000000	0.435441
1788.000000	0.435729
1789.000000	0.435738
1790.000000	0.436010
1791.000000	0.436096
1792.000000	0.435943
1793.000000	0.435953
1794.000000	0.436105
1795.000000	0.436239
1796.000000	0.436428
1797.000000	0.436519
1798.000000	0.436423
1799.000000	0.436546
1800.000000	0.436865
1801.000000	0.436514
1802.000000	0.436699
1803.000000	0.436622
1804.000000	0.436538
1805.000000	0.436525
1806.000000	0.436537
1807.000000	0.436425
1808.000000	0.436062
1809.000000	0.435051
1810.000000	0.435323
1811.000000	0.435145
1812.000000	0.434580
1813.000000	0.434770
1814.000000	0.436209
1815.000000	0.436000
1816.000000	0.434669
1817.000000	0.434269
1818.000000	0.433200
1819.000000	0.433125
1820.000000	0.434409
1821.000000	0.436094
1822.000000	0.436593
1823.000000	0.436829
1824.000000	0.436303
1825.000000	0.433904
1826.000000	0.433394
1827.000000	0.432642
1828.000000	0.433155
1829.000000	0.434602
1830.000000	0.435318
1831.000000	0.435779
1832.000000	0.435825
1833.000000	0.435822
1834.000000	0.435745
1835.000000	0.435653
1836.000000	0.435425
1837.000000	0.434889
1838.000000	0.434151
1839.000000	0.432636
1840.000000	0.431570
1841.000000	0.431276
1842.000000	0.430813
1843.000000	0.431238
1844.000000	0.430726
1845.000000	0.429122
1846.000000	0.428491
1847.000000	0.428010
1848.000000	0.426999
1849.000000	0.426792
1850.000000	0.426548
1851.000000	0.426026
1852.000000	0.425023
1853.000000	0.424452
1854.000000	0.423919
1855.000000	0.422997
1856.000000	0.421847
1857.000000	0.420826
1858.000000	0.419099
1859.000000	0.417668
1860.000000	0.416056
1861.000000	0.413847
1862.000000	0.411942
1863.000000	0.410219
1864.000000	0.408122
1865.000000	0.406341
1866.000000	0.403977
1867.000000	0.401271
1868.000000	0.397633
1869.000000	0.394451
1870.000000	0.390961
1871.000000	0.387641
1872.000000	0.384716
1873.000000	0.381209
1874.000000	0.377459
1875.000000	0.373687
1876.000000	0.369406
1877.000000	0.364693
1878.000000	0.360394
1879.000000	0.355370
1880.000000	0.350128
1881.000000	0.344746
1882.000000	0.339362
1883.000000	0.333400
1884.000000	0.327429
1885.000000	0.321040
1886.000000	0.314766
1887.000000	0.308178
1888.000000	0.301606
1889.000000	0.295289
1890.000000	0.289278
1891.000000	0.283475
1892.000000	0.277466
1893.000000	0.271147
1894.000000	0.264648
1895.000000	0.258505
1896.000000	0.252267
1897.000000	0.246888
1898.000000	0.242133
1899.000000	0.237437
1900.000000	0.232918
1901.000000	0.228402
1902.000000	0.223796
1903.000000	0.219966
1904.000000	0.216737
1905.000000	0.213580
1906.000000	0.210928
1907.000000	0.208855
1908.000000	0.207161
1909.000000	0.205104
1910.000000	0.203455
1911.000000	0.201770
1912.000000	0.199779
1913.000000	0.198936
1914.000000	0.198087
1915.000000	0.197025
1916.000000	0.196482
1917.000000	0.195926
1918.000000	0.195294
1919.000000	0.195091
1920.000000	0.195335
1921.000000	0.195647
1922.000000	0.195531
1923.000000	0.195422
1924.000000	0.195573
1925.000000	0.195182
1926.000000	0.195180
1927.000000	0.195860
1928.000000	0.196030
1929.000000	0.196021
1930.000000	0.195877
1931.000000	0.195743
1932.000000	0.195770
1933.000000	0.196040
1934.000000	0.196545
1935.000000	0.197665
1936.000000	0.198243
1937.000000	0.198407
1938.000000	0.198901
1939.000000	0.199266
1940.000000	0.199410
1941.000000	0.199795
1942.000000	0.200329
1943.000000	0.200514
1944.000000	0.200311
1945.000000	0.199512
1946.000000	0.198606
1947.000000	0.198011
1948.000000	0.197635
1949.000000	0.197718
1950.000000	0.198327
1951.000000	0.198639
1952.000000	0.199021
1953.000000	0.199315
1954.000000	0.199761
1955.000000	0.199579
1956.000000	0.199336
1957.000000	0.199525
1958.000000	0.199025
1959.000000	0.198632
1960.000000	0.198477
1961.000000	0.198165
1962.000000	0.198037
1963.000000	0.198231
1964.000000	0.198407
1965.000000	0.198394
1966.000000	0.198384
1967.000000	0.198593
1968.000000	0.198801
1969.000000	0.199387
1970.000000	0.200187
1971.000000	0.200447
1972.000000	0.200951
1973.000000	0.201517
1974.000000	0.202334
1975.000000	0.202662
1976.000000	0.202818
1977.000000	0.203309
1978.000000	0.203551
1979.000000	0.203654
1980.000000	0.204515
1981.000000	0.205380
1982.000000	0.206046
1983.000000	0.207259
1984.000000	0.207982
1985.000000	0.208586
1986.000000	0.209081
1987.000000	0.209586
1988.000000	0.209315
1989.000000	0.209473
1990.000000	0.210251
1991.000000	0.210842
1992.000000	0.212039
1993.000000	0.213340
1994.000000	0.214568
1995.000000	0.215443
1996.000000	0.215994
1997.000000	0.217023
1998.000000	0.218304
1999.000000	0.219539
2000.000000	0.221031
2001.000000	0.222632
2002.000000	0.223757
2003.000000	0.224158
2004.000000	0.225180
2005.000000	0.226296
2006.000000	0.227336
2007.000000	0.229399
2008.000000	0.230830
2009.000000	0.231861
2010.000000	0.233106
2011.000000	0.234267
2012.000000	0.235149
2013.000000	0.235624
2014.000000	0.236724
2015.000000	0.238007
2016.000000	0.239264
2017.000000	0.241508
2018.000000	0.243629
2019.000000	0.244467
2020.000000	0.245424
2021.000000	0.246474
2022.000000	0.246970
2023.000000	0.247892
2024.000000	0.249310
2025.000000	0.250431
2026.000000	0.251517
2027.000000	0.251871
2028.000000	0.252481
2029.000000	0.253967
2030.000000	0.254935
2031.000000	0.256431
2032.000000	0.258334
2033.000000	0.259964
2034.000000	0.261459
2035.000000	0.263404
2036.000000	0.264342
2037.000000	0.264303
2038.000000	0.265129
2039.000000	0.265908
2040.000000	0.266972
2041.000000	0.268486
2042.000000	0.270179
2043.000000	0.271575
2044.000000	0.272292
2045.000000	0.272775
2046.000000	0.273554
2047.000000	0.274185
2048.000000	0.274343
2049.000000	0.275200
2050.000000	0.275992
2051.000000	0.276965
2052.000000	0.278200
2053.000000	0.279378
2054.000000	0.280955
2055.000000	0.282565
2056.000000	0.283951
2057.000000	0.284760
2058.000000	0.285537
2059.000000	0.286229
2060.000000	0.286921
2061.000000	0.287672
2062.000000	0.288476
2063.000000	0.289328
2064.000000	0.289865
2065.000000	0.290382
2066.000000	0.290934
2067.000000	0.291516
2068.000000	0.292378
2069.000000	0.293486
2070.000000	0.294900
2071.000000	0.296566
2072.000000	0.298229
2073.000000	0.299582
2074.000000	0.300684
2075.000000	0.301336
2076.000000	0.301087
2077.000000	0.301464
2078.000000	0.301666
2079.000000	0.302147
2080.000000	0.303313
2081.000000	0.304044
2082.000000	0.304430
2083.000000	0.305148
2084.000000	0.306247
2085.000000	0.306876
2086.000000	0.308589
2087.000000	0.310121
2088.000000	0.310422
2089.000000	0.311501
2090.000000	0.312574
2091.000000	0.313251
2092.000000	0.314568
2093.000000	0.316996
2094.000000	0.318255
2095.000000	0.319450
2096.000000	0.320092
2097.000000	0.319491
2098.000000	0.319733
2099.000000	0.320115
2100.000000	0.320336
2101.000000	0.322367
2102.000000	0.323874
2103.000000	0.324260
2104.000000	0.325537
2105.000000	0.326425
2106.000000	0.326709
2107.000000	0.327180
2108.000000	0.328052
2109.000000	0.328390
2110.000000	0.327480
2111.000000	0.327623
2112.000000	0.328159
2113.000000	0.328455
2114.000000	0.329233
2115.000000	0.330671
2116.000000	0.331574
2117.000000	0.332008
2118.000000	0.332694
2119.000000	0.333022
2120.000000	0.333744
2121.000000	0.334932
2122.000000	0.335739
2123.000000	0.336666
2124.000000	0.337168
2125.000000	0.336813
2126.000000	0.336939
2127.000000	0.337152
2128.000000	0.337588
2129.000000	0.338101
2130.000000	0.339147
2131.000000	0.339484
2132.000000	0.339771
2133.000000	0.339837
2134.000000	0.339521
2135.000000	0.339646
2136.000000	0.340002
2137.000000	0.339987
2138.000000	0.339946
2139.000000	0.339957
2140.000000	0.339304
2141.000000	0.339375
2142.000000	0.340017
2143.000000	0.340288
2144.000000	0.341055
2145.000000	0.341893
2146.000000	0.342550
2147.000000	0.344009
2148.000000	0.345173
2149.000000	0.346056
2150.000000	0.346902
2151.000000	0.345909
2152.000000	0.345035
2153.000000	0.344230
2154.000000	0.343766
2155.000000	0.343560
2156.000000	0.343510
2157.000000	0.343705
2158.000000	0.344014
2159.000000	0.344590
2160.000000	0.344925
2161.000000	0.345503
2162.000000	0.345920
2163.000000	0.345906
2164.000000	0.346005
2165.000000	0.346208
2166.000000	0.346159
2167.000000	0.346128
2168.000000	0.346077
2169.000000	0.346176
2170.000000	0.346419
2171.000000	0.346318
2172.000000	0.346002
2173.000000	0.345773
2174.000000	0.345284
2175.000000	0.344913
2176.000000	0.344628
2177.000000	0.344670
2178.000000	0.344929
2179.000000	0.345417
2180.000000	0.346841
2181.000000	0.347428
2182.000000	0.347381
2183.000000	0.345998
2184.000000	0.345076
2185.000000	0.343503
2186.000000	0.343551
2187.000000	0.345171
2188.000000	0.346348
2189.000000	0.346953
2190.000000	0.346174
2191.000000	0.345450
2192.000000	0.344920
2193.000000	0.343857
2194.000000	0.343935
2195.000000	0.345421
2196.000000	0.345525
2197.000000	0.344898
2198.000000	0.345531
2199.000000	0.346081
2200.000000	0.346959
2201.000000	0.350571
2202.000000	0.351803
2203.000000	0.350372
2204.000000	0.350598
2205.000000	0.350225
2206.000000	0.348546
2207.000000	0.348419
2208.000000	0.347278
2209.000000	0.344798
2210.000000	0.343843
2211.000000	0.341726
2212.000000	0.341567
2213.000000	0.341769
2214.000000	0.343092
2215.000000	0.342862
2216.000000	0.343111
2217.000000	0.342093
2218.000000	0.339419
2219.000000	0.338707
2220.000000	0.338351
2221.000000	0.338536
2222.000000	0.339316
2223.000000	0.339708
2224.000000	0.339983
2225.000000	0.341395
2226.000000	0.341978
2227.000000	0.342687
2228.000000	0.342189
2229.000000	0.339490
2230.000000	0.337432
2231.000000	0.335964
2232.000000	0.335851
2233.000000	0.337433
2234.000000	0.338944
2235.000000	0.340837
2236.000000	0.341340
2237.000000	0.340635
2238.000000	0.341183
2239.000000	0.341926
2240.000000	0.341935
2241.000000	0.342693
2242.000000	0.342414
2243.000000	0.338627
2244.000000	0.338799
2245.000000	0.341807
2246.000000	0.343327
2247.000000	0.348190
2248.000000	0.349043
2249.000000	0.346714
2250.000000	0.343934
2251.000000	0.342013
2252.000000	0.340512
2253.000000	0.340060
2254.000000	0.340606
2255.000000	0.339583
2256.000000	0.339358
2257.000000	0.342571
2258.000000	0.344266
2259.000000	0.344501
2260.000000	0.346248
2261.000000	0.345056
2262.000000	0.340543
2263.000000	0.337509
2264.000000	0.333356
2265.000000	0.330547
2266.000000	0.326818
2267.000000	0.326149
2268.000000	0.328654
2269.000000	0.329911
2270.000000	0.333230
2271.000000	0.334212
2272.000000	0.333671
2273.000000	0.333003
2274.000000	0.330997
2275.000000	0.329599
2276.000000	0.328075
2277.000000	0.326702
2278.000000	0.325990
2279.000000	0.325303
2280.000000	0.324257
2281.000000	0.322534
2282.000000	0.318602
2283.000000	0.313440
2284.000000	0.310452
2285.000000	0.307915
2286.000000	0.306578
2287.000000	0.306431
2288.000000	0.304198
2289.000000	0.301665
2290.000000	0.298207
2291.000000	0.296184
2292.000000	0.296421
2293.000000	0.295787
2294.000000	0.295100
2295.000000	0.295681
2296.000000	0.294678
2297.000000	0.291562
2298.000000	0.289756
2299.000000	0.288198
2300.000000	0.286277
2301.000000	0.285084
2302.000000	0.283778
2303.000000	0.282322
2304.000000	0.280637
2305.000000	0.279338
2306.000000	0.276483
2307.000000	0.272355
2308.000000	0.268218
2309.000000	0.264893
2310.000000	0.260003
2311.000000	0.257466
2312.000000	0.255690
2313.000000	0.253136
2314.000000	0.253834
2315.000000	0.256419
2316.000000	0.256859
2317.000000	0.257595
2318.000000	0.258464
2319.000000	0.257874
2320.000000	0.259218
2321.000000	0.261267
2322.000000	0.263921
2323.000000	0.266134
2324.000000	0.267913
2325.000000	0.269232
2326.000000	0.268329
2327.000000	0.267236
2328.000000	0.265832
2329.000000	0.265117
2330.000000	0.264423
2331.000000	0.263344
2332.000000	0.264171
2333.000000	0.266151
2334.000000	0.268064
2335.000000	0.269565
2336.000000	0.271327
2337.000000	0.271768
2338.000000	0.270308
2339.000000	0.269592
2340.000000	0.269038
2341.000000	0.267954
2342.000000	0.266813
2343.000000	0.266906
2344.000000	0.266715
2345.000000	0.266399
2346.000000	0.267168
2347.000000	0.265821
2348.000000	0.263609
2349.000000	0.260874
2350.000000	0.256344
2351.000000	0.254711
2352.000000	0.252107
2353.000000	0.251777
2354.000000	0.255346
2355.000000	0.258124
2356.000000	0.259022
2357.000000	0.258689
2358.000000	0.254535
2359.000000	0.245649
2360.000000	0.240357
2361.000000	0.239192
2362.000000	0.237923
2363.000000	0.237926
2364.000000	0.237348
2365.000000	0.236743
2366.000000	0.236331
2367.000000	0.236575
2368.000000	0.237596
2369.000000	0.234510
2370.000000	0.230137
2371.000000	0.227133
2372.000000	0.224361
2373.000000	0.222350
2374.000000	0.223523
2375.000000	0.225283
2376.000000	0.223929
2377.000000	0.224958
2378.000000	0.222506
2379.000000	0.219119
2380.000000	0.220565
2381.000000	0.221347
2382.000000	0.217546
2383.000000	0.213333
2384.000000	0.211474
2385.000000	0.204217
2386.000000	0.200313
2387.000000	0.201138
2388.000000	0.201033
2389.000000	0.199153
2390.000000	0.199036
2391.000000	0.203664
2392.000000	0.200028
2393.000000	0.197671
2394.000000	0.203762
2395.000000	0.204082
2396.000000	0.205273
2397.000000	0.206943
2398.000000	0.198465
2399.000000	0.188594
2400.000000	0.188616
2401.000000	0.191121
2402.000000	0.188589
2403.000000	0.192709
2404.000000	0.197242
2405.000000	0.200981
2406.000000	0.209802
2407.000000	0.205976
2408.000000	0.193873
2409.000000	0.186201
2410.000000	0.184214
2411.000000	0.185414
2412.000000	0.188266
2413.000000	0.194279
2414.000000	0.199402
2415.000000	0.205586
2416.000000	0.217238
2417.000000	0.225701
2418.000000	0.225724
2419.000000	0.224320
2420.000000	0.220950
2421.000000	0.212261
2422.000000	0.206055
2423.000000	0.207329
2424.000000	0.208109
2425.000000	0.208308
2426.000000	0.203324
2427.000000	0.197194
2428.000000	0.200302
2429.000000	0.199766
2430.000000	0.205133
2431.000000	0.200509
2432.000000	0.175259
2433.000000	0.167987
2434.000000	0.158233
2435.000000	0.154254
2436.000000	0.175370
2437.000000	0.179168
2438.000000	0.175164
2439.000000	0.172188
2440.000000	0.160783
2441.000000	0.161025
2442.000000	0.172601
2443.000000	0.179840
2444.000000	0.188106
2445.000000	0.193887
2446.000000	0.185473
2447.000000	0.179008
2448.000000	0.171749
2449.000000	0.150844
2450.000000	0.132116
2451.000000	0.129600
2452.000000	0.126643
2453.000000	0.136173
2454.000000	0.162613
2455.000000	0.166933
2456.000000	0.165180
2457.000000	0.170039
2458.000000	0.172413
2459.000000	0.176412
2460.000000	0.177957
2461.000000	0.169113
2462.000000	0.158642
2463.000000	0.158890
2464.000000	0.158518
2465.000000	0.161496
2466.000000	0.153840
2467.000000	0.146325
2468.000000	0.163330
2469.000000	0.170853
2470.000000	0.180692
2471.000000	0.191704
2472.000000	0.172174
2473.000000	0.166948
2474.000000	0.163773
2475.000000	0.149347
2476.000000	0.156821
2477.000000	0.151969
2478.000000	0.147616
2479.000000	0.163127
2480.000000	0.176110
2481.000000	0.179368
2482.000000	0.198675
2483.000000	0.223574
2484.000000	0.207547
2485.000000	0.181550
2486.000000	0.175053
2487.000000	0.163385
2488.000000	0.149488
2489.000000	0.165580
2490.000000	0.172600
2491.000000	0.118547
2492.000000	0.107863
2493.000000	0.123415
2494.000000	0.133586
2495.000000	0.174862
2496.000000	0.188957
2497.000000	0.190940
2498.000000	0.191095
2499.000000	0.167925
2500.000000	0.168063
