# Wavelength	SM1200H-20_HEX-40_FV7-40_00000.asd.rts.txt
350.000000	0.227671
351.000000	0.229745
352.000000	0.231816
353.000000	0.237546
354.000000	0.250480
355.000000	0.269312
356.000000	0.265184
357.000000	0.247093
358.000000	0.246479
359.000000	0.239353
360.000000	0.234914
361.000000	0.244103
362.000000	0.240678
363.000000	0.238577
364.000000	0.244809
365.000000	0.243890
366.000000	0.239825
367.000000	0.237200
368.000000	0.242790
369.000000	0.244521
370.000000	0.244511
371.000000	0.247837
372.000000	0.247508
373.000000	0.245347
374.000000	0.244433
375.000000	0.247417
376.000000	0.249488
377.000000	0.249641
378.000000	0.250691
379.000000	0.250163
380.000000	0.248283
381.000000	0.247196
382.000000	0.249265
383.000000	0.252011
384.000000	0.253957
385.000000	0.257365
386.000000	0.258791
387.000000	0.257425
388.000000	0.254239
389.000000	0.255238
390.000000	0.258198
391.000000	0.257970
392.000000	0.257963
393.000000	0.258299
394.000000	0.258525
395.000000	0.257468
396.000000	0.258458
397.000000	0.261393
398.000000	0.261763
399.000000	0.262275
400.000000	0.262904
401.000000	0.262528
402.000000	0.261757
403.000000	0.261432
404.000000	0.262159
405.000000	0.262919
406.000000	0.263213
407.000000	0.263254
408.000000	0.264319
409.000000	0.264863
410.000000	0.265064
411.000000	0.266000
412.000000	0.266032
413.000000	0.266029
414.000000	0.266951
415.000000	0.266607
416.000000	0.266405
417.000000	0.267206
418.000000	0.268298
419.000000	0.269297
420.000000	0.269677
421.000000	0.268681
422.000000	0.268212
423.000000	0.268602
424.000000	0.269618
425.000000	0.270250
426.000000	0.270428
427.000000	0.270405
428.000000	0.271120
429.000000	0.271268
430.000000	0.270803
431.000000	0.271372
432.000000	0.271800
433.000000	0.271957
434.000000	0.272244
435.000000	0.272541
436.000000	0.272686
437.000000	0.272647
438.000000	0.273194
439.000000	0.273780
440.000000	0.274127
441.000000	0.274133
442.000000	0.274332
443.000000	0.274668
444.000000	0.274843
445.000000	0.274855
446.000000	0.274941
447.000000	0.275155
448.000000	0.275213
449.000000	0.275464
450.000000	0.276024
451.000000	0.276124
452.000000	0.276300
453.000000	0.276635
454.000000	0.276974
455.000000	0.277239
456.000000	0.277583
457.000000	0.278033
458.000000	0.278287
459.000000	0.278544
460.000000	0.278973
461.000000	0.278876
462.000000	0.279137
463.000000	0.279825
464.000000	0.280121
465.000000	0.280017
466.000000	0.279956
467.000000	0.280891
468.000000	0.281372
469.000000	0.281430
470.000000	0.281614
471.000000	0.281553
472.000000	0.281509
473.000000	0.281673
474.000000	0.281789
475.000000	0.281921
476.000000	0.282197
477.000000	0.282449
478.000000	0.282421
479.000000	0.282544
480.000000	0.283097
481.000000	0.283422
482.000000	0.283746
483.000000	0.284067
484.000000	0.284085
485.000000	0.284138
486.000000	0.284523
487.000000	0.284809
488.000000	0.285094
489.000000	0.285436
490.000000	0.285863
491.000000	0.286094
492.000000	0.286337
493.000000	0.286715
494.000000	0.286960
495.000000	0.287199
496.000000	0.287490
497.000000	0.287789
498.000000	0.288074
499.000000	0.288403
500.000000	0.288726
501.000000	0.288953
502.000000	0.289133
503.000000	0.289287
504.000000	0.289583
505.000000	0.289889
506.000000	0.290074
507.000000	0.290267
508.000000	0.290529
509.000000	0.290841
510.000000	0.291215
511.000000	0.291416
512.000000	0.291572
513.000000	0.292059
514.000000	0.292445
515.000000	0.292816
516.000000	0.293296
517.000000	0.293517
518.000000	0.293717
519.000000	0.294007
520.000000	0.294276
521.000000	0.294540
522.000000	0.294834
523.000000	0.295220
524.000000	0.295508
525.000000	0.295728
526.000000	0.296076
527.000000	0.296383
528.000000	0.296632
529.000000	0.296900
530.000000	0.297187
531.000000	0.297467
532.000000	0.297677
533.000000	0.298054
534.000000	0.298420
535.000000	0.298693
536.000000	0.298910
537.000000	0.299145
538.000000	0.299410
539.000000	0.299676
540.000000	0.299909
541.000000	0.300086
542.000000	0.300276
543.000000	0.300737
544.000000	0.301084
545.000000	0.301154
546.000000	0.301492
547.000000	0.301846
548.000000	0.302163
549.000000	0.302394
550.000000	0.302602
551.000000	0.302893
552.000000	0.303289
553.000000	0.303531
554.000000	0.303804
555.000000	0.304221
556.000000	0.304524
557.000000	0.304727
558.000000	0.305008
559.000000	0.305375
560.000000	0.305702
561.000000	0.306034
562.000000	0.306331
563.000000	0.306647
564.000000	0.307011
565.000000	0.307318
566.000000	0.307591
567.000000	0.307894
568.000000	0.308233
569.000000	0.308569
570.000000	0.308892
571.000000	0.309196
572.000000	0.309511
573.000000	0.309811
574.000000	0.310087
575.000000	0.310400
576.000000	0.310717
577.000000	0.311023
578.000000	0.311358
579.000000	0.311603
580.000000	0.311895
581.000000	0.312258
582.000000	0.312533
583.000000	0.312826
584.000000	0.313147
585.000000	0.313464
586.000000	0.313734
587.000000	0.313972
588.000000	0.314208
589.000000	0.314466
590.000000	0.314708
591.000000	0.314936
592.000000	0.315277
593.000000	0.315591
594.000000	0.315832
595.000000	0.316050
596.000000	0.316236
597.000000	0.316459
598.000000	0.316700
599.000000	0.316891
600.000000	0.317079
601.000000	0.317234
602.000000	0.317411
603.000000	0.317582
604.000000	0.317758
605.000000	0.317978
606.000000	0.318278
607.000000	0.318576
608.000000	0.318696
609.000000	0.318833
610.000000	0.319035
611.000000	0.319282
612.000000	0.319422
613.000000	0.319559
614.000000	0.319786
615.000000	0.319957
616.000000	0.320103
617.000000	0.320223
618.000000	0.320397
619.000000	0.320578
620.000000	0.320698
621.000000	0.320756
622.000000	0.320874
623.000000	0.320973
624.000000	0.320988
625.000000	0.321039
626.000000	0.321094
627.000000	0.321159
628.000000	0.321297
629.000000	0.321551
630.000000	0.321727
631.000000	0.321814
632.000000	0.321955
633.000000	0.322160
634.000000	0.322373
635.000000	0.322528
636.000000	0.322683
637.000000	0.322862
638.000000	0.323082
639.000000	0.323288
640.000000	0.323507
641.000000	0.323652
642.000000	0.323773
643.000000	0.323888
644.000000	0.324009
645.000000	0.324115
646.000000	0.324242
647.000000	0.324382
648.000000	0.324521
649.000000	0.324670
650.000000	0.324826
651.000000	0.325045
652.000000	0.325203
653.000000	0.325309
654.000000	0.325351
655.000000	0.325506
656.000000	0.325731
657.000000	0.325904
658.000000	0.326121
659.000000	0.326300
660.000000	0.326403
661.000000	0.326531
662.000000	0.326674
663.000000	0.326859
664.000000	0.327018
665.000000	0.327144
666.000000	0.327274
667.000000	0.327411
668.000000	0.327555
669.000000	0.327686
670.000000	0.327805
671.000000	0.327916
672.000000	0.328084
673.000000	0.328289
674.000000	0.328471
675.000000	0.328646
676.000000	0.328785
677.000000	0.328876
678.000000	0.328999
679.000000	0.329140
680.000000	0.329289
681.000000	0.329422
682.000000	0.329601
683.000000	0.329756
684.000000	0.329931
685.000000	0.330097
686.000000	0.330270
687.000000	0.330426
688.000000	0.330619
689.000000	0.330758
690.000000	0.330844
691.000000	0.331061
692.000000	0.331258
693.000000	0.331444
694.000000	0.331613
695.000000	0.331800
696.000000	0.331983
697.000000	0.332126
698.000000	0.332245
699.000000	0.332428
700.000000	0.332700
701.000000	0.332820
702.000000	0.332936
703.000000	0.333079
704.000000	0.333183
705.000000	0.333361
706.000000	0.333537
707.000000	0.333664
708.000000	0.333862
709.000000	0.334057
710.000000	0.334195
711.000000	0.334326
712.000000	0.334421
713.000000	0.334507
714.000000	0.334640
715.000000	0.334770
716.000000	0.334916
717.000000	0.335093
718.000000	0.335228
719.000000	0.335357
720.000000	0.335520
721.000000	0.335609
722.000000	0.335701
723.000000	0.335866
724.000000	0.335962
725.000000	0.335992
726.000000	0.336090
727.000000	0.336253
728.000000	0.336360
729.000000	0.336478
730.000000	0.336614
731.000000	0.336752
732.000000	0.336915
733.000000	0.337109
734.000000	0.337184
735.000000	0.337248
736.000000	0.337432
737.000000	0.337585
738.000000	0.337659
739.000000	0.337767
740.000000	0.337819
741.000000	0.337897
742.000000	0.337985
743.000000	0.338041
744.000000	0.338089
745.000000	0.338144
746.000000	0.338233
747.000000	0.338280
748.000000	0.338397
749.000000	0.338512
750.000000	0.338554
751.000000	0.338667
752.000000	0.338775
753.000000	0.338849
754.000000	0.338874
755.000000	0.338907
756.000000	0.338989
757.000000	0.339086
758.000000	0.339126
759.000000	0.339184
760.000000	0.339235
761.000000	0.339342
762.000000	0.339443
763.000000	0.339496
764.000000	0.339557
765.000000	0.339618
766.000000	0.339706
767.000000	0.339821
768.000000	0.339897
769.000000	0.339940
770.000000	0.339976
771.000000	0.340042
772.000000	0.340098
773.000000	0.340115
774.000000	0.340206
775.000000	0.340241
776.000000	0.340290
777.000000	0.340385
778.000000	0.340455
779.000000	0.340494
780.000000	0.340528
781.000000	0.340584
782.000000	0.340606
783.000000	0.340652
784.000000	0.340622
785.000000	0.340657
786.000000	0.340697
787.000000	0.340711
788.000000	0.340778
789.000000	0.340824
790.000000	0.340823
791.000000	0.340820
792.000000	0.340741
793.000000	0.340684
794.000000	0.340748
795.000000	0.340910
796.000000	0.341059
797.000000	0.341145
798.000000	0.341196
799.000000	0.341242
800.000000	0.341254
801.000000	0.341212
802.000000	0.341220
803.000000	0.341244
804.000000	0.341278
805.000000	0.341214
806.000000	0.341216
807.000000	0.341308
808.000000	0.341283
809.000000	0.341291
810.000000	0.341288
811.000000	0.341239
812.000000	0.341289
813.000000	0.341369
814.000000	0.341423
815.000000	0.341434
816.000000	0.341345
817.000000	0.341291
818.000000	0.341313
819.000000	0.341327
820.000000	0.341402
821.000000	0.341476
822.000000	0.341459
823.000000	0.341434
824.000000	0.341348
825.000000	0.341258
826.000000	0.341251
827.000000	0.341264
828.000000	0.341278
829.000000	0.341224
830.000000	0.341128
831.000000	0.341109
832.000000	0.341142
833.000000	0.341129
834.000000	0.341041
835.000000	0.340931
836.000000	0.340860
837.000000	0.340779
838.000000	0.340736
839.000000	0.340794
840.000000	0.340811
841.000000	0.340782
842.000000	0.340693
843.000000	0.340621
844.000000	0.340509
845.000000	0.340365
846.000000	0.340346
847.000000	0.340335
848.000000	0.340294
849.000000	0.340264
850.000000	0.340320
851.000000	0.340306
852.000000	0.340246
853.000000	0.340306
854.000000	0.340279
855.000000	0.340285
856.000000	0.340292
857.000000	0.340096
858.000000	0.340021
859.000000	0.340060
860.000000	0.339876
861.000000	0.339669
862.000000	0.339575
863.000000	0.339582
864.000000	0.339459
865.000000	0.339335
866.000000	0.339294
867.000000	0.339184
868.000000	0.339081
869.000000	0.338993
870.000000	0.339000
871.000000	0.338836
872.000000	0.338674
873.000000	0.338577
874.000000	0.338575
875.000000	0.338431
876.000000	0.338197
877.000000	0.337963
878.000000	0.337632
879.000000	0.337407
880.000000	0.337240
881.000000	0.337107
882.000000	0.336923
883.000000	0.336723
884.000000	0.336529
885.000000	0.336448
886.000000	0.336289
887.000000	0.336046
888.000000	0.336013
889.000000	0.336004
890.000000	0.335878
891.000000	0.335760
892.000000	0.335607
893.000000	0.335404
894.000000	0.335263
895.000000	0.335048
896.000000	0.334852
897.000000	0.334654
898.000000	0.334412
899.000000	0.334200
900.000000	0.334025
901.000000	0.333841
902.000000	0.333675
903.000000	0.333489
904.000000	0.333309
905.000000	0.333074
906.000000	0.332973
907.000000	0.332827
908.000000	0.332629
909.000000	0.332373
910.000000	0.332258
911.000000	0.332179
912.000000	0.332023
913.000000	0.331856
914.000000	0.331633
915.000000	0.331432
916.000000	0.331242
917.000000	0.331065
918.000000	0.330918
919.000000	0.330739
920.000000	0.330331
921.000000	0.330059
922.000000	0.329908
923.000000	0.329647
924.000000	0.329395
925.000000	0.329102
926.000000	0.328810
927.000000	0.328626
928.000000	0.328421
929.000000	0.328155
930.000000	0.327864
931.000000	0.327818
932.000000	0.327643
933.000000	0.327257
934.000000	0.326816
935.000000	0.326557
936.000000	0.326500
937.000000	0.326431
938.000000	0.326127
939.000000	0.325926
940.000000	0.325753
941.000000	0.325472
942.000000	0.325277
943.000000	0.324967
944.000000	0.324395
945.000000	0.324058
946.000000	0.323701
947.000000	0.323501
948.000000	0.323558
949.000000	0.323396
950.000000	0.323178
951.000000	0.322925
952.000000	0.322637
953.000000	0.322269
954.000000	0.321959
955.000000	0.321734
956.000000	0.321569
957.000000	0.321329
958.000000	0.320976
959.000000	0.320665
960.000000	0.320421
961.000000	0.320159
962.000000	0.319875
963.000000	0.319721
964.000000	0.319589
965.000000	0.319414
966.000000	0.319093
967.000000	0.318942
968.000000	0.318760
969.000000	0.318462
970.000000	0.318186
971.000000	0.318086
972.000000	0.317984
973.000000	0.317722
974.000000	0.317410
975.000000	0.317037
976.000000	0.316705
977.000000	0.316474
978.000000	0.316273
979.000000	0.316110
980.000000	0.315879
981.000000	0.315884
982.000000	0.315712
983.000000	0.315292
984.000000	0.314930
985.000000	0.315067
986.000000	0.314739
987.000000	0.314492
988.000000	0.314529
989.000000	0.314053
990.000000	0.313888
991.000000	0.313958
992.000000	0.313948
993.000000	0.313786
994.000000	0.313686
995.000000	0.313655
996.000000	0.313195
997.000000	0.312922
998.000000	0.312801
999.000000	0.312793
1000.000000	0.312709
1001.000000	0.312940
1002.000000	0.312977
1003.000000	0.312386
1004.000000	0.312044
1005.000000	0.311355
1006.000000	0.310829
1007.000000	0.310381
1008.000000	0.310257
1009.000000	0.310268
1010.000000	0.309946
1011.000000	0.309399
1012.000000	0.309222
1013.000000	0.309226
1014.000000	0.309687
1015.000000	0.310120
1016.000000	0.310588
1017.000000	0.310556
1018.000000	0.309847
1019.000000	0.309675
1020.000000	0.310085
1021.000000	0.309657
1022.000000	0.308697
1023.000000	0.308884
1024.000000	0.309249
1025.000000	0.309641
1026.000000	0.310010
1027.000000	0.310473
1028.000000	0.310175
1029.000000	0.309596
1030.000000	0.309482
1031.000000	0.309679
1032.000000	0.310011
1033.000000	0.309995
1034.000000	0.309977
1035.000000	0.310094
1036.000000	0.310002
1037.000000	0.309629
1038.000000	0.309458
1039.000000	0.309334
1040.000000	0.309395
1041.000000	0.309974
1042.000000	0.309910
1043.000000	0.309693
1044.000000	0.310032
1045.000000	0.310205
1046.000000	0.310006
1047.000000	0.310019
1048.000000	0.310184
1049.000000	0.310273
1050.000000	0.310319
1051.000000	0.310397
1052.000000	0.310351
1053.000000	0.310537
1054.000000	0.311113
1055.000000	0.311365
1056.000000	0.311662
1057.000000	0.312186
1058.000000	0.311768
1059.000000	0.311408
1060.000000	0.311859
1061.000000	0.311923
1062.000000	0.311986
1063.000000	0.312270
1064.000000	0.312528
1065.000000	0.312438
1066.000000	0.312729
1067.000000	0.313537
1068.000000	0.313804
1069.000000	0.313716
1070.000000	0.313824
1071.000000	0.313854
1072.000000	0.313978
1073.000000	0.314240
1074.000000	0.314634
1075.000000	0.314915
1076.000000	0.315234
1077.000000	0.315221
1078.000000	0.315014
1079.000000	0.315221
1080.000000	0.315623
1081.000000	0.315668
1082.000000	0.315941
1083.000000	0.316084
1084.000000	0.315649
1085.000000	0.315858
1086.000000	0.316756
1087.000000	0.317103
1088.000000	0.317157
1089.000000	0.317388
1090.000000	0.317443
1091.000000	0.317438
1092.000000	0.317785
1093.000000	0.318474
1094.000000	0.318806
1095.000000	0.318926
1096.000000	0.319195
1097.000000	0.319477
1098.000000	0.319656
1099.000000	0.319794
1100.000000	0.319988
1101.000000	0.320052
1102.000000	0.320154
1103.000000	0.320242
1104.000000	0.320409
1105.000000	0.320664
1106.000000	0.320770
1107.000000	0.320717
1108.000000	0.320819
1109.000000	0.320807
1110.000000	0.321033
1111.000000	0.321399
1112.000000	0.322183
1113.000000	0.322443
1114.000000	0.322658
1115.000000	0.322711
1116.000000	0.322286
1117.000000	0.322357
1118.000000	0.322616
1119.000000	0.322771
1120.000000	0.323087
1121.000000	0.323327
1122.000000	0.323582
1123.000000	0.323968
1124.000000	0.324313
1125.000000	0.324519
1126.000000	0.324441
1127.000000	0.324474
1128.000000	0.324503
1129.000000	0.324544
1130.000000	0.324528
1131.000000	0.324523
1132.000000	0.324560
1133.000000	0.324609
1134.000000	0.324651
1135.000000	0.324697
1136.000000	0.324770
1137.000000	0.324831
1138.000000	0.324817
1139.000000	0.324874
1140.000000	0.325031
1141.000000	0.325044
1142.000000	0.325176
1143.000000	0.325486
1144.000000	0.325772
1145.000000	0.326064
1146.000000	0.325963
1147.000000	0.325882
1148.000000	0.325466
1149.000000	0.325507
1150.000000	0.325646
1151.000000	0.325783
1152.000000	0.326151
1153.000000	0.326304
1154.000000	0.326228
1155.000000	0.326280
1156.000000	0.326462
1157.000000	0.326480
1158.000000	0.326250
1159.000000	0.326233
1160.000000	0.326301
1161.000000	0.326264
1162.000000	0.326294
1163.000000	0.326592
1164.000000	0.326520
1165.000000	0.326108
1166.000000	0.326094
1167.000000	0.326141
1168.000000	0.326107
1169.000000	0.326235
1170.000000	0.326267
1171.000000	0.326217
1172.000000	0.326206
1173.000000	0.326242
1174.000000	0.326225
1175.000000	0.326060
1176.000000	0.325962
1177.000000	0.325974
1178.000000	0.325975
1179.000000	0.325997
1180.000000	0.325956
1181.000000	0.326023
1182.000000	0.325990
1183.000000	0.325895
1184.000000	0.325921
1185.000000	0.325942
1186.000000	0.325951
1187.000000	0.325993
1188.000000	0.326115
1189.000000	0.326169
1190.000000	0.326300
1191.000000	0.326263
1192.000000	0.326176
1193.000000	0.326298
1194.000000	0.326314
1195.000000	0.326350
1196.000000	0.326465
1197.000000	0.326493
1198.000000	0.326433
1199.000000	0.326429
1200.000000	0.326408
1201.000000	0.326499
1202.000000	0.326482
1203.000000	0.326427
1204.000000	0.326414
1205.000000	0.326304
1206.000000	0.326177
1207.000000	0.326068
1208.000000	0.326034
1209.000000	0.326086
1210.000000	0.326096
1211.000000	0.326226
1212.000000	0.326212
1213.000000	0.326069
1214.000000	0.326072
1215.000000	0.326136
1216.000000	0.326089
1217.000000	0.325987
1218.000000	0.325908
1219.000000	0.325792
1220.000000	0.325685
1221.000000	0.325780
1222.000000	0.325883
1223.000000	0.325745
1224.000000	0.325769
1225.000000	0.325907
1226.000000	0.325969
1227.000000	0.326020
1228.000000	0.326208
1229.000000	0.326190
1230.000000	0.325856
1231.000000	0.325745
1232.000000	0.325838
1233.000000	0.325895
1234.000000	0.325938
1235.000000	0.325998
1236.000000	0.326056
1237.000000	0.326073
1238.000000	0.326039
1239.000000	0.325999
1240.000000	0.325926
1241.000000	0.325704
1242.000000	0.325685
1243.000000	0.325732
1244.000000	0.325871
1245.000000	0.326111
1246.000000	0.326136
1247.000000	0.326255
1248.000000	0.326271
1249.000000	0.326057
1250.000000	0.326048
1251.000000	0.326002
1252.000000	0.325858
1253.000000	0.325702
1254.000000	0.325584
1255.000000	0.325338
1256.000000	0.325203
1257.000000	0.325176
1258.000000	0.325188
1259.000000	0.325179
1260.000000	0.325227
1261.000000	0.325323
1262.000000	0.325333
1263.000000	0.325336
1264.000000	0.325310
1265.000000	0.325232
1266.000000	0.325173
1267.000000	0.325207
1268.000000	0.325288
1269.000000	0.325334
1270.000000	0.325418
1271.000000	0.325369
1272.000000	0.325344
1273.000000	0.325478
1274.000000	0.325524
1275.000000	0.325525
1276.000000	0.325577
1277.000000	0.325653
1278.000000	0.325538
1279.000000	0.325488
1280.000000	0.325500
1281.000000	0.325375
1282.000000	0.325159
1283.000000	0.325170
1284.000000	0.325135
1285.000000	0.325151
1286.000000	0.325292
1287.000000	0.325356
1288.000000	0.325380
1289.000000	0.325375
1290.000000	0.325161
1291.000000	0.325038
1292.000000	0.325018
1293.000000	0.324907
1294.000000	0.324868
1295.000000	0.324911
1296.000000	0.324864
1297.000000	0.324973
1298.000000	0.325186
1299.000000	0.325209
1300.000000	0.325223
1301.000000	0.325096
1302.000000	0.324945
1303.000000	0.324828
1304.000000	0.324691
1305.000000	0.324573
1306.000000	0.324534
1307.000000	0.324580
1308.000000	0.324659
1309.000000	0.324873
1310.000000	0.324934
1311.000000	0.325013
1312.000000	0.324843
1313.000000	0.324783
1314.000000	0.324836
1315.000000	0.324794
1316.000000	0.324985
1317.000000	0.325017
1318.000000	0.324789
1319.000000	0.324657
1320.000000	0.324599
1321.000000	0.324489
1322.000000	0.324504
1323.000000	0.324520
1324.000000	0.324350
1325.000000	0.324148
1326.000000	0.323916
1327.000000	0.323754
1328.000000	0.323781
1329.000000	0.323615
1330.000000	0.323406
1331.000000	0.323263
1332.000000	0.323079
1333.000000	0.322916
1334.000000	0.322934
1335.000000	0.322878
1336.000000	0.322798
1337.000000	0.322647
1338.000000	0.322385
1339.000000	0.322136
1340.000000	0.321908
1341.000000	0.321678
1342.000000	0.321599
1343.000000	0.321480
1344.000000	0.321402
1345.000000	0.321384
1346.000000	0.321269
1347.000000	0.321090
1348.000000	0.321030
1349.000000	0.320785
1350.000000	0.320670
1351.000000	0.320711
1352.000000	0.320514
1353.000000	0.320309
1354.000000	0.320265
1355.000000	0.320159
1356.000000	0.320104
1357.000000	0.320050
1358.000000	0.319903
1359.000000	0.319723
1360.000000	0.319540
1361.000000	0.319396
1362.000000	0.319257
1363.000000	0.319017
1364.000000	0.318897
1365.000000	0.318870
1366.000000	0.318792
1367.000000	0.318703
1368.000000	0.318714
1369.000000	0.318637
1370.000000	0.318383
1371.000000	0.318204
1372.000000	0.317917
1373.000000	0.317666
1374.000000	0.317430
1375.000000	0.317038
1376.000000	0.316801
1377.000000	0.316582
1378.000000	0.316351
1379.000000	0.315956
1380.000000	0.315263
1381.000000	0.314546
1382.000000	0.313676
1383.000000	0.312785
1384.000000	0.312072
1385.000000	0.311225
1386.000000	0.310375
1387.000000	0.309678
1388.000000	0.308976
1389.000000	0.308331
1390.000000	0.307782
1391.000000	0.307385
1392.000000	0.307299
1393.000000	0.307142
1394.000000	0.307169
1395.000000	0.307095
1396.000000	0.306975
1397.000000	0.306728
1398.000000	0.306403
1399.000000	0.306131
1400.000000	0.305868
1401.000000	0.305499
1402.000000	0.305169
1403.000000	0.304654
1404.000000	0.304151
1405.000000	0.303453
1406.000000	0.302684
1407.000000	0.302072
1408.000000	0.301365
1409.000000	0.300726
1410.000000	0.300302
1411.000000	0.299770
1412.000000	0.299139
1413.000000	0.298626
1414.000000	0.298099
1415.000000	0.297531
1416.000000	0.297028
1417.000000	0.296526
1418.000000	0.296051
1419.000000	0.295794
1420.000000	0.295464
1421.000000	0.295083
1422.000000	0.294654
1423.000000	0.294207
1424.000000	0.293662
1425.000000	0.293207
1426.000000	0.292713
1427.000000	0.292084
1428.000000	0.291620
1429.000000	0.291258
1430.000000	0.290916
1431.000000	0.290646
1432.000000	0.290282
1433.000000	0.289867
1434.000000	0.289485
1435.000000	0.289113
1436.000000	0.288850
1437.000000	0.288723
1438.000000	0.288401
1439.000000	0.288089
1440.000000	0.287815
1441.000000	0.287460
1442.000000	0.287148
1443.000000	0.286866
1444.000000	0.286530
1445.000000	0.286164
1446.000000	0.285872
1447.000000	0.285700
1448.000000	0.285491
1449.000000	0.285100
1450.000000	0.284757
1451.000000	0.284494
1452.000000	0.284180
1453.000000	0.283929
1454.000000	0.283748
1455.000000	0.283602
1456.000000	0.283452
1457.000000	0.283391
1458.000000	0.283363
1459.000000	0.283304
1460.000000	0.283314
1461.000000	0.283291
1462.000000	0.283252
1463.000000	0.283078
1464.000000	0.282909
1465.000000	0.282964
1466.000000	0.282967
1467.000000	0.283016
1468.000000	0.283034
1469.000000	0.282916
1470.000000	0.282900
1471.000000	0.282986
1472.000000	0.283030
1473.000000	0.283208
1474.000000	0.283304
1475.000000	0.283352
1476.000000	0.283443
1477.000000	0.283540
1478.000000	0.283696
1479.000000	0.283921
1480.000000	0.284193
1481.000000	0.284412
1482.000000	0.284678
1483.000000	0.284952
1484.000000	0.285201
1485.000000	0.285482
1486.000000	0.285777
1487.000000	0.286076
1488.000000	0.286394
1489.000000	0.286653
1490.000000	0.286826
1491.000000	0.287058
1492.000000	0.287205
1493.000000	0.287438
1494.000000	0.287672
1495.000000	0.287907
1496.000000	0.288164
1497.000000	0.288395
1498.000000	0.288642
1499.000000	0.288922
1500.000000	0.289156
1501.000000	0.289289
1502.000000	0.289385
1503.000000	0.289525
1504.000000	0.289632
1505.000000	0.289821
1506.000000	0.290127
1507.000000	0.290326
1508.000000	0.290461
1509.000000	0.290594
1510.000000	0.290688
1511.000000	0.290824
1512.000000	0.291039
1513.000000	0.291260
1514.000000	0.291400
1515.000000	0.291529
1516.000000	0.291738
1517.000000	0.291758
1518.000000	0.291800
1519.000000	0.291865
1520.000000	0.291743
1521.000000	0.291782
1522.000000	0.291999
1523.000000	0.292091
1524.000000	0.292210
1525.000000	0.292359
1526.000000	0.292391
1527.000000	0.292497
1528.000000	0.292649
1529.000000	0.292729
1530.000000	0.292816
1531.000000	0.293005
1532.000000	0.293095
1533.000000	0.293081
1534.000000	0.293148
1535.000000	0.293188
1536.000000	0.293120
1537.000000	0.293198
1538.000000	0.293321
1539.000000	0.293294
1540.000000	0.293397
1541.000000	0.293598
1542.000000	0.293561
1543.000000	0.293473
1544.000000	0.293429
1545.000000	0.293373
1546.000000	0.293394
1547.000000	0.293489
1548.000000	0.293586
1549.000000	0.293587
1550.000000	0.293583
1551.000000	0.293590
1552.000000	0.293541
1553.000000	0.293581
1554.000000	0.293701
1555.000000	0.293773
1556.000000	0.293742
1557.000000	0.293684
1558.000000	0.293706
1559.000000	0.293642
1560.000000	0.293624
1561.000000	0.293741
1562.000000	0.293757
1563.000000	0.293756
1564.000000	0.293765
1565.000000	0.293770
1566.000000	0.293729
1567.000000	0.293734
1568.000000	0.293705
1569.000000	0.293734
1570.000000	0.293788
1571.000000	0.293803
1572.000000	0.293858
1573.000000	0.294005
1574.000000	0.294033
1575.000000	0.294015
1576.000000	0.294043
1577.000000	0.294033
1578.000000	0.294038
1579.000000	0.294141
1580.000000	0.294174
1581.000000	0.294221
1582.000000	0.294230
1583.000000	0.294218
1584.000000	0.294131
1585.000000	0.294064
1586.000000	0.294032
1587.000000	0.293977
1588.000000	0.293958
1589.000000	0.293969
1590.000000	0.293939
1591.000000	0.293896
1592.000000	0.293901
1593.000000	0.293965
1594.000000	0.294006
1595.000000	0.294105
1596.000000	0.294207
1597.000000	0.294399
1598.000000	0.294431
1599.000000	0.294420
1600.000000	0.294342
1601.000000	0.294155
1602.000000	0.294060
1603.000000	0.294047
1604.000000	0.294056
1605.000000	0.294162
1606.000000	0.294146
1607.000000	0.294116
1608.000000	0.294079
1609.000000	0.293974
1610.000000	0.293967
1611.000000	0.294046
1612.000000	0.294137
1613.000000	0.294450
1614.000000	0.294586
1615.000000	0.294757
1616.000000	0.294847
1617.000000	0.294678
1618.000000	0.294637
1619.000000	0.294602
1620.000000	0.294642
1621.000000	0.294825
1622.000000	0.294964
1623.000000	0.295068
1624.000000	0.295114
1625.000000	0.294983
1626.000000	0.294954
1627.000000	0.294968
1628.000000	0.295059
1629.000000	0.295178
1630.000000	0.295304
1631.000000	0.295451
1632.000000	0.295478
1633.000000	0.295458
1634.000000	0.295561
1635.000000	0.295682
1636.000000	0.295781
1637.000000	0.295995
1638.000000	0.296106
1639.000000	0.296183
1640.000000	0.296220
1641.000000	0.296239
1642.000000	0.296381
1643.000000	0.296609
1644.000000	0.296743
1645.000000	0.296991
1646.000000	0.297065
1647.000000	0.296923
1648.000000	0.296955
1649.000000	0.297113
1650.000000	0.297234
1651.000000	0.297485
1652.000000	0.297655
1653.000000	0.297724
1654.000000	0.297860
1655.000000	0.297904
1656.000000	0.297922
1657.000000	0.298024
1658.000000	0.298136
1659.000000	0.298368
1660.000000	0.298533
1661.000000	0.298599
1662.000000	0.298702
1663.000000	0.298751
1664.000000	0.298854
1665.000000	0.299018
1666.000000	0.299179
1667.000000	0.299222
1668.000000	0.299380
1669.000000	0.299591
1670.000000	0.299710
1671.000000	0.299992
1672.000000	0.300086
1673.000000	0.299997
1674.000000	0.300065
1675.000000	0.300140
1676.000000	0.300275
1677.000000	0.300356
1678.000000	0.300445
1679.000000	0.300533
1680.000000	0.300602
1681.000000	0.300644
1682.000000	0.300597
1683.000000	0.300665
1684.000000	0.300775
1685.000000	0.300844
1686.000000	0.300958
1687.000000	0.301018
1688.000000	0.300885
1689.000000	0.300873
1690.000000	0.300898
1691.000000	0.300906
1692.000000	0.300945
1693.000000	0.301023
1694.000000	0.301022
1695.000000	0.300948
1696.000000	0.300990
1697.000000	0.301020
1698.000000	0.301267
1699.000000	0.301357
1700.000000	0.301270
1701.000000	0.301352
1702.000000	0.301176
1703.000000	0.301140
1704.000000	0.301490
1705.000000	0.301607
1706.000000	0.301653
1707.000000	0.301727
1708.000000	0.301625
1709.000000	0.301597
1710.000000	0.301824
1711.000000	0.301897
1712.000000	0.301848
1713.000000	0.301930
1714.000000	0.302083
1715.000000	0.302209
1716.000000	0.302537
1717.000000	0.302600
1718.000000	0.302403
1719.000000	0.302302
1720.000000	0.302156
1721.000000	0.302071
1722.000000	0.302039
1723.000000	0.302020
1724.000000	0.302063
1725.000000	0.302060
1726.000000	0.301972
1727.000000	0.301954
1728.000000	0.301872
1729.000000	0.301759
1730.000000	0.301767
1731.000000	0.301828
1732.000000	0.301891
1733.000000	0.302036
1734.000000	0.302209
1735.000000	0.302302
1736.000000	0.302337
1737.000000	0.302335
1738.000000	0.302287
1739.000000	0.302325
1740.000000	0.302310
1741.000000	0.302393
1742.000000	0.302623
1743.000000	0.302740
1744.000000	0.302858
1745.000000	0.302799
1746.000000	0.302574
1747.000000	0.302612
1748.000000	0.302540
1749.000000	0.302518
1750.000000	0.302528
1751.000000	0.302561
1752.000000	0.302710
1753.000000	0.302949
1754.000000	0.303084
1755.000000	0.303073
1756.000000	0.303118
1757.000000	0.303166
1758.000000	0.303216
1759.000000	0.303321
1760.000000	0.303339
1761.000000	0.303167
1762.000000	0.303154
1763.000000	0.303259
1764.000000	0.303273
1765.000000	0.303297
1766.000000	0.303320
1767.000000	0.303142
1768.000000	0.303077
1769.000000	0.303274
1770.000000	0.303292
1771.000000	0.303117
1772.000000	0.303141
1773.000000	0.303126
1774.000000	0.303172
1775.000000	0.303459
1776.000000	0.303623
1777.000000	0.303669
1778.000000	0.303750
1779.000000	0.303885
1780.000000	0.303888
1781.000000	0.303768
1782.000000	0.303717
1783.000000	0.303648
1784.000000	0.303710
1785.000000	0.303676
1786.000000	0.303613
1787.000000	0.303793
1788.000000	0.303996
1789.000000	0.303982
1790.000000	0.304150
1791.000000	0.304293
1792.000000	0.304642
1793.000000	0.304820
1794.000000	0.304914
1795.000000	0.305027
1796.000000	0.305028
1797.000000	0.305007
1798.000000	0.304929
1799.000000	0.304935
1800.000000	0.305009
1801.000000	0.305121
1802.000000	0.305129
1803.000000	0.304623
1804.000000	0.304156
1805.000000	0.302973
1806.000000	0.302568
1807.000000	0.302419
1808.000000	0.302383
1809.000000	0.302955
1810.000000	0.303013
1811.000000	0.303216
1812.000000	0.303487
1813.000000	0.303564
1814.000000	0.303393
1815.000000	0.303705
1816.000000	0.304216
1817.000000	0.304349
1818.000000	0.304679
1819.000000	0.305281
1820.000000	0.304522
1821.000000	0.304004
1822.000000	0.304057
1823.000000	0.304459
1824.000000	0.304259
1825.000000	0.304466
1826.000000	0.304221
1827.000000	0.303059
1828.000000	0.301896
1829.000000	0.302109
1830.000000	0.302154
1831.000000	0.302329
1832.000000	0.303418
1833.000000	0.303512
1834.000000	0.302930
1835.000000	0.302721
1836.000000	0.302353
1837.000000	0.301927
1838.000000	0.301562
1839.000000	0.300904
1840.000000	0.300190
1841.000000	0.299305
1842.000000	0.298858
1843.000000	0.298388
1844.000000	0.298501
1845.000000	0.299291
1846.000000	0.299706
1847.000000	0.300093
1848.000000	0.300581
1849.000000	0.300589
1850.000000	0.300305
1851.000000	0.300583
1852.000000	0.301245
1853.000000	0.301245
1854.000000	0.301215
1855.000000	0.300722
1856.000000	0.299258
1857.000000	0.298418
1858.000000	0.297782
1859.000000	0.296938
1860.000000	0.296222
1861.000000	0.295216
1862.000000	0.294475
1863.000000	0.293702
1864.000000	0.293272
1865.000000	0.293457
1866.000000	0.293015
1867.000000	0.292240
1868.000000	0.291863
1869.000000	0.290937
1870.000000	0.289835
1871.000000	0.288738
1872.000000	0.287423
1873.000000	0.286043
1874.000000	0.283953
1875.000000	0.282857
1876.000000	0.282200
1877.000000	0.280914
1878.000000	0.279701
1879.000000	0.278838
1880.000000	0.277042
1881.000000	0.274551
1882.000000	0.271485
1883.000000	0.268590
1884.000000	0.266420
1885.000000	0.264475
1886.000000	0.262150
1887.000000	0.260330
1888.000000	0.258454
1889.000000	0.255038
1890.000000	0.251637
1891.000000	0.249542
1892.000000	0.246706
1893.000000	0.244265
1894.000000	0.242792
1895.000000	0.240196
1896.000000	0.236926
1897.000000	0.234159
1898.000000	0.231869
1899.000000	0.228827
1900.000000	0.226574
1901.000000	0.224637
1902.000000	0.222275
1903.000000	0.220474
1904.000000	0.218946
1905.000000	0.217570
1906.000000	0.215928
1907.000000	0.214279
1908.000000	0.211996
1909.000000	0.210158
1910.000000	0.208687
1911.000000	0.207152
1912.000000	0.206224
1913.000000	0.205332
1914.000000	0.204219
1915.000000	0.203273
1916.000000	0.202418
1917.000000	0.201618
1918.000000	0.201084
1919.000000	0.200617
1920.000000	0.200024
1921.000000	0.199406
1922.000000	0.198854
1923.000000	0.198171
1924.000000	0.197218
1925.000000	0.196666
1926.000000	0.196103
1927.000000	0.195708
1928.000000	0.195498
1929.000000	0.195711
1930.000000	0.195496
1931.000000	0.195298
1932.000000	0.195614
1933.000000	0.195292
1934.000000	0.194831
1935.000000	0.195531
1936.000000	0.195495
1937.000000	0.195106
1938.000000	0.195680
1939.000000	0.195868
1940.000000	0.195593
1941.000000	0.195336
1942.000000	0.195883
1943.000000	0.196078
1944.000000	0.196121
1945.000000	0.196570
1946.000000	0.196795
1947.000000	0.196584
1948.000000	0.196197
1949.000000	0.195825
1950.000000	0.195963
1951.000000	0.195877
1952.000000	0.196101
1953.000000	0.195867
1954.000000	0.195494
1955.000000	0.195015
1956.000000	0.194181
1957.000000	0.194102
1958.000000	0.194483
1959.000000	0.194257
1960.000000	0.194299
1961.000000	0.194121
1962.000000	0.193658
1963.000000	0.192751
1964.000000	0.192200
1965.000000	0.191729
1966.000000	0.191758
1967.000000	0.192069
1968.000000	0.192415
1969.000000	0.193139
1970.000000	0.193329
1971.000000	0.193298
1972.000000	0.193661
1973.000000	0.193967
1974.000000	0.194177
1975.000000	0.194642
1976.000000	0.195616
1977.000000	0.196156
1978.000000	0.196117
1979.000000	0.195691
1980.000000	0.195297
1981.000000	0.195279
1982.000000	0.195651
1983.000000	0.196386
1984.000000	0.196843
1985.000000	0.197450
1986.000000	0.197620
1987.000000	0.197484
1988.000000	0.197496
1989.000000	0.197694
1990.000000	0.198111
1991.000000	0.198404
1992.000000	0.198616
1993.000000	0.199575
1994.000000	0.200341
1995.000000	0.201087
1996.000000	0.201846
1997.000000	0.202261
1998.000000	0.201854
1999.000000	0.202121
2000.000000	0.202421
2001.000000	0.203304
2002.000000	0.203953
2003.000000	0.204112
2004.000000	0.205096
2005.000000	0.205880
2006.000000	0.207370
2007.000000	0.209061
2008.000000	0.210074
2009.000000	0.210775
2010.000000	0.211380
2011.000000	0.211230
2012.000000	0.211618
2013.000000	0.212050
2014.000000	0.212335
2015.000000	0.213494
2016.000000	0.214671
2017.000000	0.215418
2018.000000	0.216385
2019.000000	0.217309
2020.000000	0.217629
2021.000000	0.218124
2022.000000	0.219008
2023.000000	0.219411
2024.000000	0.219150
2025.000000	0.219548
2026.000000	0.220296
2027.000000	0.220221
2028.000000	0.220398
2029.000000	0.220972
2030.000000	0.221194
2031.000000	0.222033
2032.000000	0.222978
2033.000000	0.223363
2034.000000	0.223887
2035.000000	0.223987
2036.000000	0.224684
2037.000000	0.226121
2038.000000	0.227161
2039.000000	0.228481
2040.000000	0.229406
2041.000000	0.230018
2042.000000	0.230522
2043.000000	0.230951
2044.000000	0.231832
2045.000000	0.232863
2046.000000	0.233152
2047.000000	0.233442
2048.000000	0.233380
2049.000000	0.233645
2050.000000	0.233550
2051.000000	0.233795
2052.000000	0.234552
2053.000000	0.234795
2054.000000	0.234918
2055.000000	0.234927
2056.000000	0.235273
2057.000000	0.235760
2058.000000	0.236701
2059.000000	0.237347
2060.000000	0.238091
2061.000000	0.238772
2062.000000	0.239409
2063.000000	0.240400
2064.000000	0.240911
2065.000000	0.241283
2066.000000	0.241481
2067.000000	0.241675
2068.000000	0.241772
2069.000000	0.241162
2070.000000	0.241211
2071.000000	0.241531
2072.000000	0.241480
2073.000000	0.242122
2074.000000	0.243204
2075.000000	0.243878
2076.000000	0.244199
2077.000000	0.244921
2078.000000	0.245814
2079.000000	0.246394
2080.000000	0.247318
2081.000000	0.247951
2082.000000	0.248187
2083.000000	0.248491
2084.000000	0.248858
2085.000000	0.249290
2086.000000	0.249527
2087.000000	0.249921
2088.000000	0.250531
2089.000000	0.250580
2090.000000	0.250973
2091.000000	0.251617
2092.000000	0.252110
2093.000000	0.252593
2094.000000	0.253202
2095.000000	0.254035
2096.000000	0.254538
2097.000000	0.255127
2098.000000	0.255191
2099.000000	0.254399
2100.000000	0.254451
2101.000000	0.254549
2102.000000	0.254800
2103.000000	0.255665
2104.000000	0.255907
2105.000000	0.256226
2106.000000	0.256475
2107.000000	0.256412
2108.000000	0.255815
2109.000000	0.256034
2110.000000	0.256200
2111.000000	0.256522
2112.000000	0.257244
2113.000000	0.258043
2114.000000	0.258698
2115.000000	0.259390
2116.000000	0.260541
2117.000000	0.260931
2118.000000	0.261292
2119.000000	0.261593
2120.000000	0.261830
2121.000000	0.262190
2122.000000	0.262342
2123.000000	0.261918
2124.000000	0.262031
2125.000000	0.262462
2126.000000	0.262488
2127.000000	0.263001
2128.000000	0.263010
2129.000000	0.262123
2130.000000	0.261550
2131.000000	0.261316
2132.000000	0.261419
2133.000000	0.262690
2134.000000	0.263994
2135.000000	0.264872
2136.000000	0.265629
2137.000000	0.265715
2138.000000	0.264825
2139.000000	0.264447
2140.000000	0.263761
2141.000000	0.263333
2142.000000	0.263083
2143.000000	0.262729
2144.000000	0.262443
2145.000000	0.262505
2146.000000	0.262626
2147.000000	0.263506
2148.000000	0.264649
2149.000000	0.265284
2150.000000	0.265897
2151.000000	0.266117
2152.000000	0.266262
2153.000000	0.266071
2154.000000	0.265694
2155.000000	0.264973
2156.000000	0.264777
2157.000000	0.264519
2158.000000	0.264477
2159.000000	0.264651
2160.000000	0.265107
2161.000000	0.265891
2162.000000	0.266654
2163.000000	0.268211
2164.000000	0.268881
2165.000000	0.269413
2166.000000	0.268552
2167.000000	0.267885
2168.000000	0.267573
2169.000000	0.266954
2170.000000	0.266579
2171.000000	0.266362
2172.000000	0.266063
2173.000000	0.265978
2174.000000	0.266294
2175.000000	0.266464
2176.000000	0.266316
2177.000000	0.266907
2178.000000	0.268579
2179.000000	0.269262
2180.000000	0.270156
2181.000000	0.270486
2182.000000	0.269393
2183.000000	0.267895
2184.000000	0.267936
2185.000000	0.267340
2186.000000	0.266434
2187.000000	0.266923
2188.000000	0.266619
2189.000000	0.266337
2190.000000	0.267758
2191.000000	0.269100
2192.000000	0.269247
2193.000000	0.268871
2194.000000	0.268143
2195.000000	0.265054
2196.000000	0.264829
2197.000000	0.266758
2198.000000	0.267301
2199.000000	0.269062
2200.000000	0.269888
2201.000000	0.268317
2202.000000	0.268132
2203.000000	0.268133
2204.000000	0.269436
2205.000000	0.271739
2206.000000	0.273108
2207.000000	0.273211
2208.000000	0.272451
2209.000000	0.268586
2210.000000	0.266562
2211.000000	0.265021
2212.000000	0.263471
2213.000000	0.263084
2214.000000	0.264137
2215.000000	0.263426
2216.000000	0.262815
2217.000000	0.262520
2218.000000	0.259789
2219.000000	0.260802
2220.000000	0.264378
2221.000000	0.267216
2222.000000	0.274072
2223.000000	0.276425
2224.000000	0.276649
2225.000000	0.275816
2226.000000	0.273550
2227.000000	0.270228
2228.000000	0.269763
2229.000000	0.269012
2230.000000	0.268285
2231.000000	0.267459
2232.000000	0.263276
2233.000000	0.262873
2234.000000	0.264269
2235.000000	0.264352
2236.000000	0.265498
2237.000000	0.269194
2238.000000	0.269478
2239.000000	0.267983
2240.000000	0.267870
2241.000000	0.267109
2242.000000	0.266960
2243.000000	0.267464
2244.000000	0.267530
2245.000000	0.266896
2246.000000	0.267000
2247.000000	0.268446
2248.000000	0.268378
2249.000000	0.267087
2250.000000	0.267122
2251.000000	0.267531
2252.000000	0.268109
2253.000000	0.271423
2254.000000	0.274292
2255.000000	0.273585
2256.000000	0.272434
2257.000000	0.269450
2258.000000	0.266264
2259.000000	0.265876
2260.000000	0.264920
2261.000000	0.264823
2262.000000	0.266805
2263.000000	0.266663
2264.000000	0.265683
2265.000000	0.265289
2266.000000	0.264138
2267.000000	0.262770
2268.000000	0.261616
2269.000000	0.261099
2270.000000	0.260473
2271.000000	0.260096
2272.000000	0.260489
2273.000000	0.260143
2274.000000	0.258525
2275.000000	0.258280
2276.000000	0.258465
2277.000000	0.259604
2278.000000	0.261044
2279.000000	0.261633
2280.000000	0.260280
2281.000000	0.258496
2282.000000	0.257529
2283.000000	0.256500
2284.000000	0.256198
2285.000000	0.256874
2286.000000	0.256075
2287.000000	0.255169
2288.000000	0.254300
2289.000000	0.252035
2290.000000	0.250598
2291.000000	0.251328
2292.000000	0.251447
2293.000000	0.249810
2294.000000	0.249423
2295.000000	0.248746
2296.000000	0.248100
2297.000000	0.248125
2298.000000	0.248774
2299.000000	0.249550
2300.000000	0.249201
2301.000000	0.248892
2302.000000	0.249208
2303.000000	0.249346
2304.000000	0.248707
2305.000000	0.248924
2306.000000	0.247904
2307.000000	0.245104
2308.000000	0.242520
2309.000000	0.239773
2310.000000	0.237229
2311.000000	0.238201
2312.000000	0.238058
2313.000000	0.238728
2314.000000	0.239580
2315.000000	0.236394
2316.000000	0.234899
2317.000000	0.234276
2318.000000	0.234881
2319.000000	0.234814
2320.000000	0.234028
2321.000000	0.235593
2322.000000	0.233859
2323.000000	0.234771
2324.000000	0.235741
2325.000000	0.233610
2326.000000	0.234508
2327.000000	0.233329
2328.000000	0.235931
2329.000000	0.239291
2330.000000	0.239981
2331.000000	0.243170
2332.000000	0.240894
2333.000000	0.237977
2334.000000	0.235666
2335.000000	0.234181
2336.000000	0.233103
2337.000000	0.232095
2338.000000	0.231004
2339.000000	0.231714
2340.000000	0.233928
2341.000000	0.234085
2342.000000	0.234970
2343.000000	0.235708
2344.000000	0.233163
2345.000000	0.232843
2346.000000	0.235713
2347.000000	0.235544
2348.000000	0.234375
2349.000000	0.233698
2350.000000	0.229991
2351.000000	0.226914
2352.000000	0.224894
2353.000000	0.224239
2354.000000	0.224522
2355.000000	0.225736
2356.000000	0.226964
2357.000000	0.225358
2358.000000	0.225030
2359.000000	0.227469
2360.000000	0.228110
2361.000000	0.227963
2362.000000	0.229233
2363.000000	0.227198
2364.000000	0.220776
2365.000000	0.220781
2366.000000	0.222173
2367.000000	0.221550
2368.000000	0.226755
2369.000000	0.225993
2370.000000	0.220701
2371.000000	0.217569
2372.000000	0.213821
2373.000000	0.213984
2374.000000	0.212474
2375.000000	0.212403
2376.000000	0.215498
2377.000000	0.216653
2378.000000	0.220246
2379.000000	0.220001
2380.000000	0.216420
2381.000000	0.212019
2382.000000	0.208151
2383.000000	0.208226
2384.000000	0.207935
2385.000000	0.209047
2386.000000	0.206075
2387.000000	0.198194
2388.000000	0.196309
2389.000000	0.192985
2390.000000	0.192669
2391.000000	0.204232
2392.000000	0.207898
2393.000000	0.207312
2394.000000	0.210382
2395.000000	0.206149
2396.000000	0.199450
2397.000000	0.197679
2398.000000	0.196437
2399.000000	0.191293
2400.000000	0.186072
2401.000000	0.181398
2402.000000	0.179718
2403.000000	0.173518
2404.000000	0.173964
2405.000000	0.185726
2406.000000	0.188400
2407.000000	0.196064
2408.000000	0.201636
2409.000000	0.199193
2410.000000	0.199777
2411.000000	0.198977
2412.000000	0.201942
2413.000000	0.201623
2414.000000	0.198526
2415.000000	0.201440
2416.000000	0.203618
2417.000000	0.207110
2418.000000	0.213214
2419.000000	0.210120
2420.000000	0.205936
2421.000000	0.202739
2422.000000	0.194778
2423.000000	0.196088
2424.000000	0.198771
2425.000000	0.194543
2426.000000	0.190048
2427.000000	0.184896
2428.000000	0.182830
2429.000000	0.190459
2430.000000	0.201914
2431.000000	0.209176
2432.000000	0.211169
2433.000000	0.209032
2434.000000	0.202037
2435.000000	0.189026
2436.000000	0.187287
2437.000000	0.188237
2438.000000	0.191069
2439.000000	0.199358
2440.000000	0.200997
2441.000000	0.204677
2442.000000	0.196359
2443.000000	0.190169
2444.000000	0.184755
2445.000000	0.164832
2446.000000	0.156593
2447.000000	0.161124
2448.000000	0.174500
2449.000000	0.188477
2450.000000	0.200717
2451.000000	0.212657
2452.000000	0.212203
2453.000000	0.226278
2454.000000	0.246596
2455.000000	0.249817
2456.000000	0.262271
2457.000000	0.263813
2458.000000	0.258484
2459.000000	0.260856
2460.000000	0.252633
2461.000000	0.240827
2462.000000	0.228564
2463.000000	0.214412
2464.000000	0.198776
2465.000000	0.193170
2466.000000	0.192736
2467.000000	0.190697
2468.000000	0.183998
2469.000000	0.173466
2470.000000	0.169776
2471.000000	0.175061
2472.000000	0.189434
2473.000000	0.195403
2474.000000	0.192799
2475.000000	0.170032
2476.000000	0.138986
2477.000000	0.160396
2478.000000	0.189415
2479.000000	0.214928
2480.000000	0.256141
2481.000000	0.267104
2482.000000	0.251665
2483.000000	0.232019
2484.000000	0.249149
2485.000000	0.276187
2486.000000	0.274358
2487.000000	0.289760
2488.000000	0.292479
2489.000000	0.284816
2490.000000	0.289210
2491.000000	0.311758
2492.000000	0.299990
2493.000000	0.215412
2494.000000	0.202579
2495.000000	0.244070
2496.000000	0.232455
2497.000000	0.230606
2498.000000	0.241032
2499.000000	0.229502
2500.000000	0.236880
