# Wavelength	SM1200H-20_HEX-70_FV7-10_00001.asd.rts.txt
350.000000	0.413917
351.000000	0.398977
352.000000	0.392060
353.000000	0.401091
354.000000	0.422114
355.000000	0.416669
356.000000	0.410865
357.000000	0.410956
358.000000	0.402676
359.000000	0.396568
360.000000	0.397376
361.000000	0.405302
362.000000	0.409605
363.000000	0.409359
364.000000	0.406589
365.000000	0.411840
366.000000	0.414300
367.000000	0.411239
368.000000	0.407218
369.000000	0.407163
370.000000	0.409771
371.000000	0.411846
372.000000	0.414246
373.000000	0.416273
374.000000	0.417974
375.000000	0.418180
376.000000	0.417299
377.000000	0.415886
378.000000	0.415076
379.000000	0.416889
380.000000	0.418328
381.000000	0.417102
382.000000	0.418383
383.000000	0.419681
384.000000	0.419426
385.000000	0.418890
386.000000	0.419536
387.000000	0.421346
388.000000	0.422026
389.000000	0.423304
390.000000	0.424957
391.000000	0.425650
392.000000	0.425465
393.000000	0.425086
394.000000	0.425282
395.000000	0.427350
396.000000	0.427698
397.000000	0.426097
398.000000	0.426845
399.000000	0.428634
400.000000	0.429967
401.000000	0.429045
402.000000	0.429898
403.000000	0.431067
404.000000	0.431076
405.000000	0.431175
406.000000	0.430978
407.000000	0.430697
408.000000	0.431464
409.000000	0.432670
410.000000	0.433688
411.000000	0.433762
412.000000	0.434353
413.000000	0.434949
414.000000	0.434893
415.000000	0.435108
416.000000	0.435494
417.000000	0.435980
418.000000	0.436837
419.000000	0.437373
420.000000	0.437613
421.000000	0.438192
422.000000	0.438314
423.000000	0.438348
424.000000	0.439004
425.000000	0.439000
426.000000	0.439187
427.000000	0.440080
428.000000	0.440596
429.000000	0.440640
430.000000	0.440471
431.000000	0.440814
432.000000	0.441132
433.000000	0.441502
434.000000	0.442390
435.000000	0.442662
436.000000	0.442558
437.000000	0.442478
438.000000	0.442312
439.000000	0.442428
440.000000	0.443026
441.000000	0.443376
442.000000	0.443803
443.000000	0.444194
444.000000	0.444446
445.000000	0.444712
446.000000	0.445279
447.000000	0.445975
448.000000	0.445726
449.000000	0.445576
450.000000	0.446219
451.000000	0.446758
452.000000	0.447416
453.000000	0.447954
454.000000	0.447947
455.000000	0.448140
456.000000	0.448715
457.000000	0.449266
458.000000	0.449546
459.000000	0.449761
460.000000	0.450207
461.000000	0.450694
462.000000	0.451057
463.000000	0.451051
464.000000	0.451198
465.000000	0.451371
466.000000	0.451565
467.000000	0.452066
468.000000	0.452333
469.000000	0.452283
470.000000	0.452308
471.000000	0.452650
472.000000	0.453021
473.000000	0.453266
474.000000	0.453516
475.000000	0.453587
476.000000	0.453725
477.000000	0.454030
478.000000	0.454207
479.000000	0.454549
480.000000	0.454930
481.000000	0.454962
482.000000	0.455217
483.000000	0.455754
484.000000	0.456046
485.000000	0.456315
486.000000	0.456891
487.000000	0.457235
488.000000	0.457466
489.000000	0.457712
490.000000	0.458092
491.000000	0.458434
492.000000	0.458800
493.000000	0.459062
494.000000	0.459316
495.000000	0.459549
496.000000	0.459733
497.000000	0.460186
498.000000	0.460510
499.000000	0.460767
500.000000	0.461252
501.000000	0.461468
502.000000	0.461658
503.000000	0.462202
504.000000	0.462566
505.000000	0.462735
506.000000	0.462851
507.000000	0.463195
508.000000	0.463674
509.000000	0.464096
510.000000	0.464325
511.000000	0.464606
512.000000	0.464985
513.000000	0.465241
514.000000	0.465549
515.000000	0.465892
516.000000	0.466105
517.000000	0.466382
518.000000	0.466804
519.000000	0.467234
520.000000	0.467618
521.000000	0.467893
522.000000	0.468114
523.000000	0.468518
524.000000	0.468772
525.000000	0.468894
526.000000	0.469169
527.000000	0.469594
528.000000	0.469980
529.000000	0.470236
530.000000	0.470501
531.000000	0.470869
532.000000	0.471222
533.000000	0.471572
534.000000	0.471840
535.000000	0.472076
536.000000	0.472568
537.000000	0.472840
538.000000	0.472965
539.000000	0.473201
540.000000	0.473495
541.000000	0.473831
542.000000	0.474216
543.000000	0.474367
544.000000	0.474596
545.000000	0.474933
546.000000	0.475272
547.000000	0.475669
548.000000	0.476145
549.000000	0.476537
550.000000	0.476796
551.000000	0.477077
552.000000	0.477459
553.000000	0.477716
554.000000	0.477948
555.000000	0.478268
556.000000	0.478684
557.000000	0.478998
558.000000	0.479330
559.000000	0.479566
560.000000	0.479843
561.000000	0.480265
562.000000	0.480658
563.000000	0.481003
564.000000	0.481345
565.000000	0.481576
566.000000	0.481914
567.000000	0.482275
568.000000	0.482574
569.000000	0.482920
570.000000	0.483251
571.000000	0.483526
572.000000	0.483752
573.000000	0.484060
574.000000	0.484362
575.000000	0.484617
576.000000	0.484969
577.000000	0.485307
578.000000	0.485625
579.000000	0.485906
580.000000	0.486207
581.000000	0.486532
582.000000	0.486806
583.000000	0.487120
584.000000	0.487488
585.000000	0.487879
586.000000	0.488184
587.000000	0.488475
588.000000	0.488841
589.000000	0.489089
590.000000	0.489324
591.000000	0.489608
592.000000	0.489819
593.000000	0.490130
594.000000	0.490517
595.000000	0.490758
596.000000	0.490973
597.000000	0.491244
598.000000	0.491472
599.000000	0.491620
600.000000	0.491817
601.000000	0.492034
602.000000	0.492229
603.000000	0.492404
604.000000	0.492575
605.000000	0.492710
606.000000	0.492923
607.000000	0.493172
608.000000	0.493307
609.000000	0.493458
610.000000	0.493674
611.000000	0.493951
612.000000	0.494097
613.000000	0.494211
614.000000	0.494406
615.000000	0.494515
616.000000	0.494634
617.000000	0.494768
618.000000	0.495020
619.000000	0.495295
620.000000	0.495471
621.000000	0.495538
622.000000	0.495712
623.000000	0.495872
624.000000	0.495917
625.000000	0.496066
626.000000	0.496247
627.000000	0.496411
628.000000	0.496553
629.000000	0.496808
630.000000	0.496984
631.000000	0.497180
632.000000	0.497358
633.000000	0.497524
634.000000	0.497679
635.000000	0.497932
636.000000	0.498134
637.000000	0.498202
638.000000	0.498336
639.000000	0.498407
640.000000	0.498500
641.000000	0.498600
642.000000	0.498694
643.000000	0.498815
644.000000	0.499000
645.000000	0.499101
646.000000	0.499252
647.000000	0.499477
648.000000	0.499581
649.000000	0.499714
650.000000	0.499888
651.000000	0.500033
652.000000	0.500186
653.000000	0.500367
654.000000	0.500452
655.000000	0.500542
656.000000	0.500718
657.000000	0.500926
658.000000	0.501127
659.000000	0.501302
660.000000	0.501444
661.000000	0.501679
662.000000	0.501839
663.000000	0.502012
664.000000	0.502252
665.000000	0.502468
666.000000	0.502626
667.000000	0.502684
668.000000	0.502802
669.000000	0.502941
670.000000	0.503083
671.000000	0.503252
672.000000	0.503438
673.000000	0.503614
674.000000	0.503772
675.000000	0.503984
676.000000	0.504206
677.000000	0.504394
678.000000	0.504568
679.000000	0.504676
680.000000	0.504725
681.000000	0.504823
682.000000	0.505003
683.000000	0.505140
684.000000	0.505321
685.000000	0.505461
686.000000	0.505627
687.000000	0.505834
688.000000	0.505999
689.000000	0.506168
690.000000	0.506420
691.000000	0.506626
692.000000	0.506743
693.000000	0.506885
694.000000	0.507060
695.000000	0.507188
696.000000	0.507294
697.000000	0.507451
698.000000	0.507640
699.000000	0.507851
700.000000	0.508080
701.000000	0.508284
702.000000	0.508453
703.000000	0.508563
704.000000	0.508664
705.000000	0.508780
706.000000	0.508882
707.000000	0.509068
708.000000	0.509226
709.000000	0.509363
710.000000	0.509517
711.000000	0.509575
712.000000	0.509698
713.000000	0.509929
714.000000	0.510024
715.000000	0.510126
716.000000	0.510279
717.000000	0.510438
718.000000	0.510573
719.000000	0.510684
720.000000	0.510808
721.000000	0.510991
722.000000	0.511085
723.000000	0.511157
724.000000	0.511256
725.000000	0.511365
726.000000	0.511546
727.000000	0.511614
728.000000	0.511669
729.000000	0.511780
730.000000	0.511895
731.000000	0.512016
732.000000	0.512124
733.000000	0.512253
734.000000	0.512303
735.000000	0.512300
736.000000	0.512442
737.000000	0.512564
738.000000	0.512653
739.000000	0.512772
740.000000	0.512730
741.000000	0.512854
742.000000	0.512957
743.000000	0.512982
744.000000	0.513158
745.000000	0.513218
746.000000	0.513297
747.000000	0.513465
748.000000	0.513599
749.000000	0.513742
750.000000	0.513870
751.000000	0.513955
752.000000	0.514035
753.000000	0.514120
754.000000	0.514152
755.000000	0.514229
756.000000	0.514317
757.000000	0.514301
758.000000	0.514401
759.000000	0.514578
760.000000	0.514678
761.000000	0.514812
762.000000	0.514822
763.000000	0.514763
764.000000	0.514936
765.000000	0.515005
766.000000	0.515006
767.000000	0.515033
768.000000	0.515133
769.000000	0.515205
770.000000	0.515215
771.000000	0.515183
772.000000	0.515378
773.000000	0.515597
774.000000	0.515673
775.000000	0.515714
776.000000	0.515757
777.000000	0.515799
778.000000	0.515880
779.000000	0.515986
780.000000	0.516097
781.000000	0.516152
782.000000	0.516166
783.000000	0.516284
784.000000	0.516347
785.000000	0.516309
786.000000	0.516266
787.000000	0.516253
788.000000	0.516190
789.000000	0.516205
790.000000	0.516269
791.000000	0.516351
792.000000	0.516438
793.000000	0.516543
794.000000	0.516672
795.000000	0.516772
796.000000	0.516758
797.000000	0.516676
798.000000	0.516720
799.000000	0.516834
800.000000	0.516958
801.000000	0.517038
802.000000	0.517039
803.000000	0.517023
804.000000	0.517064
805.000000	0.517026
806.000000	0.516986
807.000000	0.517050
808.000000	0.517081
809.000000	0.517095
810.000000	0.517150
811.000000	0.517218
812.000000	0.517074
813.000000	0.517017
814.000000	0.517067
815.000000	0.517037
816.000000	0.517006
817.000000	0.516977
818.000000	0.516830
819.000000	0.516870
820.000000	0.516947
821.000000	0.516933
822.000000	0.517018
823.000000	0.517140
824.000000	0.517186
825.000000	0.517246
826.000000	0.517337
827.000000	0.517343
828.000000	0.517285
829.000000	0.517229
830.000000	0.517083
831.000000	0.516973
832.000000	0.516859
833.000000	0.516802
834.000000	0.516738
835.000000	0.516681
836.000000	0.516712
837.000000	0.516659
838.000000	0.516583
839.000000	0.516639
840.000000	0.516563
841.000000	0.516466
842.000000	0.516416
843.000000	0.516337
844.000000	0.516343
845.000000	0.516370
846.000000	0.516291
847.000000	0.516241
848.000000	0.516191
849.000000	0.516128
850.000000	0.515993
851.000000	0.515901
852.000000	0.515966
853.000000	0.516107
854.000000	0.516047
855.000000	0.516054
856.000000	0.516164
857.000000	0.515958
858.000000	0.515813
859.000000	0.515758
860.000000	0.515584
861.000000	0.515495
862.000000	0.515496
863.000000	0.515400
864.000000	0.515299
865.000000	0.515168
866.000000	0.515081
867.000000	0.515209
868.000000	0.515192
869.000000	0.514928
870.000000	0.514656
871.000000	0.514589
872.000000	0.514570
873.000000	0.514432
874.000000	0.514441
875.000000	0.514358
876.000000	0.514226
877.000000	0.514080
878.000000	0.513861
879.000000	0.513724
880.000000	0.513535
881.000000	0.513427
882.000000	0.513287
883.000000	0.513101
884.000000	0.512816
885.000000	0.512781
886.000000	0.512715
887.000000	0.512511
888.000000	0.512339
889.000000	0.512325
890.000000	0.512227
891.000000	0.512062
892.000000	0.511821
893.000000	0.511573
894.000000	0.511524
895.000000	0.511445
896.000000	0.511167
897.000000	0.510894
898.000000	0.510883
899.000000	0.510777
900.000000	0.510599
901.000000	0.510390
902.000000	0.510411
903.000000	0.510243
904.000000	0.509969
905.000000	0.509667
906.000000	0.509707
907.000000	0.509714
908.000000	0.509580
909.000000	0.509223
910.000000	0.508831
911.000000	0.508521
912.000000	0.508372
913.000000	0.508260
914.000000	0.508117
915.000000	0.508007
916.000000	0.507822
917.000000	0.507758
918.000000	0.507648
919.000000	0.507388
920.000000	0.507376
921.000000	0.507236
922.000000	0.506969
923.000000	0.506710
924.000000	0.506443
925.000000	0.506145
926.000000	0.505887
927.000000	0.505734
928.000000	0.505368
929.000000	0.504930
930.000000	0.504688
931.000000	0.504603
932.000000	0.504452
933.000000	0.504193
934.000000	0.503813
935.000000	0.503443
936.000000	0.503214
937.000000	0.502995
938.000000	0.502621
939.000000	0.502381
940.000000	0.502219
941.000000	0.502111
942.000000	0.501701
943.000000	0.501427
944.000000	0.501306
945.000000	0.501141
946.000000	0.500870
947.000000	0.500582
948.000000	0.500269
949.000000	0.499816
950.000000	0.499489
951.000000	0.499287
952.000000	0.499139
953.000000	0.498946
954.000000	0.498706
955.000000	0.498346
956.000000	0.498020
957.000000	0.497868
958.000000	0.497677
959.000000	0.497347
960.000000	0.497086
961.000000	0.496820
962.000000	0.496478
963.000000	0.496123
964.000000	0.495973
965.000000	0.495876
966.000000	0.495546
967.000000	0.495445
968.000000	0.495151
969.000000	0.494591
970.000000	0.494113
971.000000	0.493858
972.000000	0.493868
973.000000	0.493874
974.000000	0.493591
975.000000	0.493369
976.000000	0.493138
977.000000	0.492809
978.000000	0.492561
979.000000	0.492405
980.000000	0.492139
981.000000	0.492193
982.000000	0.491934
983.000000	0.491627
984.000000	0.491585
985.000000	0.491788
986.000000	0.491580
987.000000	0.491251
988.000000	0.490936
989.000000	0.490698
990.000000	0.490309
991.000000	0.490094
992.000000	0.490397
993.000000	0.490294
994.000000	0.489935
995.000000	0.489695
996.000000	0.489457
997.000000	0.489860
998.000000	0.490006
999.000000	0.489706
1000.000000	0.489657
1001.000000	0.489948
1002.000000	0.489757
1003.000000	0.489665
1004.000000	0.489695
1005.000000	0.489875
1006.000000	0.489702
1007.000000	0.489838
1008.000000	0.488955
1009.000000	0.488359
1010.000000	0.487250
1011.000000	0.486955
1012.000000	0.487737
1013.000000	0.487260
1014.000000	0.486446
1015.000000	0.486623
1016.000000	0.487057
1017.000000	0.487362
1018.000000	0.488066
1019.000000	0.488476
1020.000000	0.488592
1021.000000	0.488051
1022.000000	0.487575
1023.000000	0.487761
1024.000000	0.487771
1025.000000	0.487074
1026.000000	0.487431
1027.000000	0.487804
1028.000000	0.487566
1029.000000	0.488204
1030.000000	0.489003
1031.000000	0.488671
1032.000000	0.488128
1033.000000	0.487748
1034.000000	0.487477
1035.000000	0.487035
1036.000000	0.487140
1037.000000	0.487660
1038.000000	0.487909
1039.000000	0.488551
1040.000000	0.489079
1041.000000	0.488926
1042.000000	0.489231
1043.000000	0.489202
1044.000000	0.488976
1045.000000	0.489329
1046.000000	0.488852
1047.000000	0.488915
1048.000000	0.489253
1049.000000	0.489309
1050.000000	0.489253
1051.000000	0.489451
1052.000000	0.489721
1053.000000	0.489637
1054.000000	0.489643
1055.000000	0.489892
1056.000000	0.490324
1057.000000	0.490223
1058.000000	0.490221
1059.000000	0.490683
1060.000000	0.490692
1061.000000	0.490593
1062.000000	0.490526
1063.000000	0.490814
1064.000000	0.491108
1065.000000	0.491421
1066.000000	0.491673
1067.000000	0.491930
1068.000000	0.492096
1069.000000	0.492138
1070.000000	0.492273
1071.000000	0.492678
1072.000000	0.492829
1073.000000	0.493053
1074.000000	0.492825
1075.000000	0.492830
1076.000000	0.493131
1077.000000	0.493270
1078.000000	0.493562
1079.000000	0.493853
1080.000000	0.494141
1081.000000	0.494320
1082.000000	0.494720
1083.000000	0.495063
1084.000000	0.495484
1085.000000	0.495628
1086.000000	0.495569
1087.000000	0.495608
1088.000000	0.494823
1089.000000	0.494931
1090.000000	0.495585
1091.000000	0.496502
1092.000000	0.497240
1093.000000	0.497762
1094.000000	0.497891
1095.000000	0.497209
1096.000000	0.497144
1097.000000	0.497026
1098.000000	0.497263
1099.000000	0.497861
1100.000000	0.498074
1101.000000	0.498238
1102.000000	0.498383
1103.000000	0.497984
1104.000000	0.498166
1105.000000	0.498871
1106.000000	0.499291
1107.000000	0.499880
1108.000000	0.500147
1109.000000	0.500235
1110.000000	0.500205
1111.000000	0.500150
1112.000000	0.499882
1113.000000	0.499937
1114.000000	0.500133
1115.000000	0.500182
1116.000000	0.500377
1117.000000	0.500398
1118.000000	0.500092
1119.000000	0.500035
1120.000000	0.500006
1121.000000	0.500121
1122.000000	0.500807
1123.000000	0.501238
1124.000000	0.501175
1125.000000	0.501279
1126.000000	0.500969
1127.000000	0.500849
1128.000000	0.500837
1129.000000	0.501103
1130.000000	0.501257
1131.000000	0.501533
1132.000000	0.501539
1133.000000	0.501482
1134.000000	0.501557
1135.000000	0.501553
1136.000000	0.501430
1137.000000	0.501293
1138.000000	0.501154
1139.000000	0.500911
1140.000000	0.500945
1141.000000	0.501217
1142.000000	0.501305
1143.000000	0.501223
1144.000000	0.501356
1145.000000	0.501212
1146.000000	0.501090
1147.000000	0.500915
1148.000000	0.500653
1149.000000	0.500367
1150.000000	0.499862
1151.000000	0.499793
1152.000000	0.499908
1153.000000	0.499850
1154.000000	0.499954
1155.000000	0.499807
1156.000000	0.499341
1157.000000	0.499080
1158.000000	0.498810
1159.000000	0.498536
1160.000000	0.498144
1161.000000	0.497961
1162.000000	0.498041
1163.000000	0.498207
1164.000000	0.498186
1165.000000	0.498034
1166.000000	0.497911
1167.000000	0.497442
1168.000000	0.497244
1169.000000	0.497273
1170.000000	0.497228
1171.000000	0.497260
1172.000000	0.497276
1173.000000	0.497254
1174.000000	0.497206
1175.000000	0.497101
1176.000000	0.496927
1177.000000	0.496833
1178.000000	0.496738
1179.000000	0.496584
1180.000000	0.496347
1181.000000	0.496222
1182.000000	0.496078
1183.000000	0.495816
1184.000000	0.495706
1185.000000	0.495633
1186.000000	0.495593
1187.000000	0.495497
1188.000000	0.495531
1189.000000	0.495352
1190.000000	0.495101
1191.000000	0.494896
1192.000000	0.494670
1193.000000	0.494744
1194.000000	0.494840
1195.000000	0.494835
1196.000000	0.494868
1197.000000	0.494852
1198.000000	0.494739
1199.000000	0.494668
1200.000000	0.494644
1201.000000	0.494501
1202.000000	0.494497
1203.000000	0.494514
1204.000000	0.494330
1205.000000	0.494339
1206.000000	0.494301
1207.000000	0.494363
1208.000000	0.494219
1209.000000	0.494165
1210.000000	0.494096
1211.000000	0.493797
1212.000000	0.493697
1213.000000	0.493976
1214.000000	0.493960
1215.000000	0.493659
1216.000000	0.493604
1217.000000	0.493523
1218.000000	0.493452
1219.000000	0.493542
1220.000000	0.493742
1221.000000	0.493766
1222.000000	0.493574
1223.000000	0.493474
1224.000000	0.493393
1225.000000	0.493261
1226.000000	0.493387
1227.000000	0.493309
1228.000000	0.493207
1229.000000	0.493125
1230.000000	0.492944
1231.000000	0.492756
1232.000000	0.492813
1233.000000	0.492898
1234.000000	0.492908
1235.000000	0.492963
1236.000000	0.492952
1237.000000	0.493043
1238.000000	0.493177
1239.000000	0.493157
1240.000000	0.493039
1241.000000	0.493036
1242.000000	0.493053
1243.000000	0.492991
1244.000000	0.492971
1245.000000	0.492986
1246.000000	0.492859
1247.000000	0.492955
1248.000000	0.493118
1249.000000	0.493135
1250.000000	0.493055
1251.000000	0.492955
1252.000000	0.492928
1253.000000	0.493021
1254.000000	0.493012
1255.000000	0.492996
1256.000000	0.492972
1257.000000	0.492919
1258.000000	0.492969
1259.000000	0.492933
1260.000000	0.493034
1261.000000	0.493178
1262.000000	0.493267
1263.000000	0.493440
1264.000000	0.493551
1265.000000	0.493635
1266.000000	0.493433
1267.000000	0.493378
1268.000000	0.493483
1269.000000	0.493324
1270.000000	0.493309
1271.000000	0.493270
1272.000000	0.493182
1273.000000	0.493228
1274.000000	0.493229
1275.000000	0.493167
1276.000000	0.493066
1277.000000	0.493040
1278.000000	0.492861
1279.000000	0.492762
1280.000000	0.492516
1281.000000	0.492414
1282.000000	0.492538
1283.000000	0.492683
1284.000000	0.492855
1285.000000	0.492976
1286.000000	0.493052
1287.000000	0.493008
1288.000000	0.493153
1289.000000	0.493222
1290.000000	0.493144
1291.000000	0.493156
1292.000000	0.493096
1293.000000	0.492911
1294.000000	0.492874
1295.000000	0.492926
1296.000000	0.492907
1297.000000	0.492929
1298.000000	0.492870
1299.000000	0.492667
1300.000000	0.492440
1301.000000	0.492247
1302.000000	0.492037
1303.000000	0.492002
1304.000000	0.491913
1305.000000	0.492067
1306.000000	0.491908
1307.000000	0.491699
1308.000000	0.491528
1309.000000	0.491171
1310.000000	0.490929
1311.000000	0.490847
1312.000000	0.490583
1313.000000	0.490253
1314.000000	0.490045
1315.000000	0.489825
1316.000000	0.489677
1317.000000	0.489596
1318.000000	0.489389
1319.000000	0.489180
1320.000000	0.489028
1321.000000	0.488693
1322.000000	0.488442
1323.000000	0.488204
1324.000000	0.487740
1325.000000	0.487258
1326.000000	0.486772
1327.000000	0.486252
1328.000000	0.485919
1329.000000	0.485458
1330.000000	0.485054
1331.000000	0.484684
1332.000000	0.484371
1333.000000	0.484006
1334.000000	0.483816
1335.000000	0.483477
1336.000000	0.482958
1337.000000	0.482527
1338.000000	0.482000
1339.000000	0.481531
1340.000000	0.481273
1341.000000	0.480789
1342.000000	0.480124
1343.000000	0.479804
1344.000000	0.479364
1345.000000	0.478811
1346.000000	0.478621
1347.000000	0.478167
1348.000000	0.477601
1349.000000	0.477111
1350.000000	0.476623
1351.000000	0.476016
1352.000000	0.475489
1353.000000	0.474944
1354.000000	0.474512
1355.000000	0.474188
1356.000000	0.473730
1357.000000	0.473161
1358.000000	0.472452
1359.000000	0.471684
1360.000000	0.471097
1361.000000	0.470735
1362.000000	0.470213
1363.000000	0.469690
1364.000000	0.469230
1365.000000	0.468712
1366.000000	0.468189
1367.000000	0.467764
1368.000000	0.467088
1369.000000	0.466644
1370.000000	0.466032
1371.000000	0.465134
1372.000000	0.464576
1373.000000	0.463934
1374.000000	0.463058
1375.000000	0.462443
1376.000000	0.461735
1377.000000	0.460515
1378.000000	0.459103
1379.000000	0.457388
1380.000000	0.455314
1381.000000	0.453194
1382.000000	0.451044
1383.000000	0.448775
1384.000000	0.446340
1385.000000	0.443842
1386.000000	0.441500
1387.000000	0.439293
1388.000000	0.437314
1389.000000	0.435519
1390.000000	0.433832
1391.000000	0.432499
1392.000000	0.431635
1393.000000	0.430773
1394.000000	0.430403
1395.000000	0.429644
1396.000000	0.428858
1397.000000	0.427838
1398.000000	0.426670
1399.000000	0.425345
1400.000000	0.423809
1401.000000	0.422093
1402.000000	0.420234
1403.000000	0.418285
1404.000000	0.416342
1405.000000	0.414228
1406.000000	0.412028
1407.000000	0.409917
1408.000000	0.407725
1409.000000	0.405737
1410.000000	0.403813
1411.000000	0.401626
1412.000000	0.399413
1413.000000	0.397228
1414.000000	0.395063
1415.000000	0.392970
1416.000000	0.390879
1417.000000	0.388975
1418.000000	0.386991
1419.000000	0.385033
1420.000000	0.383242
1421.000000	0.381430
1422.000000	0.379643
1423.000000	0.378064
1424.000000	0.376234
1425.000000	0.374494
1426.000000	0.372825
1427.000000	0.371042
1428.000000	0.369451
1429.000000	0.367910
1430.000000	0.366354
1431.000000	0.364978
1432.000000	0.363648
1433.000000	0.362535
1434.000000	0.361182
1435.000000	0.359847
1436.000000	0.358596
1437.000000	0.357217
1438.000000	0.355954
1439.000000	0.354899
1440.000000	0.353751
1441.000000	0.352641
1442.000000	0.351609
1443.000000	0.350520
1444.000000	0.349430
1445.000000	0.348572
1446.000000	0.347557
1447.000000	0.346515
1448.000000	0.345662
1449.000000	0.344787
1450.000000	0.343823
1451.000000	0.343038
1452.000000	0.342339
1453.000000	0.341618
1454.000000	0.340995
1455.000000	0.340414
1456.000000	0.339954
1457.000000	0.339653
1458.000000	0.339242
1459.000000	0.338761
1460.000000	0.338328
1461.000000	0.337874
1462.000000	0.337497
1463.000000	0.337122
1464.000000	0.336773
1465.000000	0.336508
1466.000000	0.336272
1467.000000	0.336216
1468.000000	0.336210
1469.000000	0.336216
1470.000000	0.336176
1471.000000	0.336123
1472.000000	0.336156
1473.000000	0.336362
1474.000000	0.336590
1475.000000	0.336980
1476.000000	0.337567
1477.000000	0.338182
1478.000000	0.338730
1479.000000	0.339215
1480.000000	0.339750
1481.000000	0.340293
1482.000000	0.340870
1483.000000	0.341528
1484.000000	0.342238
1485.000000	0.342981
1486.000000	0.343799
1487.000000	0.344530
1488.000000	0.345346
1489.000000	0.346041
1490.000000	0.346386
1491.000000	0.347055
1492.000000	0.347763
1493.000000	0.348496
1494.000000	0.349407
1495.000000	0.350142
1496.000000	0.350755
1497.000000	0.351451
1498.000000	0.352167
1499.000000	0.352819
1500.000000	0.353540
1501.000000	0.354171
1502.000000	0.354768
1503.000000	0.355400
1504.000000	0.356101
1505.000000	0.356831
1506.000000	0.357370
1507.000000	0.357830
1508.000000	0.358298
1509.000000	0.358784
1510.000000	0.359349
1511.000000	0.359932
1512.000000	0.360382
1513.000000	0.360679
1514.000000	0.361045
1515.000000	0.361476
1516.000000	0.361956
1517.000000	0.362307
1518.000000	0.362565
1519.000000	0.362847
1520.000000	0.363183
1521.000000	0.363482
1522.000000	0.363771
1523.000000	0.364015
1524.000000	0.364107
1525.000000	0.364292
1526.000000	0.364602
1527.000000	0.364880
1528.000000	0.365093
1529.000000	0.365274
1530.000000	0.365354
1531.000000	0.365475
1532.000000	0.365764
1533.000000	0.365970
1534.000000	0.366088
1535.000000	0.366332
1536.000000	0.366489
1537.000000	0.366722
1538.000000	0.367054
1539.000000	0.367139
1540.000000	0.367113
1541.000000	0.367186
1542.000000	0.367321
1543.000000	0.367484
1544.000000	0.367583
1545.000000	0.367669
1546.000000	0.367697
1547.000000	0.367686
1548.000000	0.367872
1549.000000	0.368046
1550.000000	0.367960
1551.000000	0.367909
1552.000000	0.367938
1553.000000	0.367954
1554.000000	0.368147
1555.000000	0.368374
1556.000000	0.368469
1557.000000	0.368490
1558.000000	0.368493
1559.000000	0.368336
1560.000000	0.368267
1561.000000	0.368258
1562.000000	0.368168
1563.000000	0.368140
1564.000000	0.368114
1565.000000	0.368010
1566.000000	0.367887
1567.000000	0.367891
1568.000000	0.367830
1569.000000	0.367811
1570.000000	0.367814
1571.000000	0.367785
1572.000000	0.367781
1573.000000	0.367809
1574.000000	0.367820
1575.000000	0.367927
1576.000000	0.367935
1577.000000	0.367861
1578.000000	0.367780
1579.000000	0.367619
1580.000000	0.367630
1581.000000	0.367859
1582.000000	0.367960
1583.000000	0.368142
1584.000000	0.368124
1585.000000	0.368013
1586.000000	0.367958
1587.000000	0.367824
1588.000000	0.367786
1589.000000	0.367794
1590.000000	0.367881
1591.000000	0.368115
1592.000000	0.368212
1593.000000	0.368384
1594.000000	0.368414
1595.000000	0.368296
1596.000000	0.368330
1597.000000	0.368444
1598.000000	0.368464
1599.000000	0.368537
1600.000000	0.368558
1601.000000	0.368548
1602.000000	0.368659
1603.000000	0.368935
1604.000000	0.369013
1605.000000	0.369069
1606.000000	0.369132
1607.000000	0.369079
1608.000000	0.369203
1609.000000	0.369608
1610.000000	0.369756
1611.000000	0.369855
1612.000000	0.369998
1613.000000	0.370125
1614.000000	0.370235
1615.000000	0.370506
1616.000000	0.370716
1617.000000	0.370797
1618.000000	0.370941
1619.000000	0.371061
1620.000000	0.371242
1621.000000	0.371448
1622.000000	0.371785
1623.000000	0.372227
1624.000000	0.372570
1625.000000	0.372763
1626.000000	0.373022
1627.000000	0.373295
1628.000000	0.373608
1629.000000	0.373964
1630.000000	0.374327
1631.000000	0.374594
1632.000000	0.374878
1633.000000	0.375220
1634.000000	0.375524
1635.000000	0.375856
1636.000000	0.376169
1637.000000	0.376441
1638.000000	0.376835
1639.000000	0.377384
1640.000000	0.377796
1641.000000	0.378323
1642.000000	0.378744
1643.000000	0.379084
1644.000000	0.379421
1645.000000	0.379768
1646.000000	0.380029
1647.000000	0.380219
1648.000000	0.380460
1649.000000	0.380783
1650.000000	0.381139
1651.000000	0.381615
1652.000000	0.381991
1653.000000	0.382250
1654.000000	0.382665
1655.000000	0.383071
1656.000000	0.383318
1657.000000	0.383680
1658.000000	0.383983
1659.000000	0.384213
1660.000000	0.384611
1661.000000	0.385084
1662.000000	0.385437
1663.000000	0.385699
1664.000000	0.386041
1665.000000	0.386329
1666.000000	0.386828
1667.000000	0.387391
1668.000000	0.387882
1669.000000	0.388424
1670.000000	0.388786
1671.000000	0.389178
1672.000000	0.389578
1673.000000	0.389846
1674.000000	0.390291
1675.000000	0.390733
1676.000000	0.391097
1677.000000	0.391400
1678.000000	0.391580
1679.000000	0.391702
1680.000000	0.391967
1681.000000	0.392397
1682.000000	0.392795
1683.000000	0.393250
1684.000000	0.393578
1685.000000	0.393803
1686.000000	0.393948
1687.000000	0.394024
1688.000000	0.394143
1689.000000	0.394272
1690.000000	0.394339
1691.000000	0.394628
1692.000000	0.394993
1693.000000	0.395254
1694.000000	0.395589
1695.000000	0.395936
1696.000000	0.395904
1697.000000	0.395940
1698.000000	0.395975
1699.000000	0.396111
1700.000000	0.396390
1701.000000	0.396653
1702.000000	0.396755
1703.000000	0.396795
1704.000000	0.396803
1705.000000	0.396883
1706.000000	0.397005
1707.000000	0.397174
1708.000000	0.397465
1709.000000	0.397558
1710.000000	0.397612
1711.000000	0.397801
1712.000000	0.398020
1713.000000	0.398179
1714.000000	0.398463
1715.000000	0.398764
1716.000000	0.398993
1717.000000	0.399278
1718.000000	0.399700
1719.000000	0.399937
1720.000000	0.400100
1721.000000	0.400314
1722.000000	0.400434
1723.000000	0.400717
1724.000000	0.401223
1725.000000	0.401542
1726.000000	0.401723
1727.000000	0.401949
1728.000000	0.401989
1729.000000	0.402074
1730.000000	0.402412
1731.000000	0.402639
1732.000000	0.402814
1733.000000	0.403067
1734.000000	0.403213
1735.000000	0.403335
1736.000000	0.403326
1737.000000	0.403524
1738.000000	0.403781
1739.000000	0.404092
1740.000000	0.404583
1741.000000	0.404843
1742.000000	0.405018
1743.000000	0.405312
1744.000000	0.405557
1745.000000	0.405773
1746.000000	0.406014
1747.000000	0.406331
1748.000000	0.406442
1749.000000	0.406478
1750.000000	0.406509
1751.000000	0.406473
1752.000000	0.406656
1753.000000	0.406886
1754.000000	0.407054
1755.000000	0.407160
1756.000000	0.407289
1757.000000	0.407304
1758.000000	0.407528
1759.000000	0.407984
1760.000000	0.408253
1761.000000	0.408501
1762.000000	0.408698
1763.000000	0.408757
1764.000000	0.408858
1765.000000	0.408975
1766.000000	0.409051
1767.000000	0.408828
1768.000000	0.408908
1769.000000	0.409363
1770.000000	0.409589
1771.000000	0.409849
1772.000000	0.409997
1773.000000	0.409719
1774.000000	0.409899
1775.000000	0.410555
1776.000000	0.410706
1777.000000	0.410748
1778.000000	0.410761
1779.000000	0.410343
1780.000000	0.410428
1781.000000	0.410767
1782.000000	0.411029
1783.000000	0.411455
1784.000000	0.412081
1785.000000	0.412296
1786.000000	0.412410
1787.000000	0.412680
1788.000000	0.412729
1789.000000	0.412843
1790.000000	0.413388
1791.000000	0.413748
1792.000000	0.414307
1793.000000	0.414734
1794.000000	0.415096
1795.000000	0.415398
1796.000000	0.415590
1797.000000	0.415726
1798.000000	0.415612
1799.000000	0.415743
1800.000000	0.416100
1801.000000	0.415397
1802.000000	0.415728
1803.000000	0.416329
1804.000000	0.417198
1805.000000	0.419327
1806.000000	0.420317
1807.000000	0.421289
1808.000000	0.421621
1809.000000	0.421178
1810.000000	0.420512
1811.000000	0.420275
1812.000000	0.419815
1813.000000	0.419743
1814.000000	0.420351
1815.000000	0.420307
1816.000000	0.419733
1817.000000	0.419576
1818.000000	0.419473
1819.000000	0.419589
1820.000000	0.420001
1821.000000	0.420488
1822.000000	0.420722
1823.000000	0.420594
1824.000000	0.420625
1825.000000	0.420720
1826.000000	0.420575
1827.000000	0.419998
1828.000000	0.419693
1829.000000	0.419417
1830.000000	0.419678
1831.000000	0.419699
1832.000000	0.420025
1833.000000	0.420308
1834.000000	0.420736
1835.000000	0.420553
1836.000000	0.420207
1837.000000	0.419625
1838.000000	0.418116
1839.000000	0.416902
1840.000000	0.416021
1841.000000	0.415412
1842.000000	0.414761
1843.000000	0.414174
1844.000000	0.413548
1845.000000	0.412860
1846.000000	0.412353
1847.000000	0.411665
1848.000000	0.411230
1849.000000	0.410852
1850.000000	0.409967
1851.000000	0.409198
1852.000000	0.407951
1853.000000	0.407478
1854.000000	0.407605
1855.000000	0.406666
1856.000000	0.405502
1857.000000	0.404260
1858.000000	0.402302
1859.000000	0.399728
1860.000000	0.397757
1861.000000	0.395890
1862.000000	0.393703
1863.000000	0.391487
1864.000000	0.389389
1865.000000	0.387094
1866.000000	0.384746
1867.000000	0.382498
1868.000000	0.379908
1869.000000	0.377188
1870.000000	0.374664
1871.000000	0.371806
1872.000000	0.368124
1873.000000	0.364331
1874.000000	0.359849
1875.000000	0.355619
1876.000000	0.350968
1877.000000	0.346328
1878.000000	0.341582
1879.000000	0.337287
1880.000000	0.333128
1881.000000	0.329109
1882.000000	0.324943
1883.000000	0.320095
1884.000000	0.315215
1885.000000	0.309927
1886.000000	0.304041
1887.000000	0.297647
1888.000000	0.291138
1889.000000	0.284218
1890.000000	0.278207
1891.000000	0.272696
1892.000000	0.267218
1893.000000	0.261794
1894.000000	0.255837
1895.000000	0.250121
1896.000000	0.244453
1897.000000	0.239123
1898.000000	0.233499
1899.000000	0.228339
1900.000000	0.223548
1901.000000	0.218558
1902.000000	0.213094
1903.000000	0.208533
1904.000000	0.204550
1905.000000	0.200227
1906.000000	0.196173
1907.000000	0.193034
1908.000000	0.189271
1909.000000	0.185220
1910.000000	0.182058
1911.000000	0.179026
1912.000000	0.176663
1913.000000	0.174798
1914.000000	0.172587
1915.000000	0.170185
1916.000000	0.167774
1917.000000	0.165548
1918.000000	0.163280
1919.000000	0.160979
1920.000000	0.158833
1921.000000	0.157522
1922.000000	0.156382
1923.000000	0.155575
1924.000000	0.155261
1925.000000	0.155062
1926.000000	0.154604
1927.000000	0.154312
1928.000000	0.154239
1929.000000	0.154755
1930.000000	0.154418
1931.000000	0.153845
1932.000000	0.153473
1933.000000	0.152475
1934.000000	0.152161
1935.000000	0.152313
1936.000000	0.152446
1937.000000	0.152542
1938.000000	0.152287
1939.000000	0.152149
1940.000000	0.152064
1941.000000	0.151730
1942.000000	0.151372
1943.000000	0.151552
1944.000000	0.151595
1945.000000	0.151359
1946.000000	0.151336
1947.000000	0.150958
1948.000000	0.150428
1949.000000	0.149989
1950.000000	0.149544
1951.000000	0.149045
1952.000000	0.148604
1953.000000	0.147736
1954.000000	0.147509
1955.000000	0.147250
1956.000000	0.146574
1957.000000	0.146348
1958.000000	0.145341
1959.000000	0.144322
1960.000000	0.143791
1961.000000	0.143471
1962.000000	0.143413
1963.000000	0.143830
1964.000000	0.144421
1965.000000	0.144989
1966.000000	0.145308
1967.000000	0.145186
1968.000000	0.145055
1969.000000	0.145060
1970.000000	0.144362
1971.000000	0.144404
1972.000000	0.144564
1973.000000	0.144394
1974.000000	0.144113
1975.000000	0.144282
1976.000000	0.144419
1977.000000	0.144672
1978.000000	0.145314
1979.000000	0.145398
1980.000000	0.146090
1981.000000	0.146698
1982.000000	0.147253
1983.000000	0.147937
1984.000000	0.148375
1985.000000	0.148358
1986.000000	0.148993
1987.000000	0.149771
1988.000000	0.150867
1989.000000	0.152238
1990.000000	0.152749
1991.000000	0.153017
1992.000000	0.153390
1993.000000	0.153642
1994.000000	0.154269
1995.000000	0.154893
1996.000000	0.155559
1997.000000	0.156400
1998.000000	0.157346
1999.000000	0.158338
2000.000000	0.159476
2001.000000	0.160816
2002.000000	0.161895
2003.000000	0.163522
2004.000000	0.165265
2005.000000	0.166289
2006.000000	0.167596
2007.000000	0.169501
2008.000000	0.170961
2009.000000	0.172498
2010.000000	0.173570
2011.000000	0.174090
2012.000000	0.174696
2013.000000	0.174733
2014.000000	0.175311
2015.000000	0.176545
2016.000000	0.177660
2017.000000	0.179416
2018.000000	0.181526
2019.000000	0.183412
2020.000000	0.185257
2021.000000	0.186601
2022.000000	0.187316
2023.000000	0.188266
2024.000000	0.188959
2025.000000	0.189804
2026.000000	0.190409
2027.000000	0.191595
2028.000000	0.192862
2029.000000	0.194796
2030.000000	0.197267
2031.000000	0.199321
2032.000000	0.200972
2033.000000	0.201844
2034.000000	0.202776
2035.000000	0.203088
2036.000000	0.204020
2037.000000	0.205280
2038.000000	0.206464
2039.000000	0.207995
2040.000000	0.209132
2041.000000	0.210222
2042.000000	0.211576
2043.000000	0.212722
2044.000000	0.214157
2045.000000	0.215288
2046.000000	0.216455
2047.000000	0.217588
2048.000000	0.218472
2049.000000	0.219603
2050.000000	0.220698
2051.000000	0.221706
2052.000000	0.222516
2053.000000	0.223549
2054.000000	0.224896
2055.000000	0.226090
2056.000000	0.227376
2057.000000	0.228814
2058.000000	0.230131
2059.000000	0.230945
2060.000000	0.231861
2061.000000	0.232688
2062.000000	0.233602
2063.000000	0.234621
2064.000000	0.235424
2065.000000	0.236407
2066.000000	0.237193
2067.000000	0.237960
2068.000000	0.238516
2069.000000	0.239802
2070.000000	0.240671
2071.000000	0.241745
2072.000000	0.243141
2073.000000	0.243503
2074.000000	0.244059
2075.000000	0.245154
2076.000000	0.246387
2077.000000	0.247655
2078.000000	0.249819
2079.000000	0.251019
2080.000000	0.251305
2081.000000	0.252338
2082.000000	0.253468
2083.000000	0.254878
2084.000000	0.255618
2085.000000	0.256502
2086.000000	0.257467
2087.000000	0.258476
2088.000000	0.260641
2089.000000	0.262886
2090.000000	0.264338
2091.000000	0.265021
2092.000000	0.266316
2093.000000	0.267375
2094.000000	0.268943
2095.000000	0.271748
2096.000000	0.273126
2097.000000	0.274118
2098.000000	0.274258
2099.000000	0.273789
2100.000000	0.274067
2101.000000	0.275045
2102.000000	0.276314
2103.000000	0.277469
2104.000000	0.278808
2105.000000	0.280002
2106.000000	0.281077
2107.000000	0.281987
2108.000000	0.282943
2109.000000	0.283745
2110.000000	0.283990
2111.000000	0.284584
2112.000000	0.285417
2113.000000	0.285586
2114.000000	0.285847
2115.000000	0.286332
2116.000000	0.286466
2117.000000	0.286931
2118.000000	0.287317
2119.000000	0.287686
2120.000000	0.288471
2121.000000	0.289497
2122.000000	0.290316
2123.000000	0.291630
2124.000000	0.292337
2125.000000	0.292490
2126.000000	0.292987
2127.000000	0.293365
2128.000000	0.294022
2129.000000	0.295099
2130.000000	0.295722
2131.000000	0.295666
2132.000000	0.295991
2133.000000	0.295790
2134.000000	0.296082
2135.000000	0.297314
2136.000000	0.297616
2137.000000	0.298478
2138.000000	0.299932
2139.000000	0.300751
2140.000000	0.301532
2141.000000	0.302062
2142.000000	0.302064
2143.000000	0.301962
2144.000000	0.301610
2145.000000	0.301799
2146.000000	0.302197
2147.000000	0.302807
2148.000000	0.303892
2149.000000	0.305271
2150.000000	0.305689
2151.000000	0.305576
2152.000000	0.305452
2153.000000	0.305029
2154.000000	0.304993
2155.000000	0.305463
2156.000000	0.305668
2157.000000	0.305940
2158.000000	0.305998
2159.000000	0.305951
2160.000000	0.306199
2161.000000	0.306173
2162.000000	0.306572
2163.000000	0.307579
2164.000000	0.307883
2165.000000	0.308180
2166.000000	0.308273
2167.000000	0.306986
2168.000000	0.306726
2169.000000	0.306572
2170.000000	0.306441
2171.000000	0.306619
2172.000000	0.307599
2173.000000	0.307553
2174.000000	0.306830
2175.000000	0.306750
2176.000000	0.306954
2177.000000	0.306989
2178.000000	0.307199
2179.000000	0.307733
2180.000000	0.308412
2181.000000	0.308268
2182.000000	0.307503
2183.000000	0.306703
2184.000000	0.304756
2185.000000	0.304013
2186.000000	0.304171
2187.000000	0.304879
2188.000000	0.305539
2189.000000	0.306042
2190.000000	0.306107
2191.000000	0.306540
2192.000000	0.306375
2193.000000	0.305199
2194.000000	0.304942
2195.000000	0.305027
2196.000000	0.304644
2197.000000	0.304645
2198.000000	0.304666
2199.000000	0.303762
2200.000000	0.304404
2201.000000	0.306789
2202.000000	0.307682
2203.000000	0.308636
2204.000000	0.309056
2205.000000	0.307948
2206.000000	0.308025
2207.000000	0.305295
2208.000000	0.303623
2209.000000	0.302324
2210.000000	0.299494
2211.000000	0.302533
2212.000000	0.305663
2213.000000	0.306370
2214.000000	0.306911
2215.000000	0.306997
2216.000000	0.304470
2217.000000	0.303300
2218.000000	0.302933
2219.000000	0.302596
2220.000000	0.301539
2221.000000	0.301825
2222.000000	0.303343
2223.000000	0.304345
2224.000000	0.305817
2225.000000	0.306971
2226.000000	0.308438
2227.000000	0.307809
2228.000000	0.306400
2229.000000	0.304600
2230.000000	0.301905
2231.000000	0.300936
2232.000000	0.300672
2233.000000	0.301549
2234.000000	0.303187
2235.000000	0.303572
2236.000000	0.303271
2237.000000	0.302042
2238.000000	0.301419
2239.000000	0.299732
2240.000000	0.299728
2241.000000	0.300685
2242.000000	0.301377
2243.000000	0.302994
2244.000000	0.303920
2245.000000	0.304852
2246.000000	0.305904
2247.000000	0.306678
2248.000000	0.306785
2249.000000	0.307308
2250.000000	0.306056
2251.000000	0.303588
2252.000000	0.304061
2253.000000	0.304695
2254.000000	0.305022
2255.000000	0.305479
2256.000000	0.305484
2257.000000	0.304626
2258.000000	0.302655
2259.000000	0.302198
2260.000000	0.301172
2261.000000	0.299613
2262.000000	0.297419
2263.000000	0.297084
2264.000000	0.296622
2265.000000	0.296909
2266.000000	0.299045
2267.000000	0.300494
2268.000000	0.301930
2269.000000	0.303134
2270.000000	0.306013
2271.000000	0.305425
2272.000000	0.302290
2273.000000	0.299891
2274.000000	0.293462
2275.000000	0.291768
2276.000000	0.292602
2277.000000	0.294622
2278.000000	0.296896
2279.000000	0.298269
2280.000000	0.298093
2281.000000	0.295625
2282.000000	0.293352
2283.000000	0.290673
2284.000000	0.287342
2285.000000	0.284993
2286.000000	0.281312
2287.000000	0.279425
2288.000000	0.278208
2289.000000	0.275901
2290.000000	0.275140
2291.000000	0.274256
2292.000000	0.273496
2293.000000	0.273715
2294.000000	0.273593
2295.000000	0.274087
2296.000000	0.274189
2297.000000	0.273705
2298.000000	0.273159
2299.000000	0.273906
2300.000000	0.272077
2301.000000	0.268538
2302.000000	0.265451
2303.000000	0.259242
2304.000000	0.256035
2305.000000	0.255642
2306.000000	0.254468
2307.000000	0.253661
2308.000000	0.253559
2309.000000	0.254359
2310.000000	0.250603
2311.000000	0.248808
2312.000000	0.249384
2313.000000	0.247252
2314.000000	0.248193
2315.000000	0.248336
2316.000000	0.246251
2317.000000	0.245302
2318.000000	0.243486
2319.000000	0.243192
2320.000000	0.243813
2321.000000	0.243575
2322.000000	0.243678
2323.000000	0.241196
2324.000000	0.237597
2325.000000	0.237684
2326.000000	0.236979
2327.000000	0.235788
2328.000000	0.238565
2329.000000	0.240085
2330.000000	0.237180
2331.000000	0.235307
2332.000000	0.232776
2333.000000	0.228754
2334.000000	0.226876
2335.000000	0.226134
2336.000000	0.227122
2337.000000	0.227653
2338.000000	0.229936
2339.000000	0.230137
2340.000000	0.229752
2341.000000	0.227613
2342.000000	0.222849
2343.000000	0.218820
2344.000000	0.213536
2345.000000	0.211068
2346.000000	0.210618
2347.000000	0.208559
2348.000000	0.208096
2349.000000	0.204122
2350.000000	0.199658
2351.000000	0.198643
2352.000000	0.200862
2353.000000	0.205202
2354.000000	0.206218
2355.000000	0.207023
2356.000000	0.205475
2357.000000	0.201219
2358.000000	0.201106
2359.000000	0.200376
2360.000000	0.200134
2361.000000	0.200980
2362.000000	0.198719
2363.000000	0.195344
2364.000000	0.189327
2365.000000	0.184477
2366.000000	0.183160
2367.000000	0.183259
2368.000000	0.185022
2369.000000	0.185666
2370.000000	0.182272
2371.000000	0.176771
2372.000000	0.174112
2373.000000	0.172820
2374.000000	0.173326
2375.000000	0.175409
2376.000000	0.174832
2377.000000	0.172749
2378.000000	0.169124
2379.000000	0.165177
2380.000000	0.159701
2381.000000	0.157093
2382.000000	0.159215
2383.000000	0.161758
2384.000000	0.167438
2385.000000	0.168912
2386.000000	0.165656
2387.000000	0.160793
2388.000000	0.153720
2389.000000	0.147455
2390.000000	0.144021
2391.000000	0.145304
2392.000000	0.146773
2393.000000	0.148591
2394.000000	0.147819
2395.000000	0.143573
2396.000000	0.141489
2397.000000	0.142118
2398.000000	0.150027
2399.000000	0.156331
2400.000000	0.157345
2401.000000	0.158941
2402.000000	0.151582
2403.000000	0.143147
2404.000000	0.141978
2405.000000	0.142781
2406.000000	0.146709
2407.000000	0.147594
2408.000000	0.146523
2409.000000	0.146254
2410.000000	0.139779
2411.000000	0.140321
2412.000000	0.142114
2413.000000	0.137732
2414.000000	0.143434
2415.000000	0.145231
2416.000000	0.144015
2417.000000	0.143035
2418.000000	0.136619
2419.000000	0.133263
2420.000000	0.133008
2421.000000	0.139434
2422.000000	0.145242
2423.000000	0.140436
2424.000000	0.130777
2425.000000	0.123518
2426.000000	0.105758
2427.000000	0.090022
2428.000000	0.094065
2429.000000	0.095476
2430.000000	0.105710
2431.000000	0.124451
2432.000000	0.130587
2433.000000	0.134573
2434.000000	0.134822
2435.000000	0.136409
2436.000000	0.137404
2437.000000	0.126149
2438.000000	0.112114
2439.000000	0.094059
2440.000000	0.086882
2441.000000	0.093155
2442.000000	0.099876
2443.000000	0.112375
2444.000000	0.117749
2445.000000	0.115999
2446.000000	0.117074
2447.000000	0.121313
2448.000000	0.128080
2449.000000	0.133960
2450.000000	0.140774
2451.000000	0.134528
2452.000000	0.122036
2453.000000	0.106582
2454.000000	0.082152
2455.000000	0.086794
2456.000000	0.087905
2457.000000	0.075250
2458.000000	0.080179
2459.000000	0.066236
2460.000000	0.057499
2461.000000	0.069819
2462.000000	0.069479
2463.000000	0.071235
2464.000000	0.076112
2465.000000	0.063074
2466.000000	0.064931
2467.000000	0.080687
2468.000000	0.073422
2469.000000	0.082855
2470.000000	0.094543
2471.000000	0.092651
2472.000000	0.120380
2473.000000	0.137132
2474.000000	0.133341
2475.000000	0.135777
2476.000000	0.109415
2477.000000	0.089938
2478.000000	0.086679
2479.000000	0.071141
2480.000000	0.074726
2481.000000	0.056757
2482.000000	0.053569
2483.000000	0.068709
2484.000000	0.034879
2485.000000	0.029322
2486.000000	0.021683
2487.000000	-0.015252
2488.000000	0.008624
2489.000000	0.018050
2490.000000	0.004122
2491.000000	-0.020627
2492.000000	-0.039868
2493.000000	-0.070226
2494.000000	-0.081799
2495.000000	-0.051856
2496.000000	-0.047631
2497.000000	-0.026857
2498.000000	-0.053584
2499.000000	-0.162364
2500.000000	-0.193994
