# Wavelength	SM1200H-40_HEX-40_FV7-20_00001.asd.rts.txt
350.000000	0.313136
351.000000	0.344831
352.000000	0.341170
353.000000	0.333013
354.000000	0.338530
355.000000	0.332487
356.000000	0.328614
357.000000	0.333126
358.000000	0.342976
359.000000	0.342778
360.000000	0.337369
361.000000	0.335899
362.000000	0.343350
363.000000	0.344464
364.000000	0.334301
365.000000	0.338897
366.000000	0.342277
367.000000	0.339415
368.000000	0.334417
369.000000	0.335880
370.000000	0.338880
371.000000	0.335900
372.000000	0.335139
373.000000	0.336932
374.000000	0.340427
375.000000	0.341571
376.000000	0.340951
377.000000	0.340681
378.000000	0.345226
379.000000	0.346919
380.000000	0.345683
381.000000	0.345155
382.000000	0.345788
383.000000	0.344338
384.000000	0.340622
385.000000	0.342274
386.000000	0.346625
387.000000	0.350643
388.000000	0.349931
389.000000	0.347441
390.000000	0.346258
391.000000	0.348508
392.000000	0.349014
393.000000	0.348457
394.000000	0.348217
395.000000	0.349005
396.000000	0.350076
397.000000	0.350801
398.000000	0.350530
399.000000	0.352165
400.000000	0.354254
401.000000	0.353478
402.000000	0.353561
403.000000	0.354155
404.000000	0.354538
405.000000	0.354358
406.000000	0.354980
407.000000	0.356404
408.000000	0.355981
409.000000	0.355880
410.000000	0.356351
411.000000	0.356588
412.000000	0.357160
413.000000	0.358069
414.000000	0.359097
415.000000	0.359384
416.000000	0.359205
417.000000	0.359046
418.000000	0.359711
419.000000	0.360580
420.000000	0.361146
421.000000	0.360853
422.000000	0.361446
423.000000	0.362359
424.000000	0.362568
425.000000	0.363110
426.000000	0.363513
427.000000	0.363501
428.000000	0.364169
429.000000	0.364403
430.000000	0.364079
431.000000	0.364358
432.000000	0.364593
433.000000	0.364828
434.000000	0.365470
435.000000	0.365251
436.000000	0.365127
437.000000	0.365962
438.000000	0.366345
439.000000	0.366563
440.000000	0.366886
441.000000	0.366846
442.000000	0.366919
443.000000	0.367253
444.000000	0.368039
445.000000	0.368180
446.000000	0.368245
447.000000	0.368832
448.000000	0.369132
449.000000	0.369523
450.000000	0.370146
451.000000	0.370017
452.000000	0.370186
453.000000	0.370696
454.000000	0.370780
455.000000	0.370904
456.000000	0.371271
457.000000	0.371718
458.000000	0.372121
459.000000	0.372595
460.000000	0.373213
461.000000	0.373282
462.000000	0.373430
463.000000	0.373716
464.000000	0.373926
465.000000	0.373936
466.000000	0.373926
467.000000	0.374498
468.000000	0.374650
469.000000	0.374589
470.000000	0.374984
471.000000	0.375244
472.000000	0.375441
473.000000	0.375695
474.000000	0.375908
475.000000	0.376059
476.000000	0.376326
477.000000	0.376601
478.000000	0.376787
479.000000	0.377032
480.000000	0.377084
481.000000	0.377315
482.000000	0.377721
483.000000	0.377954
484.000000	0.378422
485.000000	0.378656
486.000000	0.378765
487.000000	0.379061
488.000000	0.379428
489.000000	0.379783
490.000000	0.380003
491.000000	0.380243
492.000000	0.380618
493.000000	0.380979
494.000000	0.381080
495.000000	0.381349
496.000000	0.381913
497.000000	0.382144
498.000000	0.382364
499.000000	0.382753
500.000000	0.383045
501.000000	0.383306
502.000000	0.383584
503.000000	0.383804
504.000000	0.384186
505.000000	0.384551
506.000000	0.384750
507.000000	0.385097
508.000000	0.385413
509.000000	0.385614
510.000000	0.386091
511.000000	0.386438
512.000000	0.386659
513.000000	0.386990
514.000000	0.387312
515.000000	0.387679
516.000000	0.388070
517.000000	0.388297
518.000000	0.388543
519.000000	0.388838
520.000000	0.389148
521.000000	0.389451
522.000000	0.389764
523.000000	0.390153
524.000000	0.390465
525.000000	0.390729
526.000000	0.391138
527.000000	0.391428
528.000000	0.391582
529.000000	0.391737
530.000000	0.391986
531.000000	0.392325
532.000000	0.392611
533.000000	0.392891
534.000000	0.393216
535.000000	0.393577
536.000000	0.393967
537.000000	0.394259
538.000000	0.394479
539.000000	0.394703
540.000000	0.394998
541.000000	0.395330
542.000000	0.395690
543.000000	0.395996
544.000000	0.396309
545.000000	0.396571
546.000000	0.396846
547.000000	0.397098
548.000000	0.397402
549.000000	0.397770
550.000000	0.398098
551.000000	0.398454
552.000000	0.398860
553.000000	0.399202
554.000000	0.399486
555.000000	0.399778
556.000000	0.400264
557.000000	0.400562
558.000000	0.400771
559.000000	0.401099
560.000000	0.401365
561.000000	0.401682
562.000000	0.402072
563.000000	0.402310
564.000000	0.402584
565.000000	0.402950
566.000000	0.403328
567.000000	0.403682
568.000000	0.403984
569.000000	0.404340
570.000000	0.404687
571.000000	0.404980
572.000000	0.405217
573.000000	0.405585
574.000000	0.405939
575.000000	0.406136
576.000000	0.406464
577.000000	0.406799
578.000000	0.407099
579.000000	0.407370
580.000000	0.407677
581.000000	0.408029
582.000000	0.408347
583.000000	0.408706
584.000000	0.409077
585.000000	0.409380
586.000000	0.409701
587.000000	0.410010
588.000000	0.410259
589.000000	0.410451
590.000000	0.410647
591.000000	0.410890
592.000000	0.411170
593.000000	0.411483
594.000000	0.411794
595.000000	0.412037
596.000000	0.412255
597.000000	0.412485
598.000000	0.412636
599.000000	0.412869
600.000000	0.413149
601.000000	0.413333
602.000000	0.413599
603.000000	0.413802
604.000000	0.413920
605.000000	0.414129
606.000000	0.414288
607.000000	0.414408
608.000000	0.414581
609.000000	0.414749
610.000000	0.414925
611.000000	0.415135
612.000000	0.415405
613.000000	0.415637
614.000000	0.415842
615.000000	0.416129
616.000000	0.416306
617.000000	0.416320
618.000000	0.416404
619.000000	0.416603
620.000000	0.416775
621.000000	0.416805
622.000000	0.416916
623.000000	0.417059
624.000000	0.417164
625.000000	0.417269
626.000000	0.417366
627.000000	0.417493
628.000000	0.417773
629.000000	0.418073
630.000000	0.418231
631.000000	0.418468
632.000000	0.418701
633.000000	0.418903
634.000000	0.419040
635.000000	0.419147
636.000000	0.419228
637.000000	0.419287
638.000000	0.419427
639.000000	0.419519
640.000000	0.419607
641.000000	0.419645
642.000000	0.419786
643.000000	0.419994
644.000000	0.420175
645.000000	0.420314
646.000000	0.420475
647.000000	0.420656
648.000000	0.420777
649.000000	0.420989
650.000000	0.421248
651.000000	0.421324
652.000000	0.421449
653.000000	0.421670
654.000000	0.421839
655.000000	0.421996
656.000000	0.422157
657.000000	0.422267
658.000000	0.422434
659.000000	0.422636
660.000000	0.422813
661.000000	0.422917
662.000000	0.423004
663.000000	0.423148
664.000000	0.423287
665.000000	0.423430
666.000000	0.423559
667.000000	0.423631
668.000000	0.423792
669.000000	0.423969
670.000000	0.424127
671.000000	0.424309
672.000000	0.424526
673.000000	0.424759
674.000000	0.424996
675.000000	0.425135
676.000000	0.425255
677.000000	0.425479
678.000000	0.425627
679.000000	0.425764
680.000000	0.425928
681.000000	0.425944
682.000000	0.426055
683.000000	0.426234
684.000000	0.426515
685.000000	0.426674
686.000000	0.426802
687.000000	0.427008
688.000000	0.427196
689.000000	0.427406
690.000000	0.427688
691.000000	0.427880
692.000000	0.428004
693.000000	0.428168
694.000000	0.428330
695.000000	0.428443
696.000000	0.428536
697.000000	0.428673
698.000000	0.428840
699.000000	0.428994
700.000000	0.429114
701.000000	0.429229
702.000000	0.429346
703.000000	0.429436
704.000000	0.429492
705.000000	0.429617
706.000000	0.429765
707.000000	0.429955
708.000000	0.430124
709.000000	0.430274
710.000000	0.430443
711.000000	0.430609
712.000000	0.430751
713.000000	0.430903
714.000000	0.431098
715.000000	0.431284
716.000000	0.431440
717.000000	0.431531
718.000000	0.431659
719.000000	0.431763
720.000000	0.431823
721.000000	0.431980
722.000000	0.432099
723.000000	0.432214
724.000000	0.432339
725.000000	0.432416
726.000000	0.432535
727.000000	0.432607
728.000000	0.432658
729.000000	0.432779
730.000000	0.432952
731.000000	0.433150
732.000000	0.433343
733.000000	0.433543
734.000000	0.433640
735.000000	0.433704
736.000000	0.433894
737.000000	0.434037
738.000000	0.434052
739.000000	0.434089
740.000000	0.434044
741.000000	0.434060
742.000000	0.434081
743.000000	0.434070
744.000000	0.434130
745.000000	0.434179
746.000000	0.434268
747.000000	0.434346
748.000000	0.434478
749.000000	0.434608
750.000000	0.434667
751.000000	0.434794
752.000000	0.434872
753.000000	0.434925
754.000000	0.435056
755.000000	0.435223
756.000000	0.435360
757.000000	0.435357
758.000000	0.435387
759.000000	0.435473
760.000000	0.435541
761.000000	0.435732
762.000000	0.435923
763.000000	0.436034
764.000000	0.436126
765.000000	0.436210
766.000000	0.436255
767.000000	0.436247
768.000000	0.436340
769.000000	0.436419
770.000000	0.436426
771.000000	0.436368
772.000000	0.436381
773.000000	0.436415
774.000000	0.436526
775.000000	0.436652
776.000000	0.436760
777.000000	0.436829
778.000000	0.436973
779.000000	0.437128
780.000000	0.437246
781.000000	0.437255
782.000000	0.437203
783.000000	0.437231
784.000000	0.437227
785.000000	0.437228
786.000000	0.437237
787.000000	0.437246
788.000000	0.437253
789.000000	0.437274
790.000000	0.437274
791.000000	0.437263
792.000000	0.437277
793.000000	0.437349
794.000000	0.437463
795.000000	0.437404
796.000000	0.437310
797.000000	0.437261
798.000000	0.437289
799.000000	0.437389
800.000000	0.437497
801.000000	0.437548
802.000000	0.437561
803.000000	0.437604
804.000000	0.437695
805.000000	0.437549
806.000000	0.437447
807.000000	0.437502
808.000000	0.437530
809.000000	0.437593
810.000000	0.437637
811.000000	0.437618
812.000000	0.437636
813.000000	0.437625
814.000000	0.437605
815.000000	0.437702
816.000000	0.437733
817.000000	0.437698
818.000000	0.437551
819.000000	0.437563
820.000000	0.437673
821.000000	0.437702
822.000000	0.437521
823.000000	0.437518
824.000000	0.437547
825.000000	0.437472
826.000000	0.437434
827.000000	0.437397
828.000000	0.437402
829.000000	0.437471
830.000000	0.437506
831.000000	0.437495
832.000000	0.437264
833.000000	0.437154
834.000000	0.437109
835.000000	0.437085
836.000000	0.437071
837.000000	0.437061
838.000000	0.437035
839.000000	0.436901
840.000000	0.436840
841.000000	0.436847
842.000000	0.436818
843.000000	0.436782
844.000000	0.436704
845.000000	0.436592
846.000000	0.436613
847.000000	0.436687
848.000000	0.436730
849.000000	0.436732
850.000000	0.436774
851.000000	0.436770
852.000000	0.436739
853.000000	0.436698
854.000000	0.436570
855.000000	0.436500
856.000000	0.436411
857.000000	0.436309
858.000000	0.436269
859.000000	0.436196
860.000000	0.436051
861.000000	0.435914
862.000000	0.435841
863.000000	0.435761
864.000000	0.435670
865.000000	0.435548
866.000000	0.435437
867.000000	0.435385
868.000000	0.435329
869.000000	0.435226
870.000000	0.435192
871.000000	0.435091
872.000000	0.434940
873.000000	0.434735
874.000000	0.434722
875.000000	0.434598
876.000000	0.434401
877.000000	0.434201
878.000000	0.433952
879.000000	0.433786
880.000000	0.433601
881.000000	0.433539
882.000000	0.433462
883.000000	0.433350
884.000000	0.433147
885.000000	0.433005
886.000000	0.432826
887.000000	0.432623
888.000000	0.432541
889.000000	0.432468
890.000000	0.432241
891.000000	0.432015
892.000000	0.431731
893.000000	0.431529
894.000000	0.431561
895.000000	0.431418
896.000000	0.431163
897.000000	0.430893
898.000000	0.430725
899.000000	0.430682
900.000000	0.430505
901.000000	0.430202
902.000000	0.430357
903.000000	0.430350
904.000000	0.430151
905.000000	0.429790
906.000000	0.429594
907.000000	0.429391
908.000000	0.429173
909.000000	0.428880
910.000000	0.428739
911.000000	0.428625
912.000000	0.428439
913.000000	0.428378
914.000000	0.428186
915.000000	0.427895
916.000000	0.427536
917.000000	0.427333
918.000000	0.427183
919.000000	0.426949
920.000000	0.426693
921.000000	0.426467
922.000000	0.426273
923.000000	0.426063
924.000000	0.425999
925.000000	0.425790
926.000000	0.425401
927.000000	0.425152
928.000000	0.424911
929.000000	0.424699
930.000000	0.424547
931.000000	0.424285
932.000000	0.423966
933.000000	0.423709
934.000000	0.423532
935.000000	0.423336
936.000000	0.423180
937.000000	0.422951
938.000000	0.422522
939.000000	0.422209
940.000000	0.421958
941.000000	0.421715
942.000000	0.421379
943.000000	0.421040
944.000000	0.420612
945.000000	0.420249
946.000000	0.419790
947.000000	0.419493
948.000000	0.419497
949.000000	0.419283
950.000000	0.418968
951.000000	0.418634
952.000000	0.418473
953.000000	0.418386
954.000000	0.418196
955.000000	0.417790
956.000000	0.417636
957.000000	0.417561
958.000000	0.417380
959.000000	0.417109
960.000000	0.416828
961.000000	0.416631
962.000000	0.416478
963.000000	0.416263
964.000000	0.415975
965.000000	0.415741
966.000000	0.415478
967.000000	0.415139
968.000000	0.414785
969.000000	0.414523
970.000000	0.414563
971.000000	0.414261
972.000000	0.414053
973.000000	0.413973
974.000000	0.413726
975.000000	0.413406
976.000000	0.413235
977.000000	0.413255
978.000000	0.412920
979.000000	0.413026
980.000000	0.412995
981.000000	0.412484
982.000000	0.412053
983.000000	0.411894
984.000000	0.411954
985.000000	0.411748
986.000000	0.411330
987.000000	0.411133
988.000000	0.411104
989.000000	0.410488
990.000000	0.410610
991.000000	0.410805
992.000000	0.410233
993.000000	0.410490
994.000000	0.410434
995.000000	0.410155
996.000000	0.410079
997.000000	0.409535
998.000000	0.409412
999.000000	0.409899
1000.000000	0.409567
1001.000000	0.410383
1002.000000	0.409455
1003.000000	0.409040
1004.000000	0.408596
1005.000000	0.407843
1006.000000	0.407714
1007.000000	0.408548
1008.000000	0.408253
1009.000000	0.407411
1010.000000	0.406834
1011.000000	0.406667
1012.000000	0.406586
1013.000000	0.406550
1014.000000	0.406902
1015.000000	0.406775
1016.000000	0.406382
1017.000000	0.406206
1018.000000	0.406753
1019.000000	0.407013
1020.000000	0.407785
1021.000000	0.407219
1022.000000	0.405788
1023.000000	0.405657
1024.000000	0.405228
1025.000000	0.405516
1026.000000	0.406466
1027.000000	0.406743
1028.000000	0.406165
1029.000000	0.406072
1030.000000	0.406478
1031.000000	0.406504
1032.000000	0.406774
1033.000000	0.407221
1034.000000	0.407287
1035.000000	0.406910
1036.000000	0.406936
1037.000000	0.407013
1038.000000	0.406920
1039.000000	0.406785
1040.000000	0.407386
1041.000000	0.407686
1042.000000	0.407495
1043.000000	0.407782
1044.000000	0.407914
1045.000000	0.407717
1046.000000	0.407812
1047.000000	0.408002
1048.000000	0.408179
1049.000000	0.408369
1050.000000	0.408702
1051.000000	0.408932
1052.000000	0.409143
1053.000000	0.409120
1054.000000	0.409369
1055.000000	0.409430
1056.000000	0.409261
1057.000000	0.409015
1058.000000	0.408931
1059.000000	0.408779
1060.000000	0.409023
1061.000000	0.409214
1062.000000	0.409382
1063.000000	0.409909
1064.000000	0.410329
1065.000000	0.410897
1066.000000	0.411100
1067.000000	0.411183
1068.000000	0.411077
1069.000000	0.410187
1070.000000	0.410140
1071.000000	0.410744
1072.000000	0.410886
1073.000000	0.411197
1074.000000	0.411589
1075.000000	0.411753
1076.000000	0.411994
1077.000000	0.411919
1078.000000	0.412331
1079.000000	0.412765
1080.000000	0.413309
1081.000000	0.413366
1082.000000	0.413582
1083.000000	0.413735
1084.000000	0.413251
1085.000000	0.413383
1086.000000	0.414302
1087.000000	0.414567
1088.000000	0.414292
1089.000000	0.414336
1090.000000	0.414304
1091.000000	0.414177
1092.000000	0.414237
1093.000000	0.414594
1094.000000	0.414930
1095.000000	0.415176
1096.000000	0.415492
1097.000000	0.416143
1098.000000	0.416394
1099.000000	0.416204
1100.000000	0.416393
1101.000000	0.416515
1102.000000	0.416732
1103.000000	0.417248
1104.000000	0.417492
1105.000000	0.417538
1106.000000	0.417726
1107.000000	0.417467
1108.000000	0.417753
1109.000000	0.418861
1110.000000	0.419513
1111.000000	0.419833
1112.000000	0.420317
1113.000000	0.420315
1114.000000	0.419371
1115.000000	0.419366
1116.000000	0.419824
1117.000000	0.419861
1118.000000	0.420053
1119.000000	0.419988
1120.000000	0.419406
1121.000000	0.419243
1122.000000	0.419349
1123.000000	0.419688
1124.000000	0.420008
1125.000000	0.420306
1126.000000	0.420726
1127.000000	0.420867
1128.000000	0.420868
1129.000000	0.420687
1130.000000	0.420799
1131.000000	0.420893
1132.000000	0.420959
1133.000000	0.421342
1134.000000	0.421460
1135.000000	0.421246
1136.000000	0.421203
1137.000000	0.421194
1138.000000	0.421134
1139.000000	0.421175
1140.000000	0.421289
1141.000000	0.421371
1142.000000	0.421430
1143.000000	0.421504
1144.000000	0.421600
1145.000000	0.421340
1146.000000	0.421124
1147.000000	0.421074
1148.000000	0.420912
1149.000000	0.420855
1150.000000	0.421072
1151.000000	0.421066
1152.000000	0.420755
1153.000000	0.420783
1154.000000	0.420945
1155.000000	0.420933
1156.000000	0.420989
1157.000000	0.421032
1158.000000	0.420919
1159.000000	0.420788
1160.000000	0.420611
1161.000000	0.420528
1162.000000	0.420485
1163.000000	0.420610
1164.000000	0.420689
1165.000000	0.420771
1166.000000	0.420731
1167.000000	0.420441
1168.000000	0.420335
1169.000000	0.420281
1170.000000	0.420289
1171.000000	0.420505
1172.000000	0.420549
1173.000000	0.420428
1174.000000	0.420434
1175.000000	0.420358
1176.000000	0.420321
1177.000000	0.420501
1178.000000	0.420628
1179.000000	0.420868
1180.000000	0.420813
1181.000000	0.420686
1182.000000	0.420542
1183.000000	0.420498
1184.000000	0.420438
1185.000000	0.420398
1186.000000	0.420565
1187.000000	0.420499
1188.000000	0.420203
1189.000000	0.420084
1190.000000	0.420100
1191.000000	0.420031
1192.000000	0.420060
1193.000000	0.420231
1194.000000	0.420306
1195.000000	0.420372
1196.000000	0.420418
1197.000000	0.420468
1198.000000	0.420523
1199.000000	0.420549
1200.000000	0.420552
1201.000000	0.420639
1202.000000	0.420583
1203.000000	0.420438
1204.000000	0.420403
1205.000000	0.420456
1206.000000	0.420433
1207.000000	0.420579
1208.000000	0.420576
1209.000000	0.420596
1210.000000	0.420560
1211.000000	0.420441
1212.000000	0.420397
1213.000000	0.420359
1214.000000	0.420371
1215.000000	0.420523
1216.000000	0.420525
1217.000000	0.420425
1218.000000	0.420328
1219.000000	0.420159
1220.000000	0.420027
1221.000000	0.420197
1222.000000	0.420256
1223.000000	0.420242
1224.000000	0.420263
1225.000000	0.420177
1226.000000	0.420106
1227.000000	0.420086
1228.000000	0.420259
1229.000000	0.420249
1230.000000	0.420080
1231.000000	0.419969
1232.000000	0.419993
1233.000000	0.420065
1234.000000	0.420162
1235.000000	0.420211
1236.000000	0.420172
1237.000000	0.420188
1238.000000	0.420126
1239.000000	0.420069
1240.000000	0.420046
1241.000000	0.419936
1242.000000	0.419837
1243.000000	0.419764
1244.000000	0.419798
1245.000000	0.420009
1246.000000	0.420143
1247.000000	0.420393
1248.000000	0.420598
1249.000000	0.420716
1250.000000	0.420723
1251.000000	0.420556
1252.000000	0.420441
1253.000000	0.420217
1254.000000	0.420104
1255.000000	0.420089
1256.000000	0.420037
1257.000000	0.419986
1258.000000	0.419948
1259.000000	0.419782
1260.000000	0.419837
1261.000000	0.419952
1262.000000	0.420025
1263.000000	0.420244
1264.000000	0.420346
1265.000000	0.420378
1266.000000	0.420346
1267.000000	0.420244
1268.000000	0.420256
1269.000000	0.420210
1270.000000	0.420122
1271.000000	0.420154
1272.000000	0.420195
1273.000000	0.420244
1274.000000	0.420342
1275.000000	0.420350
1276.000000	0.420348
1277.000000	0.420421
1278.000000	0.420365
1279.000000	0.420304
1280.000000	0.420160
1281.000000	0.420065
1282.000000	0.420060
1283.000000	0.420072
1284.000000	0.420001
1285.000000	0.420002
1286.000000	0.419979
1287.000000	0.419952
1288.000000	0.420048
1289.000000	0.419995
1290.000000	0.419662
1291.000000	0.419373
1292.000000	0.419067
1293.000000	0.418910
1294.000000	0.418927
1295.000000	0.418814
1296.000000	0.418707
1297.000000	0.418665
1298.000000	0.418701
1299.000000	0.418838
1300.000000	0.418948
1301.000000	0.418928
1302.000000	0.418814
1303.000000	0.418664
1304.000000	0.418512
1305.000000	0.418419
1306.000000	0.418355
1307.000000	0.418490
1308.000000	0.418456
1309.000000	0.418265
1310.000000	0.418219
1311.000000	0.418276
1312.000000	0.418013
1313.000000	0.417866
1314.000000	0.417882
1315.000000	0.417706
1316.000000	0.417588
1317.000000	0.417707
1318.000000	0.417693
1319.000000	0.417312
1320.000000	0.417175
1321.000000	0.417046
1322.000000	0.416695
1323.000000	0.416760
1324.000000	0.416787
1325.000000	0.416402
1326.000000	0.416211
1327.000000	0.416029
1328.000000	0.415766
1329.000000	0.415478
1330.000000	0.415315
1331.000000	0.415047
1332.000000	0.414699
1333.000000	0.414428
1334.000000	0.414267
1335.000000	0.414149
1336.000000	0.414083
1337.000000	0.413942
1338.000000	0.413755
1339.000000	0.413497
1340.000000	0.413308
1341.000000	0.413108
1342.000000	0.412882
1343.000000	0.412760
1344.000000	0.412576
1345.000000	0.412216
1346.000000	0.412056
1347.000000	0.411938
1348.000000	0.411716
1349.000000	0.411419
1350.000000	0.411196
1351.000000	0.410802
1352.000000	0.410475
1353.000000	0.410396
1354.000000	0.410225
1355.000000	0.409927
1356.000000	0.409732
1357.000000	0.409416
1358.000000	0.409133
1359.000000	0.408882
1360.000000	0.408557
1361.000000	0.408148
1362.000000	0.407902
1363.000000	0.407685
1364.000000	0.407428
1365.000000	0.407314
1366.000000	0.407038
1367.000000	0.406575
1368.000000	0.406157
1369.000000	0.406038
1370.000000	0.405548
1371.000000	0.405005
1372.000000	0.404534
1373.000000	0.403882
1374.000000	0.403202
1375.000000	0.402378
1376.000000	0.401588
1377.000000	0.400581
1378.000000	0.399223
1379.000000	0.397754
1380.000000	0.396007
1381.000000	0.393974
1382.000000	0.391824
1383.000000	0.389584
1384.000000	0.387011
1385.000000	0.384307
1386.000000	0.381985
1387.000000	0.379895
1388.000000	0.377886
1389.000000	0.376393
1390.000000	0.375361
1391.000000	0.374457
1392.000000	0.374136
1393.000000	0.373906
1394.000000	0.374099
1395.000000	0.374075
1396.000000	0.374249
1397.000000	0.374074
1398.000000	0.373792
1399.000000	0.373323
1400.000000	0.372567
1401.000000	0.371787
1402.000000	0.370983
1403.000000	0.369950
1404.000000	0.368949
1405.000000	0.367867
1406.000000	0.366689
1407.000000	0.365593
1408.000000	0.364451
1409.000000	0.363452
1410.000000	0.362599
1411.000000	0.361698
1412.000000	0.360834
1413.000000	0.360030
1414.000000	0.359260
1415.000000	0.358533
1416.000000	0.357774
1417.000000	0.357069
1418.000000	0.356279
1419.000000	0.355539
1420.000000	0.354809
1421.000000	0.354200
1422.000000	0.353641
1423.000000	0.353125
1424.000000	0.352518
1425.000000	0.351896
1426.000000	0.351310
1427.000000	0.350808
1428.000000	0.350466
1429.000000	0.350064
1430.000000	0.349573
1431.000000	0.349092
1432.000000	0.348573
1433.000000	0.347947
1434.000000	0.347543
1435.000000	0.347373
1436.000000	0.347057
1437.000000	0.346841
1438.000000	0.346443
1439.000000	0.345880
1440.000000	0.345442
1441.000000	0.345032
1442.000000	0.344646
1443.000000	0.344235
1444.000000	0.343870
1445.000000	0.343420
1446.000000	0.343021
1447.000000	0.342677
1448.000000	0.342236
1449.000000	0.341886
1450.000000	0.341483
1451.000000	0.341112
1452.000000	0.340827
1453.000000	0.340533
1454.000000	0.340240
1455.000000	0.339853
1456.000000	0.339594
1457.000000	0.339493
1458.000000	0.339336
1459.000000	0.339155
1460.000000	0.338986
1461.000000	0.338808
1462.000000	0.338661
1463.000000	0.338571
1464.000000	0.338617
1465.000000	0.338641
1466.000000	0.338520
1467.000000	0.338554
1468.000000	0.338608
1469.000000	0.338677
1470.000000	0.338854
1471.000000	0.339057
1472.000000	0.339252
1473.000000	0.339563
1474.000000	0.339914
1475.000000	0.340306
1476.000000	0.340592
1477.000000	0.340938
1478.000000	0.341298
1479.000000	0.341512
1480.000000	0.342008
1481.000000	0.342440
1482.000000	0.342872
1483.000000	0.343357
1484.000000	0.343953
1485.000000	0.344410
1486.000000	0.344807
1487.000000	0.345256
1488.000000	0.345657
1489.000000	0.346155
1490.000000	0.346638
1491.000000	0.347131
1492.000000	0.347608
1493.000000	0.348077
1494.000000	0.348437
1495.000000	0.348873
1496.000000	0.349336
1497.000000	0.349841
1498.000000	0.350476
1499.000000	0.350979
1500.000000	0.351315
1501.000000	0.351681
1502.000000	0.351910
1503.000000	0.352220
1504.000000	0.352858
1505.000000	0.353379
1506.000000	0.353803
1507.000000	0.354249
1508.000000	0.354469
1509.000000	0.354789
1510.000000	0.355202
1511.000000	0.355539
1512.000000	0.355887
1513.000000	0.356046
1514.000000	0.356262
1515.000000	0.356539
1516.000000	0.356805
1517.000000	0.357065
1518.000000	0.357209
1519.000000	0.357274
1520.000000	0.357368
1521.000000	0.357495
1522.000000	0.357708
1523.000000	0.357910
1524.000000	0.358073
1525.000000	0.358239
1526.000000	0.358324
1527.000000	0.358486
1528.000000	0.358749
1529.000000	0.358877
1530.000000	0.358909
1531.000000	0.359038
1532.000000	0.359080
1533.000000	0.359188
1534.000000	0.359483
1535.000000	0.359726
1536.000000	0.359885
1537.000000	0.360046
1538.000000	0.360125
1539.000000	0.360208
1540.000000	0.360339
1541.000000	0.360509
1542.000000	0.360803
1543.000000	0.361038
1544.000000	0.361113
1545.000000	0.361183
1546.000000	0.361199
1547.000000	0.361210
1548.000000	0.361328
1549.000000	0.361484
1550.000000	0.361624
1551.000000	0.361712
1552.000000	0.361779
1553.000000	0.361770
1554.000000	0.361716
1555.000000	0.361786
1556.000000	0.361882
1557.000000	0.362003
1558.000000	0.362100
1559.000000	0.362129
1560.000000	0.362113
1561.000000	0.362117
1562.000000	0.362074
1563.000000	0.362048
1564.000000	0.362016
1565.000000	0.361902
1566.000000	0.361772
1567.000000	0.361794
1568.000000	0.361698
1569.000000	0.361614
1570.000000	0.361558
1571.000000	0.361361
1572.000000	0.361368
1573.000000	0.361580
1574.000000	0.361648
1575.000000	0.361787
1576.000000	0.361869
1577.000000	0.361782
1578.000000	0.361802
1579.000000	0.361995
1580.000000	0.362025
1581.000000	0.362102
1582.000000	0.362123
1583.000000	0.361999
1584.000000	0.361923
1585.000000	0.361965
1586.000000	0.361985
1587.000000	0.361979
1588.000000	0.362018
1589.000000	0.362149
1590.000000	0.362150
1591.000000	0.362082
1592.000000	0.362110
1593.000000	0.362159
1594.000000	0.362154
1595.000000	0.362260
1596.000000	0.362324
1597.000000	0.362362
1598.000000	0.362376
1599.000000	0.362426
1600.000000	0.362454
1601.000000	0.362467
1602.000000	0.362580
1603.000000	0.362862
1604.000000	0.362989
1605.000000	0.363158
1606.000000	0.363210
1607.000000	0.363092
1608.000000	0.363147
1609.000000	0.363408
1610.000000	0.363393
1611.000000	0.363353
1612.000000	0.363335
1613.000000	0.363182
1614.000000	0.363176
1615.000000	0.363451
1616.000000	0.363547
1617.000000	0.363468
1618.000000	0.363511
1619.000000	0.363527
1620.000000	0.363611
1621.000000	0.363841
1622.000000	0.364123
1623.000000	0.364415
1624.000000	0.364610
1625.000000	0.364626
1626.000000	0.364717
1627.000000	0.364888
1628.000000	0.364955
1629.000000	0.364981
1630.000000	0.365061
1631.000000	0.364892
1632.000000	0.364878
1633.000000	0.365065
1634.000000	0.365205
1635.000000	0.365353
1636.000000	0.365576
1637.000000	0.365978
1638.000000	0.366108
1639.000000	0.366188
1640.000000	0.366279
1641.000000	0.366216
1642.000000	0.366399
1643.000000	0.366808
1644.000000	0.367168
1645.000000	0.367670
1646.000000	0.367887
1647.000000	0.368005
1648.000000	0.368141
1649.000000	0.368223
1650.000000	0.368422
1651.000000	0.368772
1652.000000	0.369068
1653.000000	0.369255
1654.000000	0.369582
1655.000000	0.369954
1656.000000	0.370148
1657.000000	0.370493
1658.000000	0.370557
1659.000000	0.370468
1660.000000	0.370534
1661.000000	0.370355
1662.000000	0.370504
1663.000000	0.370889
1664.000000	0.371070
1665.000000	0.371269
1666.000000	0.371572
1667.000000	0.371744
1668.000000	0.371911
1669.000000	0.372155
1670.000000	0.372262
1671.000000	0.372342
1672.000000	0.372497
1673.000000	0.372670
1674.000000	0.372956
1675.000000	0.373067
1676.000000	0.373105
1677.000000	0.373037
1678.000000	0.372912
1679.000000	0.372988
1680.000000	0.373132
1681.000000	0.373329
1682.000000	0.373455
1683.000000	0.373549
1684.000000	0.373675
1685.000000	0.373785
1686.000000	0.373915
1687.000000	0.374042
1688.000000	0.374165
1689.000000	0.374340
1690.000000	0.374425
1691.000000	0.374490
1692.000000	0.374330
1693.000000	0.374266
1694.000000	0.374284
1695.000000	0.374279
1696.000000	0.374553
1697.000000	0.374616
1698.000000	0.374639
1699.000000	0.374729
1700.000000	0.374720
1701.000000	0.374858
1702.000000	0.374924
1703.000000	0.374963
1704.000000	0.375105
1705.000000	0.375223
1706.000000	0.375382
1707.000000	0.375544
1708.000000	0.375704
1709.000000	0.375757
1710.000000	0.375884
1711.000000	0.375989
1712.000000	0.376013
1713.000000	0.376096
1714.000000	0.376225
1715.000000	0.376424
1716.000000	0.376814
1717.000000	0.376973
1718.000000	0.377053
1719.000000	0.377055
1720.000000	0.376800
1721.000000	0.376836
1722.000000	0.377061
1723.000000	0.377191
1724.000000	0.377492
1725.000000	0.377644
1726.000000	0.377543
1727.000000	0.377514
1728.000000	0.377384
1729.000000	0.377277
1730.000000	0.377310
1731.000000	0.377351
1732.000000	0.377480
1733.000000	0.377546
1734.000000	0.377389
1735.000000	0.377417
1736.000000	0.377422
1737.000000	0.377496
1738.000000	0.377739
1739.000000	0.377873
1740.000000	0.377942
1741.000000	0.378034
1742.000000	0.378120
1743.000000	0.378345
1744.000000	0.378652
1745.000000	0.378714
1746.000000	0.378741
1747.000000	0.378710
1748.000000	0.378624
1749.000000	0.378625
1750.000000	0.378588
1751.000000	0.378493
1752.000000	0.378670
1753.000000	0.379049
1754.000000	0.379158
1755.000000	0.379095
1756.000000	0.379116
1757.000000	0.379008
1758.000000	0.378925
1759.000000	0.378959
1760.000000	0.378925
1761.000000	0.378693
1762.000000	0.378543
1763.000000	0.378439
1764.000000	0.378420
1765.000000	0.378381
1766.000000	0.378428
1767.000000	0.378531
1768.000000	0.378556
1769.000000	0.378715
1770.000000	0.378834
1771.000000	0.378911
1772.000000	0.378891
1773.000000	0.378660
1774.000000	0.378647
1775.000000	0.378743
1776.000000	0.378806
1777.000000	0.378935
1778.000000	0.379019
1779.000000	0.378998
1780.000000	0.379104
1781.000000	0.379306
1782.000000	0.379365
1783.000000	0.379443
1784.000000	0.379332
1785.000000	0.379248
1786.000000	0.379352
1787.000000	0.379560
1788.000000	0.379701
1789.000000	0.379692
1790.000000	0.379640
1791.000000	0.379671
1792.000000	0.380142
1793.000000	0.380327
1794.000000	0.380284
1795.000000	0.380418
1796.000000	0.380503
1797.000000	0.380602
1798.000000	0.380802
1799.000000	0.380997
1800.000000	0.381248
1801.000000	0.380572
1802.000000	0.380713
1803.000000	0.381761
1804.000000	0.382116
1805.000000	0.383160
1806.000000	0.383599
1807.000000	0.383321
1808.000000	0.383262
1809.000000	0.383155
1810.000000	0.383047
1811.000000	0.383284
1812.000000	0.383565
1813.000000	0.384069
1814.000000	0.385446
1815.000000	0.385737
1816.000000	0.385769
1817.000000	0.385344
1818.000000	0.383779
1819.000000	0.383194
1820.000000	0.383228
1821.000000	0.382977
1822.000000	0.383011
1823.000000	0.383737
1824.000000	0.383648
1825.000000	0.382865
1826.000000	0.382801
1827.000000	0.382552
1828.000000	0.382763
1829.000000	0.383619
1830.000000	0.383551
1831.000000	0.383479
1832.000000	0.383118
1833.000000	0.382942
1834.000000	0.382612
1835.000000	0.382470
1836.000000	0.382436
1837.000000	0.382338
1838.000000	0.382244
1839.000000	0.381673
1840.000000	0.381514
1841.000000	0.381123
1842.000000	0.380673
1843.000000	0.379985
1844.000000	0.379719
1845.000000	0.379229
1846.000000	0.379141
1847.000000	0.379731
1848.000000	0.379529
1849.000000	0.378771
1850.000000	0.378702
1851.000000	0.377941
1852.000000	0.376295
1853.000000	0.375493
1854.000000	0.374461
1855.000000	0.373503
1856.000000	0.372635
1857.000000	0.371928
1858.000000	0.371377
1859.000000	0.371078
1860.000000	0.370338
1861.000000	0.369921
1862.000000	0.368506
1863.000000	0.366052
1864.000000	0.364278
1865.000000	0.362089
1866.000000	0.360201
1867.000000	0.358456
1868.000000	0.357331
1869.000000	0.355817
1870.000000	0.354027
1871.000000	0.352748
1872.000000	0.351145
1873.000000	0.348879
1874.000000	0.345828
1875.000000	0.343457
1876.000000	0.340922
1877.000000	0.337374
1878.000000	0.334463
1879.000000	0.331876
1880.000000	0.327495
1881.000000	0.323142
1882.000000	0.319093
1883.000000	0.314642
1884.000000	0.310535
1885.000000	0.306972
1886.000000	0.302434
1887.000000	0.297464
1888.000000	0.292190
1889.000000	0.286573
1890.000000	0.281355
1891.000000	0.276763
1892.000000	0.272361
1893.000000	0.268244
1894.000000	0.264123
1895.000000	0.259747
1896.000000	0.255533
1897.000000	0.251166
1898.000000	0.246221
1899.000000	0.241589
1900.000000	0.237565
1901.000000	0.233866
1902.000000	0.230426
1903.000000	0.227730
1904.000000	0.225329
1905.000000	0.222951
1906.000000	0.220750
1907.000000	0.218930
1908.000000	0.217305
1909.000000	0.215961
1910.000000	0.213527
1911.000000	0.211253
1912.000000	0.209832
1913.000000	0.207902
1914.000000	0.206966
1915.000000	0.206798
1916.000000	0.205745
1917.000000	0.204921
1918.000000	0.204082
1919.000000	0.204027
1920.000000	0.203301
1921.000000	0.202927
1922.000000	0.202776
1923.000000	0.202046
1924.000000	0.201472
1925.000000	0.200994
1926.000000	0.200788
1927.000000	0.200706
1928.000000	0.200771
1929.000000	0.201252
1930.000000	0.201690
1931.000000	0.201676
1932.000000	0.201791
1933.000000	0.201495
1934.000000	0.201683
1935.000000	0.202977
1936.000000	0.203952
1937.000000	0.204835
1938.000000	0.205434
1939.000000	0.205590
1940.000000	0.204914
1941.000000	0.204470
1942.000000	0.204455
1943.000000	0.204598
1944.000000	0.204567
1945.000000	0.204285
1946.000000	0.203985
1947.000000	0.203579
1948.000000	0.203383
1949.000000	0.203454
1950.000000	0.203415
1951.000000	0.202969
1952.000000	0.202111
1953.000000	0.201426
1954.000000	0.201112
1955.000000	0.200521
1956.000000	0.200537
1957.000000	0.200573
1958.000000	0.200328
1959.000000	0.200376
1960.000000	0.200187
1961.000000	0.199996
1962.000000	0.199883
1963.000000	0.199834
1964.000000	0.199531
1965.000000	0.199276
1966.000000	0.199462
1967.000000	0.199518
1968.000000	0.199858
1969.000000	0.200740
1970.000000	0.201433
1971.000000	0.201847
1972.000000	0.202298
1973.000000	0.202647
1974.000000	0.203033
1975.000000	0.203346
1976.000000	0.203781
1977.000000	0.203479
1978.000000	0.203645
1979.000000	0.204272
1980.000000	0.204612
1981.000000	0.205762
1982.000000	0.206897
1983.000000	0.206855
1984.000000	0.207100
1985.000000	0.207156
1986.000000	0.207728
1987.000000	0.208341
1988.000000	0.209400
1989.000000	0.211166
1990.000000	0.212083
1991.000000	0.212469
1992.000000	0.212836
1993.000000	0.212979
1994.000000	0.213560
1995.000000	0.214624
1996.000000	0.216163
1997.000000	0.217184
1998.000000	0.217990
1999.000000	0.218968
2000.000000	0.220023
2001.000000	0.220409
2002.000000	0.221237
2003.000000	0.222359
2004.000000	0.222672
2005.000000	0.223521
2006.000000	0.224498
2007.000000	0.225076
2008.000000	0.225924
2009.000000	0.226699
2010.000000	0.227888
2011.000000	0.229556
2012.000000	0.230651
2013.000000	0.231617
2014.000000	0.232819
2015.000000	0.233738
2016.000000	0.234043
2017.000000	0.234899
2018.000000	0.236013
2019.000000	0.236394
2020.000000	0.237447
2021.000000	0.238331
2022.000000	0.239056
2023.000000	0.239838
2024.000000	0.240645
2025.000000	0.241615
2026.000000	0.242482
2027.000000	0.243703
2028.000000	0.245049
2029.000000	0.246644
2030.000000	0.247921
2031.000000	0.249476
2032.000000	0.251309
2033.000000	0.252358
2034.000000	0.253241
2035.000000	0.254013
2036.000000	0.254463
2037.000000	0.254327
2038.000000	0.254734
2039.000000	0.255078
2040.000000	0.256187
2041.000000	0.257156
2042.000000	0.258354
2043.000000	0.259295
2044.000000	0.259620
2045.000000	0.260294
2046.000000	0.260856
2047.000000	0.261954
2048.000000	0.263707
2049.000000	0.265167
2050.000000	0.266645
2051.000000	0.267678
2052.000000	0.268311
2053.000000	0.268985
2054.000000	0.269649
2055.000000	0.270262
2056.000000	0.271006
2057.000000	0.271681
2058.000000	0.271927
2059.000000	0.272706
2060.000000	0.273313
2061.000000	0.273897
2062.000000	0.274283
2063.000000	0.274526
2064.000000	0.274894
2065.000000	0.275228
2066.000000	0.275811
2067.000000	0.277001
2068.000000	0.278241
2069.000000	0.278982
2070.000000	0.279936
2071.000000	0.280232
2072.000000	0.280553
2073.000000	0.281266
2074.000000	0.281785
2075.000000	0.282601
2076.000000	0.283938
2077.000000	0.284857
2078.000000	0.285744
2079.000000	0.286470
2080.000000	0.286916
2081.000000	0.287423
2082.000000	0.287974
2083.000000	0.288291
2084.000000	0.288603
2085.000000	0.289424
2086.000000	0.289882
2087.000000	0.290851
2088.000000	0.292080
2089.000000	0.293114
2090.000000	0.293767
2091.000000	0.294175
2092.000000	0.294737
2093.000000	0.294856
2094.000000	0.295354
2095.000000	0.296027
2096.000000	0.296990
2097.000000	0.298214
2098.000000	0.299449
2099.000000	0.300298
2100.000000	0.301472
2101.000000	0.301968
2102.000000	0.302052
2103.000000	0.302441
2104.000000	0.303430
2105.000000	0.303980
2106.000000	0.304380
2107.000000	0.304830
2108.000000	0.304987
2109.000000	0.305322
2110.000000	0.305741
2111.000000	0.306322
2112.000000	0.307307
2113.000000	0.307294
2114.000000	0.307316
2115.000000	0.306637
2116.000000	0.305705
2117.000000	0.305712
2118.000000	0.305753
2119.000000	0.306742
2120.000000	0.307626
2121.000000	0.308882
2122.000000	0.309681
2123.000000	0.310609
2124.000000	0.311021
2125.000000	0.310845
2126.000000	0.310951
2127.000000	0.311040
2128.000000	0.311387
2129.000000	0.311865
2130.000000	0.312190
2131.000000	0.312084
2132.000000	0.312080
2133.000000	0.312180
2134.000000	0.312428
2135.000000	0.313688
2136.000000	0.314908
2137.000000	0.315312
2138.000000	0.315227
2139.000000	0.315478
2140.000000	0.315203
2141.000000	0.315077
2142.000000	0.315325
2143.000000	0.315213
2144.000000	0.314675
2145.000000	0.314774
2146.000000	0.314955
2147.000000	0.316396
2148.000000	0.317423
2149.000000	0.317968
2150.000000	0.319318
2151.000000	0.319316
2152.000000	0.318881
2153.000000	0.318485
2154.000000	0.317923
2155.000000	0.316565
2156.000000	0.316055
2157.000000	0.316117
2158.000000	0.316002
2159.000000	0.315807
2160.000000	0.316164
2161.000000	0.316865
2162.000000	0.317417
2163.000000	0.318574
2164.000000	0.319020
2165.000000	0.318677
2166.000000	0.318840
2167.000000	0.319312
2168.000000	0.319752
2169.000000	0.320200
2170.000000	0.320278
2171.000000	0.320159
2172.000000	0.319283
2173.000000	0.319147
2174.000000	0.319255
2175.000000	0.319379
2176.000000	0.319904
2177.000000	0.319909
2178.000000	0.319416
2179.000000	0.319623
2180.000000	0.319889
2181.000000	0.320273
2182.000000	0.320395
2183.000000	0.321237
2184.000000	0.320831
2185.000000	0.321370
2186.000000	0.321349
2187.000000	0.321213
2188.000000	0.320975
2189.000000	0.319712
2190.000000	0.318978
2191.000000	0.318043
2192.000000	0.317436
2193.000000	0.317226
2194.000000	0.316821
2195.000000	0.316552
2196.000000	0.316633
2197.000000	0.316820
2198.000000	0.316706
2199.000000	0.317163
2200.000000	0.316582
2201.000000	0.314849
2202.000000	0.314016
2203.000000	0.312376
2204.000000	0.311617
2205.000000	0.313044
2206.000000	0.314617
2207.000000	0.315967
2208.000000	0.318186
2209.000000	0.319964
2210.000000	0.320468
2211.000000	0.319031
2212.000000	0.317861
2213.000000	0.317289
2214.000000	0.315484
2215.000000	0.314990
2216.000000	0.317356
2217.000000	0.316694
2218.000000	0.312972
2219.000000	0.312593
2220.000000	0.312095
2221.000000	0.313252
2222.000000	0.318581
2223.000000	0.320985
2224.000000	0.323454
2225.000000	0.323507
2226.000000	0.322510
2227.000000	0.321176
2228.000000	0.318334
2229.000000	0.316763
2230.000000	0.315025
2231.000000	0.313994
2232.000000	0.313877
2233.000000	0.313769
2234.000000	0.313528
2235.000000	0.313469
2236.000000	0.313378
2237.000000	0.313053
2238.000000	0.312903
2239.000000	0.312891
2240.000000	0.312703
2241.000000	0.312638
2242.000000	0.312747
2243.000000	0.312875
2244.000000	0.312924
2245.000000	0.313461
2246.000000	0.313103
2247.000000	0.312568
2248.000000	0.311447
2249.000000	0.310322
2250.000000	0.306262
2251.000000	0.304527
2252.000000	0.302795
2253.000000	0.302832
2254.000000	0.306109
2255.000000	0.308099
2256.000000	0.309903
2257.000000	0.312296
2258.000000	0.312522
2259.000000	0.311011
2260.000000	0.310433
2261.000000	0.308548
2262.000000	0.303295
2263.000000	0.302564
2264.000000	0.304292
2265.000000	0.304760
2266.000000	0.306612
2267.000000	0.307857
2268.000000	0.308201
2269.000000	0.308649
2270.000000	0.310061
2271.000000	0.309952
2272.000000	0.308281
2273.000000	0.307440
2274.000000	0.307358
2275.000000	0.305781
2276.000000	0.303123
2277.000000	0.301558
2278.000000	0.298771
2279.000000	0.296356
2280.000000	0.296623
2281.000000	0.296194
2282.000000	0.295242
2283.000000	0.293879
2284.000000	0.292815
2285.000000	0.291620
2286.000000	0.291454
2287.000000	0.292242
2288.000000	0.290438
2289.000000	0.288644
2290.000000	0.286450
2291.000000	0.283821
2292.000000	0.284392
2293.000000	0.284409
2294.000000	0.284031
2295.000000	0.284505
2296.000000	0.283339
2297.000000	0.280078
2298.000000	0.279449
2299.000000	0.279552
2300.000000	0.278929
2301.000000	0.279991
2302.000000	0.278193
2303.000000	0.273584
2304.000000	0.270840
2305.000000	0.267818
2306.000000	0.265435
2307.000000	0.264012
2308.000000	0.262529
2309.000000	0.260228
2310.000000	0.258469
2311.000000	0.257199
2312.000000	0.255963
2313.000000	0.255359
2314.000000	0.254532
2315.000000	0.253794
2316.000000	0.253233
2317.000000	0.252636
2318.000000	0.253041
2319.000000	0.253368
2320.000000	0.254383
2321.000000	0.256391
2322.000000	0.255920
2323.000000	0.257211
2324.000000	0.259712
2325.000000	0.259985
2326.000000	0.261658
2327.000000	0.262565
2328.000000	0.261234
2329.000000	0.261606
2330.000000	0.263211
2331.000000	0.261420
2332.000000	0.258484
2333.000000	0.256285
2334.000000	0.253272
2335.000000	0.252655
2336.000000	0.255325
2337.000000	0.256382
2338.000000	0.257962
2339.000000	0.258016
2340.000000	0.256789
2341.000000	0.257050
2342.000000	0.257341
2343.000000	0.256673
2344.000000	0.257284
2345.000000	0.254152
2346.000000	0.247304
2347.000000	0.244335
2348.000000	0.240089
2349.000000	0.240109
2350.000000	0.243952
2351.000000	0.244113
2352.000000	0.243335
2353.000000	0.241887
2354.000000	0.240069
2355.000000	0.238115
2356.000000	0.236458
2357.000000	0.238014
2358.000000	0.235203
2359.000000	0.233813
2360.000000	0.236684
2361.000000	0.233094
2362.000000	0.230774
2363.000000	0.229073
2364.000000	0.222508
2365.000000	0.219032
2366.000000	0.220387
2367.000000	0.221260
2368.000000	0.223783
2369.000000	0.226562
2370.000000	0.223279
2371.000000	0.219204
2372.000000	0.217050
2373.000000	0.215358
2374.000000	0.213817
2375.000000	0.212763
2376.000000	0.212149
2377.000000	0.210918
2378.000000	0.210880
2379.000000	0.211895
2380.000000	0.209622
2381.000000	0.205375
2382.000000	0.201192
2383.000000	0.198555
2384.000000	0.199813
2385.000000	0.199890
2386.000000	0.199020
2387.000000	0.200402
2388.000000	0.199974
2389.000000	0.196335
2390.000000	0.197888
2391.000000	0.199570
2392.000000	0.194402
2393.000000	0.193590
2394.000000	0.191751
2395.000000	0.184071
2396.000000	0.181509
2397.000000	0.185967
2398.000000	0.193090
2399.000000	0.198193
2400.000000	0.202569
2401.000000	0.205072
2402.000000	0.203893
2403.000000	0.202603
2404.000000	0.200051
2405.000000	0.199695
2406.000000	0.197960
2407.000000	0.194569
2408.000000	0.199085
2409.000000	0.196178
2410.000000	0.187557
2411.000000	0.190731
2412.000000	0.189322
2413.000000	0.183463
2414.000000	0.187380
2415.000000	0.186321
2416.000000	0.185435
2417.000000	0.198864
2418.000000	0.209281
2419.000000	0.212596
2420.000000	0.215322
2421.000000	0.201732
2422.000000	0.186178
2423.000000	0.178104
2424.000000	0.166238
2425.000000	0.166209
2426.000000	0.175208
2427.000000	0.195734
2428.000000	0.206988
2429.000000	0.203644
2430.000000	0.210024
2431.000000	0.196285
2432.000000	0.188111
2433.000000	0.197393
2434.000000	0.197579
2435.000000	0.197635
2436.000000	0.188107
2437.000000	0.184426
2438.000000	0.186251
2439.000000	0.187707
2440.000000	0.205853
2441.000000	0.217451
2442.000000	0.210227
2443.000000	0.200442
2444.000000	0.196642
2445.000000	0.188966
2446.000000	0.181597
2447.000000	0.180328
2448.000000	0.169030
2449.000000	0.161654
2450.000000	0.166987
2451.000000	0.173102
2452.000000	0.171549
2453.000000	0.169747
2454.000000	0.167082
2455.000000	0.157319
2456.000000	0.156148
2457.000000	0.151424
2458.000000	0.135584
2459.000000	0.139714
2460.000000	0.155975
2461.000000	0.176197
2462.000000	0.207266
2463.000000	0.218314
2464.000000	0.209427
2465.000000	0.190615
2466.000000	0.164523
2467.000000	0.152913
2468.000000	0.147050
2469.000000	0.135603
2470.000000	0.140840
2471.000000	0.158370
2472.000000	0.176173
2473.000000	0.208808
2474.000000	0.233399
2475.000000	0.234620
2476.000000	0.221685
2477.000000	0.204780
2478.000000	0.179291
2479.000000	0.131800
2480.000000	0.105350
2481.000000	0.103057
2482.000000	0.108632
2483.000000	0.136334
2484.000000	0.147593
2485.000000	0.120148
2486.000000	0.092558
2487.000000	0.070657
2488.000000	0.031418
2489.000000	0.003252
2490.000000	-0.010473
2491.000000	0.023795
2492.000000	0.025300
2493.000000	0.015034
2494.000000	0.023615
2495.000000	0.028260
2496.000000	0.022979
2497.000000	0.030765
2498.000000	0.031594
2499.000000	-0.004054
2500.000000	-0.010037
