# Wavelength	SM1200H-60_HEX-10_FV7-30_00001.asd.rts.txt
350.000000	0.277696
351.000000	0.292309
352.000000	0.291610
353.000000	0.289649
354.000000	0.295099
355.000000	0.291751
356.000000	0.291457
357.000000	0.295258
358.000000	0.292210
359.000000	0.284566
360.000000	0.283760
361.000000	0.297497
362.000000	0.301625
363.000000	0.297280
364.000000	0.290873
365.000000	0.300294
366.000000	0.306971
367.000000	0.305055
368.000000	0.298944
369.000000	0.299464
370.000000	0.303423
371.000000	0.303809
372.000000	0.302745
373.000000	0.299155
374.000000	0.295227
375.000000	0.300742
376.000000	0.305797
377.000000	0.307286
378.000000	0.308499
379.000000	0.309642
380.000000	0.308267
381.000000	0.303495
382.000000	0.306305
383.000000	0.310846
384.000000	0.312474
385.000000	0.313412
386.000000	0.314123
387.000000	0.314376
388.000000	0.312502
389.000000	0.311434
390.000000	0.311940
391.000000	0.313417
392.000000	0.313533
393.000000	0.313418
394.000000	0.313933
395.000000	0.313303
396.000000	0.312912
397.000000	0.313394
398.000000	0.314686
399.000000	0.316221
400.000000	0.317138
401.000000	0.316401
402.000000	0.316249
403.000000	0.316983
404.000000	0.318406
405.000000	0.319208
406.000000	0.319059
407.000000	0.318466
408.000000	0.319153
409.000000	0.319648
410.000000	0.319920
411.000000	0.320637
412.000000	0.321048
413.000000	0.321425
414.000000	0.322114
415.000000	0.322282
416.000000	0.322272
417.000000	0.322410
418.000000	0.322788
419.000000	0.323354
420.000000	0.324038
421.000000	0.324753
422.000000	0.324502
423.000000	0.324164
424.000000	0.325085
425.000000	0.325626
426.000000	0.325650
427.000000	0.325423
428.000000	0.325963
429.000000	0.326267
430.000000	0.326150
431.000000	0.326480
432.000000	0.326794
433.000000	0.327099
434.000000	0.327682
435.000000	0.327718
436.000000	0.327664
437.000000	0.327980
438.000000	0.328044
439.000000	0.328317
440.000000	0.328977
441.000000	0.329102
442.000000	0.329298
443.000000	0.329605
444.000000	0.329928
445.000000	0.330283
446.000000	0.330671
447.000000	0.330860
448.000000	0.330902
449.000000	0.331172
450.000000	0.331794
451.000000	0.332095
452.000000	0.332209
453.000000	0.332229
454.000000	0.332545
455.000000	0.332693
456.000000	0.332868
457.000000	0.333266
458.000000	0.333640
459.000000	0.333944
460.000000	0.334253
461.000000	0.334653
462.000000	0.334980
463.000000	0.335002
464.000000	0.335032
465.000000	0.335153
466.000000	0.335335
467.000000	0.335638
468.000000	0.335914
469.000000	0.335967
470.000000	0.335932
471.000000	0.336470
472.000000	0.336846
473.000000	0.336730
474.000000	0.337013
475.000000	0.337242
476.000000	0.337403
477.000000	0.337455
478.000000	0.337454
479.000000	0.337734
480.000000	0.338220
481.000000	0.338273
482.000000	0.338441
483.000000	0.338931
484.000000	0.339356
485.000000	0.339514
486.000000	0.339624
487.000000	0.339850
488.000000	0.340073
489.000000	0.340340
490.000000	0.340765
491.000000	0.341011
492.000000	0.341161
493.000000	0.341259
494.000000	0.341705
495.000000	0.342120
496.000000	0.342231
497.000000	0.342499
498.000000	0.342849
499.000000	0.343256
500.000000	0.343476
501.000000	0.343702
502.000000	0.343940
503.000000	0.344018
504.000000	0.344293
505.000000	0.344548
506.000000	0.344591
507.000000	0.344828
508.000000	0.345143
509.000000	0.345442
510.000000	0.345988
511.000000	0.346316
512.000000	0.346487
513.000000	0.346916
514.000000	0.347183
515.000000	0.347424
516.000000	0.347818
517.000000	0.348101
518.000000	0.348370
519.000000	0.348644
520.000000	0.349102
521.000000	0.349401
522.000000	0.349521
523.000000	0.349934
524.000000	0.350198
525.000000	0.350339
526.000000	0.350678
527.000000	0.350955
528.000000	0.351207
529.000000	0.351572
530.000000	0.351895
531.000000	0.352145
532.000000	0.352260
533.000000	0.352533
534.000000	0.352846
535.000000	0.353121
536.000000	0.353352
537.000000	0.353526
538.000000	0.353711
539.000000	0.353982
540.000000	0.354271
541.000000	0.354517
542.000000	0.354741
543.000000	0.355055
544.000000	0.355375
545.000000	0.355612
546.000000	0.356014
547.000000	0.356298
548.000000	0.356534
549.000000	0.356914
550.000000	0.357213
551.000000	0.357478
552.000000	0.357756
553.000000	0.358061
554.000000	0.358400
555.000000	0.358761
556.000000	0.359050
557.000000	0.359255
558.000000	0.359556
559.000000	0.359935
560.000000	0.360182
561.000000	0.360432
562.000000	0.360789
563.000000	0.361065
564.000000	0.361353
565.000000	0.361643
566.000000	0.361988
567.000000	0.362312
568.000000	0.362567
569.000000	0.362886
570.000000	0.363224
571.000000	0.363536
572.000000	0.363790
573.000000	0.364115
574.000000	0.364406
575.000000	0.364582
576.000000	0.364894
577.000000	0.365190
578.000000	0.365424
579.000000	0.365738
580.000000	0.366014
581.000000	0.366233
582.000000	0.366560
583.000000	0.366832
584.000000	0.367074
585.000000	0.367417
586.000000	0.367676
587.000000	0.367899
588.000000	0.368187
589.000000	0.368573
590.000000	0.368891
591.000000	0.369056
592.000000	0.369183
593.000000	0.369405
594.000000	0.369706
595.000000	0.369914
596.000000	0.370182
597.000000	0.370454
598.000000	0.370495
599.000000	0.370601
600.000000	0.370793
601.000000	0.370957
602.000000	0.371218
603.000000	0.371378
604.000000	0.371416
605.000000	0.371584
606.000000	0.371763
607.000000	0.371928
608.000000	0.372096
609.000000	0.372255
610.000000	0.372401
611.000000	0.372541
612.000000	0.372750
613.000000	0.372900
614.000000	0.372984
615.000000	0.373137
616.000000	0.373355
617.000000	0.373533
618.000000	0.373572
619.000000	0.373635
620.000000	0.373734
621.000000	0.373895
622.000000	0.374025
623.000000	0.374146
624.000000	0.374279
625.000000	0.374347
626.000000	0.374521
627.000000	0.374812
628.000000	0.374964
629.000000	0.375164
630.000000	0.375274
631.000000	0.375359
632.000000	0.375507
633.000000	0.375666
634.000000	0.375748
635.000000	0.375807
636.000000	0.375893
637.000000	0.376019
638.000000	0.376223
639.000000	0.376407
640.000000	0.376607
641.000000	0.376756
642.000000	0.376861
643.000000	0.376963
644.000000	0.377113
645.000000	0.377285
646.000000	0.377376
647.000000	0.377332
648.000000	0.377440
649.000000	0.377540
650.000000	0.377578
651.000000	0.377713
652.000000	0.377830
653.000000	0.377960
654.000000	0.378087
655.000000	0.378224
656.000000	0.378443
657.000000	0.378700
658.000000	0.378862
659.000000	0.378998
660.000000	0.379140
661.000000	0.379327
662.000000	0.379459
663.000000	0.379592
664.000000	0.379740
665.000000	0.379924
666.000000	0.380119
667.000000	0.380245
668.000000	0.380266
669.000000	0.380330
670.000000	0.380491
671.000000	0.380542
672.000000	0.380689
673.000000	0.380922
674.000000	0.381090
675.000000	0.381152
676.000000	0.381205
677.000000	0.381385
678.000000	0.381548
679.000000	0.381689
680.000000	0.381818
681.000000	0.381889
682.000000	0.382000
683.000000	0.382104
684.000000	0.382303
685.000000	0.382490
686.000000	0.382660
687.000000	0.382785
688.000000	0.382991
689.000000	0.383172
690.000000	0.383294
691.000000	0.383449
692.000000	0.383583
693.000000	0.383760
694.000000	0.383953
695.000000	0.384151
696.000000	0.384312
697.000000	0.384406
698.000000	0.384608
699.000000	0.384807
700.000000	0.384908
701.000000	0.384992
702.000000	0.385103
703.000000	0.385220
704.000000	0.385301
705.000000	0.385432
706.000000	0.385580
707.000000	0.385771
708.000000	0.385931
709.000000	0.386060
710.000000	0.386201
711.000000	0.386378
712.000000	0.386557
713.000000	0.386762
714.000000	0.387039
715.000000	0.387247
716.000000	0.387364
717.000000	0.387394
718.000000	0.387482
719.000000	0.387539
720.000000	0.387520
721.000000	0.387621
722.000000	0.387711
723.000000	0.387830
724.000000	0.388034
725.000000	0.388174
726.000000	0.388299
727.000000	0.388340
728.000000	0.388399
729.000000	0.388470
730.000000	0.388496
731.000000	0.388653
732.000000	0.388803
733.000000	0.388929
734.000000	0.389018
735.000000	0.388992
736.000000	0.389008
737.000000	0.388997
738.000000	0.389019
739.000000	0.389139
740.000000	0.389187
741.000000	0.389285
742.000000	0.389409
743.000000	0.389525
744.000000	0.389701
745.000000	0.389727
746.000000	0.389741
747.000000	0.389847
748.000000	0.389948
749.000000	0.390051
750.000000	0.390124
751.000000	0.390168
752.000000	0.390220
753.000000	0.390298
754.000000	0.390365
755.000000	0.390484
756.000000	0.390605
757.000000	0.390607
758.000000	0.390622
759.000000	0.390647
760.000000	0.390628
761.000000	0.390789
762.000000	0.390911
763.000000	0.390946
764.000000	0.391041
765.000000	0.391089
766.000000	0.391126
767.000000	0.391190
768.000000	0.391269
769.000000	0.391295
770.000000	0.391291
771.000000	0.391412
772.000000	0.391484
773.000000	0.391451
774.000000	0.391472
775.000000	0.391449
776.000000	0.391461
777.000000	0.391529
778.000000	0.391539
779.000000	0.391560
780.000000	0.391598
781.000000	0.391577
782.000000	0.391619
783.000000	0.391766
784.000000	0.391811
785.000000	0.391871
786.000000	0.391876
787.000000	0.391817
788.000000	0.391837
789.000000	0.391899
790.000000	0.391957
791.000000	0.392014
792.000000	0.392041
793.000000	0.392088
794.000000	0.392177
795.000000	0.392149
796.000000	0.392142
797.000000	0.392196
798.000000	0.392270
799.000000	0.392278
800.000000	0.392253
801.000000	0.392257
802.000000	0.392237
803.000000	0.392265
804.000000	0.392368
805.000000	0.392307
806.000000	0.392206
807.000000	0.392157
808.000000	0.392072
809.000000	0.392209
810.000000	0.392324
811.000000	0.392222
812.000000	0.392145
813.000000	0.392128
814.000000	0.392162
815.000000	0.392222
816.000000	0.392273
817.000000	0.392265
818.000000	0.392098
819.000000	0.392121
820.000000	0.392225
821.000000	0.392254
822.000000	0.392207
823.000000	0.392150
824.000000	0.392053
825.000000	0.392007
826.000000	0.391977
827.000000	0.391948
828.000000	0.391958
829.000000	0.391942
830.000000	0.391892
831.000000	0.391862
832.000000	0.391739
833.000000	0.391712
834.000000	0.391699
835.000000	0.391661
836.000000	0.391636
837.000000	0.391595
838.000000	0.391540
839.000000	0.391443
840.000000	0.391305
841.000000	0.391167
842.000000	0.391038
843.000000	0.391028
844.000000	0.391102
845.000000	0.391152
846.000000	0.391104
847.000000	0.391013
848.000000	0.390939
849.000000	0.390944
850.000000	0.390832
851.000000	0.390705
852.000000	0.390674
853.000000	0.390701
854.000000	0.390624
855.000000	0.390569
856.000000	0.390495
857.000000	0.390398
858.000000	0.390379
859.000000	0.390354
860.000000	0.390237
861.000000	0.390183
862.000000	0.390116
863.000000	0.389825
864.000000	0.389620
865.000000	0.389504
866.000000	0.389438
867.000000	0.389229
868.000000	0.389193
869.000000	0.389165
870.000000	0.388974
871.000000	0.388835
872.000000	0.388758
873.000000	0.388682
874.000000	0.388745
875.000000	0.388652
876.000000	0.388493
877.000000	0.388414
878.000000	0.388329
879.000000	0.388141
880.000000	0.387713
881.000000	0.387479
882.000000	0.387311
883.000000	0.387182
884.000000	0.387012
885.000000	0.386882
886.000000	0.386686
887.000000	0.386460
888.000000	0.386420
889.000000	0.386350
890.000000	0.386103
891.000000	0.385883
892.000000	0.385870
893.000000	0.385757
894.000000	0.385559
895.000000	0.385378
896.000000	0.385111
897.000000	0.384905
898.000000	0.384909
899.000000	0.384709
900.000000	0.384442
901.000000	0.384166
902.000000	0.383954
903.000000	0.383739
904.000000	0.383602
905.000000	0.383501
906.000000	0.383474
907.000000	0.383359
908.000000	0.383153
909.000000	0.382813
910.000000	0.382519
911.000000	0.382391
912.000000	0.382400
913.000000	0.381953
914.000000	0.381555
915.000000	0.381421
916.000000	0.381306
917.000000	0.381164
918.000000	0.380949
919.000000	0.380639
920.000000	0.380386
921.000000	0.380093
922.000000	0.379835
923.000000	0.379697
924.000000	0.379437
925.000000	0.379205
926.000000	0.379110
927.000000	0.378979
928.000000	0.378801
929.000000	0.378534
930.000000	0.378194
931.000000	0.378089
932.000000	0.377832
933.000000	0.377403
934.000000	0.377080
935.000000	0.376844
936.000000	0.376679
937.000000	0.376445
938.000000	0.376227
939.000000	0.376059
940.000000	0.375857
941.000000	0.375662
942.000000	0.375350
943.000000	0.375106
944.000000	0.374840
945.000000	0.374435
946.000000	0.374011
947.000000	0.373696
948.000000	0.373478
949.000000	0.373161
950.000000	0.372943
951.000000	0.372881
952.000000	0.373011
953.000000	0.372933
954.000000	0.372621
955.000000	0.372128
956.000000	0.371841
957.000000	0.371634
958.000000	0.371389
959.000000	0.371172
960.000000	0.371060
961.000000	0.370846
962.000000	0.370502
963.000000	0.370303
964.000000	0.369903
965.000000	0.369607
966.000000	0.369530
967.000000	0.369532
968.000000	0.369107
969.000000	0.368541
970.000000	0.368535
971.000000	0.368254
972.000000	0.367965
973.000000	0.367770
974.000000	0.367688
975.000000	0.367475
976.000000	0.367308
977.000000	0.367256
978.000000	0.366797
979.000000	0.366495
980.000000	0.366258
981.000000	0.366259
982.000000	0.366144
983.000000	0.366088
984.000000	0.366115
985.000000	0.365866
986.000000	0.365411
987.000000	0.365065
988.000000	0.364917
989.000000	0.365011
990.000000	0.364807
991.000000	0.364366
992.000000	0.364053
993.000000	0.364138
994.000000	0.363951
995.000000	0.363703
996.000000	0.363738
997.000000	0.363832
998.000000	0.363729
999.000000	0.363416
1000.000000	0.362932
1001.000000	0.363453
1002.000000	0.363405
1003.000000	0.363219
1004.000000	0.363136
1005.000000	0.363153
1006.000000	0.362796
1007.000000	0.362486
1008.000000	0.361715
1009.000000	0.360651
1010.000000	0.359807
1011.000000	0.359953
1012.000000	0.360712
1013.000000	0.361093
1014.000000	0.360926
1015.000000	0.360295
1016.000000	0.359717
1017.000000	0.359580
1018.000000	0.360065
1019.000000	0.360164
1020.000000	0.360299
1021.000000	0.360070
1022.000000	0.359819
1023.000000	0.359723
1024.000000	0.359288
1025.000000	0.359548
1026.000000	0.359745
1027.000000	0.359727
1028.000000	0.359930
1029.000000	0.360466
1030.000000	0.360647
1031.000000	0.360757
1032.000000	0.361178
1033.000000	0.361420
1034.000000	0.361373
1035.000000	0.360937
1036.000000	0.360928
1037.000000	0.361032
1038.000000	0.360827
1039.000000	0.360615
1040.000000	0.361083
1041.000000	0.361056
1042.000000	0.360613
1043.000000	0.360666
1044.000000	0.360976
1045.000000	0.361283
1046.000000	0.361414
1047.000000	0.361629
1048.000000	0.361876
1049.000000	0.361994
1050.000000	0.362156
1051.000000	0.362205
1052.000000	0.361967
1053.000000	0.361935
1054.000000	0.362167
1055.000000	0.362299
1056.000000	0.362390
1057.000000	0.362923
1058.000000	0.362998
1059.000000	0.362738
1060.000000	0.362873
1061.000000	0.362964
1062.000000	0.363252
1063.000000	0.363450
1064.000000	0.363570
1065.000000	0.363537
1066.000000	0.363614
1067.000000	0.363447
1068.000000	0.363619
1069.000000	0.364049
1070.000000	0.364212
1071.000000	0.364536
1072.000000	0.364828
1073.000000	0.365017
1074.000000	0.365185
1075.000000	0.365574
1076.000000	0.365776
1077.000000	0.365621
1078.000000	0.365492
1079.000000	0.365561
1080.000000	0.365628
1081.000000	0.365873
1082.000000	0.366592
1083.000000	0.366896
1084.000000	0.367080
1085.000000	0.367313
1086.000000	0.367453
1087.000000	0.367612
1088.000000	0.367626
1089.000000	0.367780
1090.000000	0.368066
1091.000000	0.367946
1092.000000	0.368225
1093.000000	0.368726
1094.000000	0.369021
1095.000000	0.369214
1096.000000	0.369503
1097.000000	0.369817
1098.000000	0.370047
1099.000000	0.370142
1100.000000	0.370411
1101.000000	0.370750
1102.000000	0.370871
1103.000000	0.370723
1104.000000	0.371040
1105.000000	0.371596
1106.000000	0.371852
1107.000000	0.372390
1108.000000	0.372609
1109.000000	0.372301
1110.000000	0.372071
1111.000000	0.372204
1112.000000	0.372615
1113.000000	0.372747
1114.000000	0.373065
1115.000000	0.373114
1116.000000	0.372748
1117.000000	0.372796
1118.000000	0.372920
1119.000000	0.373079
1120.000000	0.373627
1121.000000	0.373733
1122.000000	0.373794
1123.000000	0.373947
1124.000000	0.373364
1125.000000	0.373312
1126.000000	0.373542
1127.000000	0.373610
1128.000000	0.373711
1129.000000	0.374062
1130.000000	0.374232
1131.000000	0.374307
1132.000000	0.374288
1133.000000	0.374260
1134.000000	0.374340
1135.000000	0.374227
1136.000000	0.374281
1137.000000	0.374594
1138.000000	0.374673
1139.000000	0.374739
1140.000000	0.374903
1141.000000	0.374985
1142.000000	0.375098
1143.000000	0.375222
1144.000000	0.375403
1145.000000	0.375428
1146.000000	0.375290
1147.000000	0.375283
1148.000000	0.375138
1149.000000	0.375150
1150.000000	0.375307
1151.000000	0.375371
1152.000000	0.375322
1153.000000	0.375430
1154.000000	0.375590
1155.000000	0.375627
1156.000000	0.375716
1157.000000	0.375764
1158.000000	0.375570
1159.000000	0.375531
1160.000000	0.375599
1161.000000	0.375613
1162.000000	0.375678
1163.000000	0.375912
1164.000000	0.376018
1165.000000	0.376021
1166.000000	0.376126
1167.000000	0.376229
1168.000000	0.376203
1169.000000	0.376170
1170.000000	0.376181
1171.000000	0.376176
1172.000000	0.376191
1173.000000	0.376210
1174.000000	0.376256
1175.000000	0.376214
1176.000000	0.376216
1177.000000	0.376436
1178.000000	0.376511
1179.000000	0.376563
1180.000000	0.376483
1181.000000	0.376277
1182.000000	0.376233
1183.000000	0.376402
1184.000000	0.376372
1185.000000	0.376415
1186.000000	0.376583
1187.000000	0.376642
1188.000000	0.376639
1189.000000	0.376608
1190.000000	0.376639
1191.000000	0.376590
1192.000000	0.376485
1193.000000	0.376590
1194.000000	0.376662
1195.000000	0.376743
1196.000000	0.376855
1197.000000	0.376924
1198.000000	0.377028
1199.000000	0.377054
1200.000000	0.377058
1201.000000	0.376975
1202.000000	0.376759
1203.000000	0.376628
1204.000000	0.376610
1205.000000	0.376603
1206.000000	0.376521
1207.000000	0.376607
1208.000000	0.376546
1209.000000	0.376343
1210.000000	0.376402
1211.000000	0.376626
1212.000000	0.376710
1213.000000	0.377020
1214.000000	0.377036
1215.000000	0.376758
1216.000000	0.376641
1217.000000	0.376325
1218.000000	0.376201
1219.000000	0.376268
1220.000000	0.376374
1221.000000	0.376451
1222.000000	0.376591
1223.000000	0.376713
1224.000000	0.376675
1225.000000	0.376434
1226.000000	0.376253
1227.000000	0.376031
1228.000000	0.375840
1229.000000	0.375837
1230.000000	0.376114
1231.000000	0.376107
1232.000000	0.376223
1233.000000	0.376376
1234.000000	0.376449
1235.000000	0.376448
1236.000000	0.376350
1237.000000	0.376357
1238.000000	0.376197
1239.000000	0.376104
1240.000000	0.376141
1241.000000	0.376152
1242.000000	0.375977
1243.000000	0.375854
1244.000000	0.375804
1245.000000	0.375977
1246.000000	0.376110
1247.000000	0.376173
1248.000000	0.376143
1249.000000	0.375945
1250.000000	0.375772
1251.000000	0.375712
1252.000000	0.375602
1253.000000	0.375493
1254.000000	0.375444
1255.000000	0.375402
1256.000000	0.375439
1257.000000	0.375593
1258.000000	0.375796
1259.000000	0.376053
1260.000000	0.376180
1261.000000	0.376236
1262.000000	0.376251
1263.000000	0.376151
1264.000000	0.376050
1265.000000	0.376084
1266.000000	0.376091
1267.000000	0.376221
1268.000000	0.376381
1269.000000	0.376382
1270.000000	0.376445
1271.000000	0.376305
1272.000000	0.376118
1273.000000	0.376197
1274.000000	0.376096
1275.000000	0.376000
1276.000000	0.376025
1277.000000	0.376058
1278.000000	0.375872
1279.000000	0.375819
1280.000000	0.375786
1281.000000	0.375639
1282.000000	0.375506
1283.000000	0.375514
1284.000000	0.375513
1285.000000	0.375514
1286.000000	0.375587
1287.000000	0.375446
1288.000000	0.375413
1289.000000	0.375336
1290.000000	0.375142
1291.000000	0.375078
1292.000000	0.375061
1293.000000	0.374969
1294.000000	0.374979
1295.000000	0.375062
1296.000000	0.374964
1297.000000	0.374852
1298.000000	0.374848
1299.000000	0.374838
1300.000000	0.374831
1301.000000	0.374754
1302.000000	0.374644
1303.000000	0.374556
1304.000000	0.374417
1305.000000	0.374387
1306.000000	0.374371
1307.000000	0.374400
1308.000000	0.374400
1309.000000	0.374465
1310.000000	0.374422
1311.000000	0.374292
1312.000000	0.374156
1313.000000	0.374117
1314.000000	0.374057
1315.000000	0.373959
1316.000000	0.373884
1317.000000	0.373728
1318.000000	0.373591
1319.000000	0.373567
1320.000000	0.373525
1321.000000	0.373353
1322.000000	0.373216
1323.000000	0.373041
1324.000000	0.372872
1325.000000	0.372849
1326.000000	0.372819
1327.000000	0.372807
1328.000000	0.372823
1329.000000	0.372613
1330.000000	0.372224
1331.000000	0.372046
1332.000000	0.371856
1333.000000	0.371661
1334.000000	0.371768
1335.000000	0.371650
1336.000000	0.371220
1337.000000	0.371038
1338.000000	0.370877
1339.000000	0.370729
1340.000000	0.370660
1341.000000	0.370716
1342.000000	0.370798
1343.000000	0.370769
1344.000000	0.370721
1345.000000	0.370800
1346.000000	0.370833
1347.000000	0.370665
1348.000000	0.370541
1349.000000	0.370282
1350.000000	0.370124
1351.000000	0.370003
1352.000000	0.369873
1353.000000	0.369850
1354.000000	0.369816
1355.000000	0.369622
1356.000000	0.369569
1357.000000	0.369438
1358.000000	0.369072
1359.000000	0.368887
1360.000000	0.368699
1361.000000	0.368492
1362.000000	0.368291
1363.000000	0.368207
1364.000000	0.368001
1365.000000	0.367616
1366.000000	0.367380
1367.000000	0.367220
1368.000000	0.366887
1369.000000	0.366774
1370.000000	0.366649
1371.000000	0.366237
1372.000000	0.365735
1373.000000	0.365180
1374.000000	0.364483
1375.000000	0.363568
1376.000000	0.362904
1377.000000	0.362195
1378.000000	0.361001
1379.000000	0.359692
1380.000000	0.358036
1381.000000	0.355767
1382.000000	0.353232
1383.000000	0.350830
1384.000000	0.348421
1385.000000	0.345948
1386.000000	0.343785
1387.000000	0.341828
1388.000000	0.340107
1389.000000	0.338900
1390.000000	0.338117
1391.000000	0.337580
1392.000000	0.337384
1393.000000	0.337361
1394.000000	0.337728
1395.000000	0.338061
1396.000000	0.338650
1397.000000	0.338974
1398.000000	0.339320
1399.000000	0.339385
1400.000000	0.339311
1401.000000	0.338979
1402.000000	0.338416
1403.000000	0.337776
1404.000000	0.337158
1405.000000	0.336417
1406.000000	0.335865
1407.000000	0.335356
1408.000000	0.334614
1409.000000	0.334079
1410.000000	0.333651
1411.000000	0.333202
1412.000000	0.332975
1413.000000	0.332859
1414.000000	0.332733
1415.000000	0.332691
1416.000000	0.332663
1417.000000	0.332641
1418.000000	0.332702
1419.000000	0.332800
1420.000000	0.332806
1421.000000	0.333031
1422.000000	0.333234
1423.000000	0.333456
1424.000000	0.333711
1425.000000	0.333979
1426.000000	0.334175
1427.000000	0.334297
1428.000000	0.334445
1429.000000	0.334597
1430.000000	0.334729
1431.000000	0.334910
1432.000000	0.335086
1433.000000	0.335354
1434.000000	0.335482
1435.000000	0.335661
1436.000000	0.335740
1437.000000	0.335678
1438.000000	0.335691
1439.000000	0.335707
1440.000000	0.335804
1441.000000	0.336031
1442.000000	0.336121
1443.000000	0.336087
1444.000000	0.336174
1445.000000	0.336159
1446.000000	0.336115
1447.000000	0.336220
1448.000000	0.336340
1449.000000	0.336408
1450.000000	0.336497
1451.000000	0.336527
1452.000000	0.336449
1453.000000	0.336482
1454.000000	0.336490
1455.000000	0.336511
1456.000000	0.336697
1457.000000	0.336750
1458.000000	0.336694
1459.000000	0.336648
1460.000000	0.336501
1461.000000	0.336462
1462.000000	0.336609
1463.000000	0.336668
1464.000000	0.336778
1465.000000	0.336903
1466.000000	0.336920
1467.000000	0.337208
1468.000000	0.337515
1469.000000	0.337692
1470.000000	0.337886
1471.000000	0.338088
1472.000000	0.338245
1473.000000	0.338506
1474.000000	0.338781
1475.000000	0.339030
1476.000000	0.339254
1477.000000	0.339585
1478.000000	0.340012
1479.000000	0.340273
1480.000000	0.340536
1481.000000	0.340833
1482.000000	0.341124
1483.000000	0.341476
1484.000000	0.341962
1485.000000	0.342292
1486.000000	0.342532
1487.000000	0.342828
1488.000000	0.343097
1489.000000	0.343445
1490.000000	0.343748
1491.000000	0.344035
1492.000000	0.344254
1493.000000	0.344524
1494.000000	0.344749
1495.000000	0.345035
1496.000000	0.345349
1497.000000	0.345675
1498.000000	0.346053
1499.000000	0.346443
1500.000000	0.346770
1501.000000	0.347068
1502.000000	0.347364
1503.000000	0.347560
1504.000000	0.347806
1505.000000	0.348099
1506.000000	0.348331
1507.000000	0.348590
1508.000000	0.348845
1509.000000	0.349033
1510.000000	0.349171
1511.000000	0.349246
1512.000000	0.349382
1513.000000	0.349615
1514.000000	0.349764
1515.000000	0.349971
1516.000000	0.350114
1517.000000	0.349988
1518.000000	0.350027
1519.000000	0.350047
1520.000000	0.350145
1521.000000	0.350412
1522.000000	0.350720
1523.000000	0.351053
1524.000000	0.351133
1525.000000	0.351134
1526.000000	0.351143
1527.000000	0.351144
1528.000000	0.351254
1529.000000	0.351317
1530.000000	0.351278
1531.000000	0.351387
1532.000000	0.351587
1533.000000	0.351748
1534.000000	0.351948
1535.000000	0.352133
1536.000000	0.352160
1537.000000	0.352322
1538.000000	0.352500
1539.000000	0.352546
1540.000000	0.352678
1541.000000	0.352856
1542.000000	0.353090
1543.000000	0.353293
1544.000000	0.353448
1545.000000	0.353671
1546.000000	0.353784
1547.000000	0.353933
1548.000000	0.354205
1549.000000	0.354385
1550.000000	0.354491
1551.000000	0.354624
1552.000000	0.354662
1553.000000	0.354653
1554.000000	0.354761
1555.000000	0.354898
1556.000000	0.354919
1557.000000	0.354879
1558.000000	0.354936
1559.000000	0.354893
1560.000000	0.354896
1561.000000	0.355091
1562.000000	0.355097
1563.000000	0.355003
1564.000000	0.355050
1565.000000	0.355097
1566.000000	0.355101
1567.000000	0.355304
1568.000000	0.355340
1569.000000	0.355357
1570.000000	0.355354
1571.000000	0.355209
1572.000000	0.355249
1573.000000	0.355364
1574.000000	0.355432
1575.000000	0.355695
1576.000000	0.355788
1577.000000	0.355727
1578.000000	0.355718
1579.000000	0.355672
1580.000000	0.355707
1581.000000	0.355925
1582.000000	0.355974
1583.000000	0.355980
1584.000000	0.355970
1585.000000	0.355955
1586.000000	0.355932
1587.000000	0.355941
1588.000000	0.355935
1589.000000	0.355892
1590.000000	0.355844
1591.000000	0.355802
1592.000000	0.355795
1593.000000	0.355831
1594.000000	0.355791
1595.000000	0.355800
1596.000000	0.355860
1597.000000	0.355879
1598.000000	0.355942
1599.000000	0.356211
1600.000000	0.356250
1601.000000	0.356233
1602.000000	0.356250
1603.000000	0.356220
1604.000000	0.356227
1605.000000	0.356302
1606.000000	0.356360
1607.000000	0.356519
1608.000000	0.356540
1609.000000	0.356524
1610.000000	0.356547
1611.000000	0.356524
1612.000000	0.356536
1613.000000	0.356767
1614.000000	0.356820
1615.000000	0.356832
1616.000000	0.356885
1617.000000	0.356821
1618.000000	0.356818
1619.000000	0.356847
1620.000000	0.356884
1621.000000	0.356979
1622.000000	0.357086
1623.000000	0.357182
1624.000000	0.357229
1625.000000	0.357079
1626.000000	0.356997
1627.000000	0.356934
1628.000000	0.356951
1629.000000	0.357030
1630.000000	0.357084
1631.000000	0.357059
1632.000000	0.357058
1633.000000	0.357078
1634.000000	0.357080
1635.000000	0.357150
1636.000000	0.357187
1637.000000	0.357206
1638.000000	0.357264
1639.000000	0.357429
1640.000000	0.357475
1641.000000	0.357560
1642.000000	0.357571
1643.000000	0.357520
1644.000000	0.357531
1645.000000	0.357598
1646.000000	0.357514
1647.000000	0.357365
1648.000000	0.357264
1649.000000	0.357205
1650.000000	0.357146
1651.000000	0.357169
1652.000000	0.357263
1653.000000	0.357292
1654.000000	0.357370
1655.000000	0.357509
1656.000000	0.357515
1657.000000	0.357545
1658.000000	0.357518
1659.000000	0.357578
1660.000000	0.357607
1661.000000	0.357417
1662.000000	0.357436
1663.000000	0.357536
1664.000000	0.357589
1665.000000	0.357705
1666.000000	0.357854
1667.000000	0.357841
1668.000000	0.357964
1669.000000	0.358188
1670.000000	0.358287
1671.000000	0.358534
1672.000000	0.358653
1673.000000	0.358625
1674.000000	0.358653
1675.000000	0.358621
1676.000000	0.358705
1677.000000	0.358851
1678.000000	0.358723
1679.000000	0.358765
1680.000000	0.358647
1681.000000	0.358302
1682.000000	0.358371
1683.000000	0.358447
1684.000000	0.358357
1685.000000	0.358394
1686.000000	0.358258
1687.000000	0.358051
1688.000000	0.357992
1689.000000	0.357957
1690.000000	0.357797
1691.000000	0.357776
1692.000000	0.357763
1693.000000	0.357881
1694.000000	0.358102
1695.000000	0.358130
1696.000000	0.357998
1697.000000	0.357910
1698.000000	0.357850
1699.000000	0.357870
1700.000000	0.358017
1701.000000	0.358151
1702.000000	0.358084
1703.000000	0.358001
1704.000000	0.357937
1705.000000	0.357930
1706.000000	0.358096
1707.000000	0.358086
1708.000000	0.357917
1709.000000	0.357776
1710.000000	0.357612
1711.000000	0.357563
1712.000000	0.357733
1713.000000	0.357737
1714.000000	0.357758
1715.000000	0.357693
1716.000000	0.357488
1717.000000	0.357368
1718.000000	0.357190
1719.000000	0.357050
1720.000000	0.357021
1721.000000	0.356973
1722.000000	0.356902
1723.000000	0.356932
1724.000000	0.357116
1725.000000	0.357157
1726.000000	0.357009
1727.000000	0.357093
1728.000000	0.357209
1729.000000	0.357111
1730.000000	0.357232
1731.000000	0.357226
1732.000000	0.356993
1733.000000	0.356905
1734.000000	0.356737
1735.000000	0.356702
1736.000000	0.356611
1737.000000	0.356577
1738.000000	0.356784
1739.000000	0.356736
1740.000000	0.356443
1741.000000	0.356448
1742.000000	0.356518
1743.000000	0.356703
1744.000000	0.357111
1745.000000	0.357183
1746.000000	0.357149
1747.000000	0.357013
1748.000000	0.356900
1749.000000	0.356853
1750.000000	0.356766
1751.000000	0.356810
1752.000000	0.356922
1753.000000	0.356896
1754.000000	0.356910
1755.000000	0.356975
1756.000000	0.356907
1757.000000	0.356721
1758.000000	0.356643
1759.000000	0.356510
1760.000000	0.356400
1761.000000	0.356263
1762.000000	0.356257
1763.000000	0.356456
1764.000000	0.356404
1765.000000	0.356344
1766.000000	0.356192
1767.000000	0.355576
1768.000000	0.355256
1769.000000	0.355207
1770.000000	0.355146
1771.000000	0.355125
1772.000000	0.355080
1773.000000	0.354966
1774.000000	0.354935
1775.000000	0.355050
1776.000000	0.355045
1777.000000	0.355031
1778.000000	0.354898
1779.000000	0.354577
1780.000000	0.354446
1781.000000	0.354285
1782.000000	0.354226
1783.000000	0.354357
1784.000000	0.354483
1785.000000	0.354345
1786.000000	0.354353
1787.000000	0.354523
1788.000000	0.354643
1789.000000	0.354749
1790.000000	0.354994
1791.000000	0.355009
1792.000000	0.354922
1793.000000	0.354969
1794.000000	0.354970
1795.000000	0.355017
1796.000000	0.355308
1797.000000	0.355402
1798.000000	0.355276
1799.000000	0.355202
1800.000000	0.355176
1801.000000	0.355166
1802.000000	0.355051
1803.000000	0.355436
1804.000000	0.355735
1805.000000	0.356142
1806.000000	0.356345
1807.000000	0.356744
1808.000000	0.356976
1809.000000	0.357007
1810.000000	0.356729
1811.000000	0.356795
1812.000000	0.356962
1813.000000	0.357144
1814.000000	0.357553
1815.000000	0.357743
1816.000000	0.357909
1817.000000	0.357882
1818.000000	0.357727
1819.000000	0.357790
1820.000000	0.357490
1821.000000	0.357191
1822.000000	0.356844
1823.000000	0.355945
1824.000000	0.355640
1825.000000	0.355474
1826.000000	0.355622
1827.000000	0.355866
1828.000000	0.356752
1829.000000	0.357221
1830.000000	0.356824
1831.000000	0.356708
1832.000000	0.355977
1833.000000	0.355905
1834.000000	0.356864
1835.000000	0.356451
1836.000000	0.355234
1837.000000	0.354457
1838.000000	0.352593
1839.000000	0.351185
1840.000000	0.351563
1841.000000	0.352257
1842.000000	0.352616
1843.000000	0.353703
1844.000000	0.353956
1845.000000	0.353373
1846.000000	0.353305
1847.000000	0.353245
1848.000000	0.352741
1849.000000	0.352807
1850.000000	0.352064
1851.000000	0.351371
1852.000000	0.350092
1853.000000	0.349680
1854.000000	0.348962
1855.000000	0.349008
1856.000000	0.349990
1857.000000	0.350559
1858.000000	0.350329
1859.000000	0.350266
1860.000000	0.349141
1861.000000	0.347890
1862.000000	0.347024
1863.000000	0.346312
1864.000000	0.345646
1865.000000	0.345442
1866.000000	0.344724
1867.000000	0.343829
1868.000000	0.343006
1869.000000	0.341689
1870.000000	0.339934
1871.000000	0.338167
1872.000000	0.336342
1873.000000	0.334307
1874.000000	0.331693
1875.000000	0.329778
1876.000000	0.328039
1877.000000	0.325543
1878.000000	0.323440
1879.000000	0.321416
1880.000000	0.318399
1881.000000	0.315815
1882.000000	0.313264
1883.000000	0.309668
1884.000000	0.306314
1885.000000	0.302633
1886.000000	0.298761
1887.000000	0.294355
1888.000000	0.290728
1889.000000	0.286558
1890.000000	0.282443
1891.000000	0.278409
1892.000000	0.273562
1893.000000	0.269405
1894.000000	0.265402
1895.000000	0.261559
1896.000000	0.258070
1897.000000	0.255271
1898.000000	0.251591
1899.000000	0.248695
1900.000000	0.246490
1901.000000	0.243943
1902.000000	0.241879
1903.000000	0.240130
1904.000000	0.238833
1905.000000	0.237534
1906.000000	0.236719
1907.000000	0.236666
1908.000000	0.236934
1909.000000	0.236215
1910.000000	0.236425
1911.000000	0.237090
1912.000000	0.236689
1913.000000	0.237318
1914.000000	0.238219
1915.000000	0.238331
1916.000000	0.239358
1917.000000	0.240312
1918.000000	0.241601
1919.000000	0.242677
1920.000000	0.243368
1921.000000	0.243934
1922.000000	0.244742
1923.000000	0.244823
1924.000000	0.245341
1925.000000	0.246308
1926.000000	0.246489
1927.000000	0.246973
1928.000000	0.247210
1929.000000	0.247293
1930.000000	0.247089
1931.000000	0.247863
1932.000000	0.248833
1933.000000	0.250124
1934.000000	0.251517
1935.000000	0.252252
1936.000000	0.252330
1937.000000	0.252573
1938.000000	0.252951
1939.000000	0.253285
1940.000000	0.253544
1941.000000	0.254257
1942.000000	0.254842
1943.000000	0.255056
1944.000000	0.255462
1945.000000	0.255776
1946.000000	0.256107
1947.000000	0.256715
1948.000000	0.257240
1949.000000	0.257694
1950.000000	0.258187
1951.000000	0.258534
1952.000000	0.258946
1953.000000	0.259065
1954.000000	0.258931
1955.000000	0.258568
1956.000000	0.258254
1957.000000	0.257944
1958.000000	0.258027
1959.000000	0.258517
1960.000000	0.258388
1961.000000	0.258708
1962.000000	0.259049
1963.000000	0.259489
1964.000000	0.259734
1965.000000	0.260553
1966.000000	0.260954
1967.000000	0.261719
1968.000000	0.263054
1969.000000	0.263712
1970.000000	0.264483
1971.000000	0.265177
1972.000000	0.265442
1973.000000	0.265598
1974.000000	0.265774
1975.000000	0.266016
1976.000000	0.266085
1977.000000	0.266258
1978.000000	0.266489
1979.000000	0.267212
1980.000000	0.268555
1981.000000	0.269697
1982.000000	0.270764
1983.000000	0.272028
1984.000000	0.272470
1985.000000	0.271750
1986.000000	0.271896
1987.000000	0.272090
1988.000000	0.272330
1989.000000	0.273277
1990.000000	0.274198
1991.000000	0.274593
1992.000000	0.274965
1993.000000	0.275457
1994.000000	0.276111
1995.000000	0.276998
1996.000000	0.278280
1997.000000	0.278908
1998.000000	0.278970
1999.000000	0.279224
2000.000000	0.279282
2001.000000	0.279228
2002.000000	0.279688
2003.000000	0.281114
2004.000000	0.282127
2005.000000	0.283011
2006.000000	0.283888
2007.000000	0.284357
2008.000000	0.284955
2009.000000	0.285462
2010.000000	0.286292
2011.000000	0.287236
2012.000000	0.287989
2013.000000	0.288889
2014.000000	0.289448
2015.000000	0.289857
2016.000000	0.289732
2017.000000	0.289970
2018.000000	0.290582
2019.000000	0.291217
2020.000000	0.292157
2021.000000	0.292841
2022.000000	0.293401
2023.000000	0.294062
2024.000000	0.294628
2025.000000	0.295242
2026.000000	0.295861
2027.000000	0.296644
2028.000000	0.296679
2029.000000	0.297118
2030.000000	0.297792
2031.000000	0.297929
2032.000000	0.298231
2033.000000	0.298674
2034.000000	0.299110
2035.000000	0.299414
2036.000000	0.299780
2037.000000	0.300858
2038.000000	0.301271
2039.000000	0.301110
2040.000000	0.301590
2041.000000	0.302129
2042.000000	0.302079
2043.000000	0.302951
2044.000000	0.304061
2045.000000	0.304523
2046.000000	0.304835
2047.000000	0.304844
2048.000000	0.303715
2049.000000	0.304042
2050.000000	0.304755
2051.000000	0.305085
2052.000000	0.306012
2053.000000	0.306349
2054.000000	0.306174
2055.000000	0.306169
2056.000000	0.306748
2057.000000	0.307520
2058.000000	0.308186
2059.000000	0.308841
2060.000000	0.309452
2061.000000	0.310158
2062.000000	0.310279
2063.000000	0.310252
2064.000000	0.310077
2065.000000	0.309225
2066.000000	0.309059
2067.000000	0.309627
2068.000000	0.310043
2069.000000	0.310435
2070.000000	0.310856
2071.000000	0.310526
2072.000000	0.310427
2073.000000	0.310461
2074.000000	0.310639
2075.000000	0.310968
2076.000000	0.311608
2077.000000	0.311977
2078.000000	0.312327
2079.000000	0.312645
2080.000000	0.313066
2081.000000	0.313367
2082.000000	0.313522
2083.000000	0.313874
2084.000000	0.313948
2085.000000	0.314238
2086.000000	0.314431
2087.000000	0.314219
2088.000000	0.314439
2089.000000	0.314355
2090.000000	0.314672
2091.000000	0.315744
2092.000000	0.316207
2093.000000	0.316513
2094.000000	0.316869
2095.000000	0.316806
2096.000000	0.317023
2097.000000	0.317502
2098.000000	0.317655
2099.000000	0.317971
2100.000000	0.318476
2101.000000	0.318303
2102.000000	0.318658
2103.000000	0.319332
2104.000000	0.319521
2105.000000	0.320027
2106.000000	0.321270
2107.000000	0.321586
2108.000000	0.321290
2109.000000	0.321330
2110.000000	0.320660
2111.000000	0.320591
2112.000000	0.320913
2113.000000	0.320921
2114.000000	0.321338
2115.000000	0.321566
2116.000000	0.320958
2117.000000	0.320605
2118.000000	0.320537
2119.000000	0.320531
2120.000000	0.321075
2121.000000	0.322580
2122.000000	0.323562
2123.000000	0.324896
2124.000000	0.325434
2125.000000	0.325558
2126.000000	0.325551
2127.000000	0.324895
2128.000000	0.324645
2129.000000	0.324551
2130.000000	0.324095
2131.000000	0.323818
2132.000000	0.323092
2133.000000	0.321693
2134.000000	0.321744
2135.000000	0.321606
2136.000000	0.320811
2137.000000	0.321078
2138.000000	0.322159
2139.000000	0.322874
2140.000000	0.324373
2141.000000	0.325100
2142.000000	0.325076
2143.000000	0.325260
2144.000000	0.325497
2145.000000	0.325892
2146.000000	0.326725
2147.000000	0.327561
2148.000000	0.327906
2149.000000	0.327464
2150.000000	0.326957
2151.000000	0.326433
2152.000000	0.325883
2153.000000	0.325583
2154.000000	0.325283
2155.000000	0.325199
2156.000000	0.324818
2157.000000	0.323940
2158.000000	0.324055
2159.000000	0.324764
2160.000000	0.325330
2161.000000	0.327169
2162.000000	0.327638
2163.000000	0.326453
2164.000000	0.325920
2165.000000	0.325067
2166.000000	0.324371
2167.000000	0.324713
2168.000000	0.325803
2169.000000	0.326253
2170.000000	0.326406
2171.000000	0.326186
2172.000000	0.325461
2173.000000	0.324681
2174.000000	0.323039
2175.000000	0.322774
2176.000000	0.322658
2177.000000	0.322969
2178.000000	0.325185
2179.000000	0.326211
2180.000000	0.326771
2181.000000	0.327447
2182.000000	0.327244
2183.000000	0.326592
2184.000000	0.326909
2185.000000	0.327075
2186.000000	0.327918
2187.000000	0.327867
2188.000000	0.327391
2189.000000	0.326925
2190.000000	0.325637
2191.000000	0.326232
2192.000000	0.325947
2193.000000	0.325428
2194.000000	0.324963
2195.000000	0.324258
2196.000000	0.324059
2197.000000	0.324518
2198.000000	0.324138
2199.000000	0.324631
2200.000000	0.323949
2201.000000	0.320167
2202.000000	0.318942
2203.000000	0.320090
2204.000000	0.317003
2205.000000	0.316553
2206.000000	0.320434
2207.000000	0.321372
2208.000000	0.323252
2209.000000	0.322620
2210.000000	0.322347
2211.000000	0.322764
2212.000000	0.322524
2213.000000	0.322767
2214.000000	0.324727
2215.000000	0.323990
2216.000000	0.321272
2217.000000	0.320257
2218.000000	0.318800
2219.000000	0.317807
2220.000000	0.318015
2221.000000	0.317356
2222.000000	0.315539
2223.000000	0.314870
2224.000000	0.314029
2225.000000	0.315200
2226.000000	0.315665
2227.000000	0.316410
2228.000000	0.317308
2229.000000	0.316767
2230.000000	0.317585
2231.000000	0.319659
2232.000000	0.317875
2233.000000	0.317328
2234.000000	0.317720
2235.000000	0.316484
2236.000000	0.317272
2237.000000	0.321481
2238.000000	0.322402
2239.000000	0.322686
2240.000000	0.321943
2241.000000	0.319085
2242.000000	0.317583
2243.000000	0.314619
2244.000000	0.313935
2245.000000	0.315596
2246.000000	0.316241
2247.000000	0.317941
2248.000000	0.319060
2249.000000	0.319878
2250.000000	0.319886
2251.000000	0.319552
2252.000000	0.318784
2253.000000	0.317266
2254.000000	0.314651
2255.000000	0.312851
2256.000000	0.311462
2257.000000	0.311849
2258.000000	0.314801
2259.000000	0.316761
2260.000000	0.318121
2261.000000	0.319099
2262.000000	0.318861
2263.000000	0.319452
2264.000000	0.320759
2265.000000	0.320446
2266.000000	0.319382
2267.000000	0.316956
2268.000000	0.312379
2269.000000	0.310607
2270.000000	0.309442
2271.000000	0.308641
2272.000000	0.310045
2273.000000	0.309741
2274.000000	0.307909
2275.000000	0.306880
2276.000000	0.305712
2277.000000	0.304707
2278.000000	0.304782
2279.000000	0.304414
2280.000000	0.303521
2281.000000	0.300668
2282.000000	0.298293
2283.000000	0.295742
2284.000000	0.292816
2285.000000	0.292019
2286.000000	0.290583
2287.000000	0.290386
2288.000000	0.292111
2289.000000	0.292253
2290.000000	0.291272
2291.000000	0.290819
2292.000000	0.290873
2293.000000	0.289633
2294.000000	0.288541
2295.000000	0.288445
2296.000000	0.287149
2297.000000	0.283641
2298.000000	0.283373
2299.000000	0.285249
2300.000000	0.284580
2301.000000	0.285014
2302.000000	0.282813
2303.000000	0.276043
2304.000000	0.273028
2305.000000	0.270707
2306.000000	0.268998
2307.000000	0.268346
2308.000000	0.270192
2309.000000	0.270223
2310.000000	0.269950
2311.000000	0.271340
2312.000000	0.270488
2313.000000	0.269265
2314.000000	0.269321
2315.000000	0.267547
2316.000000	0.267860
2317.000000	0.269049
2318.000000	0.268276
2319.000000	0.268973
2320.000000	0.269556
2321.000000	0.270951
2322.000000	0.273571
2323.000000	0.276447
2324.000000	0.279482
2325.000000	0.279935
2326.000000	0.280988
2327.000000	0.281351
2328.000000	0.280149
2329.000000	0.281342
2330.000000	0.282167
2331.000000	0.284042
2332.000000	0.287662
2333.000000	0.290099
2334.000000	0.291521
2335.000000	0.292804
2336.000000	0.292438
2337.000000	0.292100
2338.000000	0.292225
2339.000000	0.292044
2340.000000	0.290228
2341.000000	0.289951
2342.000000	0.290225
2343.000000	0.289770
2344.000000	0.290794
2345.000000	0.290915
2346.000000	0.288888
2347.000000	0.287860
2348.000000	0.286952
2349.000000	0.287078
2350.000000	0.285892
2351.000000	0.288837
2352.000000	0.291234
2353.000000	0.289146
2354.000000	0.287610
2355.000000	0.284662
2356.000000	0.280267
2357.000000	0.278591
2358.000000	0.277988
2359.000000	0.277270
2360.000000	0.279661
2361.000000	0.281498
2362.000000	0.278934
2363.000000	0.277062
2364.000000	0.275290
2365.000000	0.273058
2366.000000	0.273996
2367.000000	0.276221
2368.000000	0.275174
2369.000000	0.271561
2370.000000	0.266201
2371.000000	0.262334
2372.000000	0.258285
2373.000000	0.254327
2374.000000	0.255058
2375.000000	0.255488
2376.000000	0.259996
2377.000000	0.266678
2378.000000	0.268268
2379.000000	0.269377
2380.000000	0.267436
2381.000000	0.262174
2382.000000	0.255893
2383.000000	0.249646
2384.000000	0.246452
2385.000000	0.243784
2386.000000	0.245849
2387.000000	0.250997
2388.000000	0.246920
2389.000000	0.245284
2390.000000	0.246927
2391.000000	0.246285
2392.000000	0.249797
2393.000000	0.247148
2394.000000	0.241649
2395.000000	0.239190
2396.000000	0.240610
2397.000000	0.244630
2398.000000	0.253263
2399.000000	0.258800
2400.000000	0.254734
2401.000000	0.259275
2402.000000	0.258541
2403.000000	0.251892
2404.000000	0.246745
2405.000000	0.230269
2406.000000	0.215777
2407.000000	0.203556
2408.000000	0.200097
2409.000000	0.210295
2410.000000	0.221491
2411.000000	0.238688
2412.000000	0.251779
2413.000000	0.258449
2414.000000	0.265029
2415.000000	0.264598
2416.000000	0.260423
2417.000000	0.261884
2418.000000	0.257919
2419.000000	0.252544
2420.000000	0.259938
2421.000000	0.255169
2422.000000	0.249207
2423.000000	0.251962
2424.000000	0.240646
2425.000000	0.229803
2426.000000	0.226473
2427.000000	0.215820
2428.000000	0.209490
2429.000000	0.214948
2430.000000	0.219553
2431.000000	0.220077
2432.000000	0.217868
2433.000000	0.216458
2434.000000	0.212201
2435.000000	0.207038
2436.000000	0.210710
2437.000000	0.214435
2438.000000	0.215627
2439.000000	0.222923
2440.000000	0.230069
2441.000000	0.226864
2442.000000	0.216184
2443.000000	0.222446
2444.000000	0.233815
2445.000000	0.235730
2446.000000	0.250479
2447.000000	0.250868
2448.000000	0.230084
2449.000000	0.226154
2450.000000	0.228176
2451.000000	0.231103
2452.000000	0.254596
2453.000000	0.276118
2454.000000	0.284859
2455.000000	0.280325
2456.000000	0.258494
2457.000000	0.235135
2458.000000	0.220820
2459.000000	0.219160
2460.000000	0.216015
2461.000000	0.207079
2462.000000	0.200876
2463.000000	0.188352
2464.000000	0.192247
2465.000000	0.199812
2466.000000	0.186354
2467.000000	0.181646
2468.000000	0.174207
2469.000000	0.182166
2470.000000	0.214315
2471.000000	0.239088
2472.000000	0.265007
2473.000000	0.249822
2474.000000	0.223792
2475.000000	0.239815
2476.000000	0.233873
2477.000000	0.236591
2478.000000	0.275482
2479.000000	0.270237
2480.000000	0.249302
2481.000000	0.252482
2482.000000	0.222879
2483.000000	0.193903
2484.000000	0.192936
2485.000000	0.187776
2486.000000	0.203499
2487.000000	0.202884
2488.000000	0.200054
2489.000000	0.215889
2490.000000	0.213486
2491.000000	0.234953
2492.000000	0.213950
2493.000000	0.153315
2494.000000	0.127751
2495.000000	0.087751
2496.000000	0.074333
2497.000000	0.110211
2498.000000	0.109484
2499.000000	0.085257
2500.000000	0.081713
