# Wavelength	SM1200H-50-75_00002.asd.rts.txt
350.000000	0.588734
351.000000	0.588704
352.000000	0.576307
353.000000	0.569908
354.000000	0.579033
355.000000	0.579370
356.000000	0.581950
357.000000	0.588210
358.000000	0.583160
359.000000	0.584331
360.000000	0.588072
361.000000	0.586518
362.000000	0.588385
363.000000	0.591933
364.000000	0.593973
365.000000	0.595462
366.000000	0.594795
367.000000	0.593161
368.000000	0.595911
369.000000	0.600324
370.000000	0.604070
371.000000	0.605449
372.000000	0.608149
373.000000	0.611270
374.000000	0.614542
375.000000	0.615338
376.000000	0.616147
377.000000	0.617454
378.000000	0.618646
379.000000	0.620271
380.000000	0.621888
381.000000	0.624755
382.000000	0.626557
383.000000	0.627490
384.000000	0.628700
385.000000	0.630485
386.000000	0.632634
387.000000	0.634934
388.000000	0.636029
389.000000	0.637886
390.000000	0.640104
391.000000	0.640882
392.000000	0.642368
393.000000	0.643926
394.000000	0.644972
395.000000	0.646521
396.000000	0.647535
397.000000	0.647872
398.000000	0.648948
399.000000	0.649724
400.000000	0.650838
401.000000	0.653053
402.000000	0.653436
403.000000	0.653584
404.000000	0.655273
405.000000	0.655524
406.000000	0.655830
407.000000	0.657023
408.000000	0.658403
409.000000	0.659247
410.000000	0.659733
411.000000	0.660486
412.000000	0.661138
413.000000	0.661954
414.000000	0.663201
415.000000	0.664036
416.000000	0.664627
417.000000	0.665297
418.000000	0.666629
419.000000	0.667460
420.000000	0.668011
421.000000	0.669693
422.000000	0.670930
423.000000	0.671700
424.000000	0.672688
425.000000	0.674021
426.000000	0.675176
427.000000	0.675820
428.000000	0.676553
429.000000	0.677762
430.000000	0.679349
431.000000	0.680500
432.000000	0.681830
433.000000	0.683080
434.000000	0.683957
435.000000	0.685154
436.000000	0.686504
437.000000	0.687678
438.000000	0.688801
439.000000	0.689761
440.000000	0.690787
441.000000	0.691842
442.000000	0.692991
443.000000	0.694089
444.000000	0.695304
445.000000	0.696226
446.000000	0.697244
447.000000	0.698371
448.000000	0.699440
449.000000	0.700580
450.000000	0.701836
451.000000	0.702802
452.000000	0.703800
453.000000	0.704767
454.000000	0.705869
455.000000	0.706799
456.000000	0.707733
457.000000	0.708532
458.000000	0.709390
459.000000	0.710173
460.000000	0.710855
461.000000	0.711296
462.000000	0.712022
463.000000	0.712746
464.000000	0.713190
465.000000	0.713581
466.000000	0.713959
467.000000	0.714659
468.000000	0.715508
469.000000	0.716136
470.000000	0.716668
471.000000	0.717149
472.000000	0.717594
473.000000	0.718088
474.000000	0.718593
475.000000	0.718967
476.000000	0.719533
477.000000	0.720151
478.000000	0.720412
479.000000	0.720952
480.000000	0.721777
481.000000	0.722264
482.000000	0.722947
483.000000	0.723732
484.000000	0.724682
485.000000	0.725232
486.000000	0.725722
487.000000	0.726494
488.000000	0.727192
489.000000	0.727885
490.000000	0.728842
491.000000	0.729691
492.000000	0.730507
493.000000	0.731103
494.000000	0.731797
495.000000	0.732588
496.000000	0.733358
497.000000	0.734313
498.000000	0.735143
499.000000	0.735967
500.000000	0.736883
501.000000	0.737666
502.000000	0.738455
503.000000	0.739288
504.000000	0.740194
505.000000	0.741088
506.000000	0.741912
507.000000	0.742744
508.000000	0.743687
509.000000	0.744637
510.000000	0.745473
511.000000	0.746283
512.000000	0.747135
513.000000	0.747916
514.000000	0.748737
515.000000	0.749623
516.000000	0.750391
517.000000	0.751162
518.000000	0.752015
519.000000	0.752747
520.000000	0.753420
521.000000	0.754115
522.000000	0.754883
523.000000	0.755704
524.000000	0.756503
525.000000	0.757257
526.000000	0.758099
527.000000	0.758837
528.000000	0.759431
529.000000	0.760045
530.000000	0.760702
531.000000	0.761509
532.000000	0.762249
533.000000	0.762904
534.000000	0.763638
535.000000	0.764433
536.000000	0.765213
537.000000	0.765866
538.000000	0.766455
539.000000	0.767086
540.000000	0.767765
541.000000	0.768425
542.000000	0.769109
543.000000	0.769816
544.000000	0.770596
545.000000	0.771297
546.000000	0.772068
547.000000	0.772784
548.000000	0.773513
549.000000	0.774187
550.000000	0.774948
551.000000	0.775770
552.000000	0.776442
553.000000	0.777022
554.000000	0.777632
555.000000	0.778381
556.000000	0.779274
557.000000	0.779978
558.000000	0.780708
559.000000	0.781346
560.000000	0.781845
561.000000	0.782451
562.000000	0.783117
563.000000	0.783625
564.000000	0.784168
565.000000	0.784688
566.000000	0.785353
567.000000	0.786019
568.000000	0.786559
569.000000	0.787143
570.000000	0.787776
571.000000	0.788376
572.000000	0.788835
573.000000	0.789354
574.000000	0.789820
575.000000	0.790211
576.000000	0.790703
577.000000	0.791199
578.000000	0.791747
579.000000	0.792214
580.000000	0.792636
581.000000	0.793039
582.000000	0.793450
583.000000	0.793891
584.000000	0.794336
585.000000	0.794742
586.000000	0.795182
587.000000	0.795610
588.000000	0.795977
589.000000	0.796381
590.000000	0.796749
591.000000	0.797045
592.000000	0.797352
593.000000	0.797649
594.000000	0.797947
595.000000	0.798315
596.000000	0.798600
597.000000	0.798916
598.000000	0.799193
599.000000	0.799351
600.000000	0.799589
601.000000	0.799858
602.000000	0.800175
603.000000	0.800442
604.000000	0.800666
605.000000	0.800943
606.000000	0.801197
607.000000	0.801394
608.000000	0.801515
609.000000	0.801701
610.000000	0.801960
611.000000	0.802254
612.000000	0.802551
613.000000	0.802879
614.000000	0.803320
615.000000	0.803678
616.000000	0.804002
617.000000	0.804262
618.000000	0.804637
619.000000	0.804949
620.000000	0.805110
621.000000	0.805243
622.000000	0.805418
623.000000	0.805635
624.000000	0.805857
625.000000	0.805980
626.000000	0.806072
627.000000	0.806196
628.000000	0.806389
629.000000	0.806715
630.000000	0.806894
631.000000	0.807235
632.000000	0.807553
633.000000	0.807799
634.000000	0.807937
635.000000	0.808104
636.000000	0.808333
637.000000	0.808556
638.000000	0.808703
639.000000	0.808835
640.000000	0.809063
641.000000	0.809095
642.000000	0.809218
643.000000	0.809416
644.000000	0.809587
645.000000	0.809654
646.000000	0.809719
647.000000	0.809781
648.000000	0.809769
649.000000	0.809865
650.000000	0.810062
651.000000	0.810294
652.000000	0.810350
653.000000	0.810421
654.000000	0.810641
655.000000	0.810823
656.000000	0.811006
657.000000	0.811104
658.000000	0.811221
659.000000	0.811381
660.000000	0.811520
661.000000	0.811540
662.000000	0.811574
663.000000	0.811718
664.000000	0.811753
665.000000	0.811834
666.000000	0.811950
667.000000	0.811992
668.000000	0.812123
669.000000	0.812239
670.000000	0.812299
671.000000	0.812369
672.000000	0.812498
673.000000	0.812670
674.000000	0.812867
675.000000	0.813036
676.000000	0.813178
677.000000	0.813354
678.000000	0.813500
679.000000	0.813639
680.000000	0.813793
681.000000	0.813838
682.000000	0.813944
683.000000	0.813970
684.000000	0.814067
685.000000	0.814197
686.000000	0.814383
687.000000	0.814512
688.000000	0.814621
689.000000	0.814739
690.000000	0.814950
691.000000	0.815104
692.000000	0.815174
693.000000	0.815345
694.000000	0.815572
695.000000	0.815805
696.000000	0.815955
697.000000	0.815948
698.000000	0.816008
699.000000	0.816144
700.000000	0.816325
701.000000	0.816417
702.000000	0.816560
703.000000	0.816705
704.000000	0.816666
705.000000	0.816778
706.000000	0.816913
707.000000	0.817009
708.000000	0.817147
709.000000	0.817277
710.000000	0.817398
711.000000	0.817457
712.000000	0.817542
713.000000	0.817703
714.000000	0.817780
715.000000	0.817873
716.000000	0.818018
717.000000	0.818150
718.000000	0.818281
719.000000	0.818331
720.000000	0.818301
721.000000	0.818341
722.000000	0.818334
723.000000	0.818379
724.000000	0.818374
725.000000	0.818211
726.000000	0.818163
727.000000	0.818213
728.000000	0.818316
729.000000	0.818492
730.000000	0.818624
731.000000	0.818866
732.000000	0.819002
733.000000	0.819061
734.000000	0.819064
735.000000	0.818955
736.000000	0.819078
737.000000	0.819212
738.000000	0.819113
739.000000	0.819144
740.000000	0.819162
741.000000	0.819365
742.000000	0.819615
743.000000	0.819758
744.000000	0.819836
745.000000	0.819929
746.000000	0.820120
747.000000	0.820203
748.000000	0.820231
749.000000	0.820263
750.000000	0.820258
751.000000	0.820283
752.000000	0.820379
753.000000	0.820580
754.000000	0.820839
755.000000	0.821035
756.000000	0.821144
757.000000	0.821083
758.000000	0.821106
759.000000	0.821217
760.000000	0.821254
761.000000	0.821516
762.000000	0.821725
763.000000	0.821794
764.000000	0.821963
765.000000	0.822116
766.000000	0.822244
767.000000	0.822319
768.000000	0.822249
769.000000	0.822158
770.000000	0.822135
771.000000	0.822185
772.000000	0.822330
773.000000	0.822398
774.000000	0.822496
775.000000	0.822548
776.000000	0.822564
777.000000	0.822546
778.000000	0.822627
779.000000	0.822794
780.000000	0.822992
781.000000	0.823063
782.000000	0.823178
783.000000	0.823434
784.000000	0.823456
785.000000	0.823637
786.000000	0.823756
787.000000	0.823714
788.000000	0.823757
789.000000	0.823783
790.000000	0.823734
791.000000	0.823691
792.000000	0.823647
793.000000	0.823642
794.000000	0.823721
795.000000	0.823886
796.000000	0.823987
797.000000	0.823963
798.000000	0.823869
799.000000	0.823830
800.000000	0.823851
801.000000	0.823900
802.000000	0.823979
803.000000	0.824019
804.000000	0.824066
805.000000	0.824021
806.000000	0.824005
807.000000	0.824182
808.000000	0.824313
809.000000	0.824424
810.000000	0.824545
811.000000	0.824654
812.000000	0.824711
813.000000	0.824771
814.000000	0.824814
815.000000	0.824820
816.000000	0.824764
817.000000	0.824753
818.000000	0.824673
819.000000	0.824643
820.000000	0.824650
821.000000	0.824585
822.000000	0.824620
823.000000	0.824677
824.000000	0.824627
825.000000	0.824650
826.000000	0.824675
827.000000	0.824597
828.000000	0.824514
829.000000	0.824553
830.000000	0.824536
831.000000	0.824541
832.000000	0.824336
833.000000	0.824220
834.000000	0.824148
835.000000	0.824103
836.000000	0.823933
837.000000	0.823803
838.000000	0.823780
839.000000	0.823732
840.000000	0.823726
841.000000	0.823857
842.000000	0.824034
843.000000	0.824009
844.000000	0.824073
845.000000	0.824204
846.000000	0.824243
847.000000	0.824326
848.000000	0.824423
849.000000	0.824552
850.000000	0.824633
851.000000	0.824616
852.000000	0.824606
853.000000	0.824612
854.000000	0.824482
855.000000	0.824493
856.000000	0.824502
857.000000	0.824435
858.000000	0.824619
859.000000	0.824919
860.000000	0.825085
861.000000	0.825303
862.000000	0.825540
863.000000	0.825493
864.000000	0.825344
865.000000	0.825338
866.000000	0.825558
867.000000	0.825561
868.000000	0.825577
869.000000	0.825504
870.000000	0.825442
871.000000	0.825402
872.000000	0.825295
873.000000	0.824995
874.000000	0.824920
875.000000	0.824728
876.000000	0.824658
877.000000	0.824908
878.000000	0.824900
879.000000	0.824913
880.000000	0.824776
881.000000	0.824627
882.000000	0.824593
883.000000	0.824707
884.000000	0.824748
885.000000	0.824637
886.000000	0.824510
887.000000	0.824512
888.000000	0.824515
889.000000	0.824528
890.000000	0.824303
891.000000	0.824163
892.000000	0.824158
893.000000	0.824230
894.000000	0.824535
895.000000	0.824505
896.000000	0.824541
897.000000	0.824733
898.000000	0.825029
899.000000	0.825189
900.000000	0.825332
901.000000	0.825408
902.000000	0.825471
903.000000	0.825461
904.000000	0.825501
905.000000	0.825448
906.000000	0.825481
907.000000	0.825461
908.000000	0.825542
909.000000	0.825705
910.000000	0.825659
911.000000	0.825520
912.000000	0.825483
913.000000	0.825389
914.000000	0.825342
915.000000	0.825503
916.000000	0.825605
917.000000	0.825486
918.000000	0.825422
919.000000	0.825537
920.000000	0.825603
921.000000	0.825634
922.000000	0.825641
923.000000	0.825563
924.000000	0.825415
925.000000	0.825222
926.000000	0.825061
927.000000	0.824755
928.000000	0.824622
929.000000	0.824569
930.000000	0.824401
931.000000	0.824115
932.000000	0.823911
933.000000	0.823880
934.000000	0.823694
935.000000	0.823391
936.000000	0.823083
937.000000	0.822575
938.000000	0.821911
939.000000	0.821418
940.000000	0.820738
941.000000	0.819549
942.000000	0.817699
943.000000	0.815411
944.000000	0.812638
945.000000	0.809886
946.000000	0.807461
947.000000	0.806068
948.000000	0.806043
949.000000	0.806668
950.000000	0.808058
951.000000	0.809893
952.000000	0.811731
953.000000	0.812968
954.000000	0.813657
955.000000	0.813788
956.000000	0.813504
957.000000	0.813125
958.000000	0.812734
959.000000	0.812617
960.000000	0.812563
961.000000	0.812672
962.000000	0.812889
963.000000	0.813132
964.000000	0.813499
965.000000	0.813997
966.000000	0.814265
967.000000	0.814360
968.000000	0.814686
969.000000	0.815143
970.000000	0.815702
971.000000	0.816079
972.000000	0.816400
973.000000	0.816562
974.000000	0.816670
975.000000	0.816834
976.000000	0.817077
977.000000	0.817387
978.000000	0.817833
979.000000	0.818545
980.000000	0.818862
981.000000	0.819180
982.000000	0.819366
983.000000	0.819433
984.000000	0.819678
985.000000	0.820221
986.000000	0.820794
987.000000	0.821308
988.000000	0.821469
989.000000	0.821631
990.000000	0.821916
991.000000	0.822156
992.000000	0.822338
993.000000	0.823025
994.000000	0.823201
995.000000	0.823183
996.000000	0.823222
997.000000	0.823877
998.000000	0.824454
999.000000	0.824796
1000.000000	0.825054
1001.000000	0.824267
1002.000000	0.824924
1003.000000	0.825114
1004.000000	0.825257
1005.000000	0.824796
1006.000000	0.824487
1007.000000	0.824047
1008.000000	0.824524
1009.000000	0.825326
1010.000000	0.825046
1011.000000	0.825156
1012.000000	0.825843
1013.000000	0.825455
1014.000000	0.825179
1015.000000	0.825130
1016.000000	0.825284
1017.000000	0.825796
1018.000000	0.826997
1019.000000	0.827681
1020.000000	0.828906
1021.000000	0.828641
1022.000000	0.827786
1023.000000	0.827931
1024.000000	0.827556
1025.000000	0.828066
1026.000000	0.828578
1027.000000	0.828233
1028.000000	0.827909
1029.000000	0.828051
1030.000000	0.828228
1031.000000	0.828578
1032.000000	0.829059
1033.000000	0.828845
1034.000000	0.829003
1035.000000	0.829358
1036.000000	0.829588
1037.000000	0.830011
1038.000000	0.829973
1039.000000	0.829952
1040.000000	0.829817
1041.000000	0.829601
1042.000000	0.829411
1043.000000	0.830049
1044.000000	0.830698
1045.000000	0.830363
1046.000000	0.830263
1047.000000	0.830470
1048.000000	0.830202
1049.000000	0.830104
1050.000000	0.830688
1051.000000	0.830767
1052.000000	0.830101
1053.000000	0.829928
1054.000000	0.830589
1055.000000	0.831082
1056.000000	0.831865
1057.000000	0.832283
1058.000000	0.832457
1059.000000	0.831898
1060.000000	0.831451
1061.000000	0.831605
1062.000000	0.831573
1063.000000	0.832083
1064.000000	0.832556
1065.000000	0.833013
1066.000000	0.833336
1067.000000	0.833929
1068.000000	0.833913
1069.000000	0.833135
1070.000000	0.832942
1071.000000	0.832907
1072.000000	0.832790
1073.000000	0.832943
1074.000000	0.833382
1075.000000	0.833272
1076.000000	0.832917
1077.000000	0.832727
1078.000000	0.832372
1079.000000	0.832182
1080.000000	0.832187
1081.000000	0.832119
1082.000000	0.832397
1083.000000	0.832351
1084.000000	0.832081
1085.000000	0.832172
1086.000000	0.832420
1087.000000	0.832447
1088.000000	0.832159
1089.000000	0.832180
1090.000000	0.832302
1091.000000	0.831906
1092.000000	0.831975
1093.000000	0.832595
1094.000000	0.832386
1095.000000	0.831258
1096.000000	0.831321
1097.000000	0.831688
1098.000000	0.831881
1099.000000	0.832583
1100.000000	0.832901
1101.000000	0.832697
1102.000000	0.832542
1103.000000	0.832254
1104.000000	0.832207
1105.000000	0.832056
1106.000000	0.831997
1107.000000	0.832171
1108.000000	0.832106
1109.000000	0.832134
1110.000000	0.831956
1111.000000	0.831685
1112.000000	0.831257
1113.000000	0.831045
1114.000000	0.830777
1115.000000	0.830606
1116.000000	0.830668
1117.000000	0.830553
1118.000000	0.830297
1119.000000	0.830004
1120.000000	0.829812
1121.000000	0.829407
1122.000000	0.828985
1123.000000	0.829108
1124.000000	0.828806
1125.000000	0.828561
1126.000000	0.828431
1127.000000	0.828017
1128.000000	0.827434
1129.000000	0.826695
1130.000000	0.826085
1131.000000	0.825539
1132.000000	0.824659
1133.000000	0.823762
1134.000000	0.822962
1135.000000	0.821982
1136.000000	0.820829
1137.000000	0.819839
1138.000000	0.818402
1139.000000	0.816584
1140.000000	0.815234
1141.000000	0.813826
1142.000000	0.812450
1143.000000	0.811075
1144.000000	0.809965
1145.000000	0.808461
1146.000000	0.806834
1147.000000	0.805586
1148.000000	0.804189
1149.000000	0.803196
1150.000000	0.802539
1151.000000	0.801963
1152.000000	0.801385
1153.000000	0.801046
1154.000000	0.800725
1155.000000	0.800599
1156.000000	0.800756
1157.000000	0.800880
1158.000000	0.800963
1159.000000	0.801170
1160.000000	0.801221
1161.000000	0.801606
1162.000000	0.802473
1163.000000	0.803634
1164.000000	0.804154
1165.000000	0.804705
1166.000000	0.805356
1167.000000	0.805614
1168.000000	0.806033
1169.000000	0.806885
1170.000000	0.807413
1171.000000	0.807734
1172.000000	0.808271
1173.000000	0.808837
1174.000000	0.809291
1175.000000	0.809720
1176.000000	0.809938
1177.000000	0.810238
1178.000000	0.810416
1179.000000	0.810378
1180.000000	0.810293
1181.000000	0.810334
1182.000000	0.810285
1183.000000	0.810552
1184.000000	0.810800
1185.000000	0.810969
1186.000000	0.811207
1187.000000	0.811340
1188.000000	0.811369
1189.000000	0.811315
1190.000000	0.811299
1191.000000	0.811321
1192.000000	0.811539
1193.000000	0.811893
1194.000000	0.812078
1195.000000	0.812236
1196.000000	0.812155
1197.000000	0.812229
1198.000000	0.812461
1199.000000	0.812636
1200.000000	0.812828
1201.000000	0.812981
1202.000000	0.813064
1203.000000	0.813205
1204.000000	0.813359
1205.000000	0.813588
1206.000000	0.813647
1207.000000	0.813864
1208.000000	0.813900
1209.000000	0.813945
1210.000000	0.814053
1211.000000	0.814161
1212.000000	0.814269
1213.000000	0.814508
1214.000000	0.814732
1215.000000	0.814930
1216.000000	0.815060
1217.000000	0.815106
1218.000000	0.815129
1219.000000	0.815111
1220.000000	0.815190
1221.000000	0.815421
1222.000000	0.815578
1223.000000	0.815824
1224.000000	0.816062
1225.000000	0.816009
1226.000000	0.816023
1227.000000	0.815944
1228.000000	0.815962
1229.000000	0.815887
1230.000000	0.815773
1231.000000	0.815586
1232.000000	0.815606
1233.000000	0.815810
1234.000000	0.816073
1235.000000	0.816181
1236.000000	0.816053
1237.000000	0.816153
1238.000000	0.816154
1239.000000	0.816182
1240.000000	0.816420
1241.000000	0.816407
1242.000000	0.816225
1243.000000	0.816154
1244.000000	0.816105
1245.000000	0.816259
1246.000000	0.816399
1247.000000	0.816592
1248.000000	0.816760
1249.000000	0.816863
1250.000000	0.816883
1251.000000	0.816858
1252.000000	0.816822
1253.000000	0.816799
1254.000000	0.816727
1255.000000	0.816641
1256.000000	0.816529
1257.000000	0.816402
1258.000000	0.816413
1259.000000	0.816334
1260.000000	0.816363
1261.000000	0.816366
1262.000000	0.816229
1263.000000	0.816150
1264.000000	0.815844
1265.000000	0.815547
1266.000000	0.815221
1267.000000	0.814655
1268.000000	0.814102
1269.000000	0.813422
1270.000000	0.812902
1271.000000	0.812465
1272.000000	0.812161
1273.000000	0.811962
1274.000000	0.811630
1275.000000	0.811374
1276.000000	0.811247
1277.000000	0.811281
1278.000000	0.811169
1279.000000	0.811068
1280.000000	0.810857
1281.000000	0.810710
1282.000000	0.810740
1283.000000	0.810915
1284.000000	0.811124
1285.000000	0.811158
1286.000000	0.811087
1287.000000	0.810917
1288.000000	0.810824
1289.000000	0.810611
1290.000000	0.810144
1291.000000	0.809635
1292.000000	0.809103
1293.000000	0.808539
1294.000000	0.808014
1295.000000	0.807631
1296.000000	0.807192
1297.000000	0.806722
1298.000000	0.806447
1299.000000	0.806157
1300.000000	0.805901
1301.000000	0.805651
1302.000000	0.805262
1303.000000	0.805191
1304.000000	0.804783
1305.000000	0.804423
1306.000000	0.803941
1307.000000	0.803362
1308.000000	0.802912
1309.000000	0.802560
1310.000000	0.801993
1311.000000	0.801424
1312.000000	0.800710
1313.000000	0.799919
1314.000000	0.799030
1315.000000	0.798184
1316.000000	0.797525
1317.000000	0.796746
1318.000000	0.795872
1319.000000	0.794805
1320.000000	0.793743
1321.000000	0.792659
1322.000000	0.791489
1323.000000	0.790488
1324.000000	0.789474
1325.000000	0.788177
1326.000000	0.786859
1327.000000	0.785554
1328.000000	0.784380
1329.000000	0.783007
1330.000000	0.781665
1331.000000	0.780277
1332.000000	0.778837
1333.000000	0.777455
1334.000000	0.776274
1335.000000	0.775134
1336.000000	0.773999
1337.000000	0.772811
1338.000000	0.771549
1339.000000	0.770210
1340.000000	0.768836
1341.000000	0.767610
1342.000000	0.766363
1343.000000	0.765169
1344.000000	0.764037
1345.000000	0.762830
1346.000000	0.761809
1347.000000	0.760541
1348.000000	0.759392
1349.000000	0.758267
1350.000000	0.757200
1351.000000	0.756224
1352.000000	0.755180
1353.000000	0.754037
1354.000000	0.752965
1355.000000	0.751689
1356.000000	0.750355
1357.000000	0.748969
1358.000000	0.747523
1359.000000	0.746004
1360.000000	0.744371
1361.000000	0.742821
1362.000000	0.740991
1363.000000	0.738943
1364.000000	0.736808
1365.000000	0.734568
1366.000000	0.732029
1367.000000	0.729268
1368.000000	0.726241
1369.000000	0.723195
1370.000000	0.719456
1371.000000	0.715294
1372.000000	0.710696
1373.000000	0.705324
1374.000000	0.699358
1375.000000	0.692461
1376.000000	0.684508
1377.000000	0.675238
1378.000000	0.664174
1379.000000	0.651772
1380.000000	0.637842
1381.000000	0.621995
1382.000000	0.605491
1383.000000	0.588324
1384.000000	0.570598
1385.000000	0.553732
1386.000000	0.537996
1387.000000	0.524081
1388.000000	0.512556
1389.000000	0.503602
1390.000000	0.497434
1391.000000	0.493677
1392.000000	0.492250
1393.000000	0.492196
1394.000000	0.495032
1395.000000	0.497194
1396.000000	0.500923
1397.000000	0.503150
1398.000000	0.505328
1399.000000	0.506371
1400.000000	0.506628
1401.000000	0.506082
1402.000000	0.504842
1403.000000	0.502826
1404.000000	0.500368
1405.000000	0.497637
1406.000000	0.494854
1407.000000	0.492269
1408.000000	0.489921
1409.000000	0.488018
1410.000000	0.486548
1411.000000	0.485415
1412.000000	0.484588
1413.000000	0.484202
1414.000000	0.484286
1415.000000	0.484648
1416.000000	0.485264
1417.000000	0.486206
1418.000000	0.487236
1419.000000	0.488624
1420.000000	0.490189
1421.000000	0.491957
1422.000000	0.493913
1423.000000	0.495974
1424.000000	0.497999
1425.000000	0.500193
1426.000000	0.502328
1427.000000	0.504499
1428.000000	0.506785
1429.000000	0.508986
1430.000000	0.511206
1431.000000	0.513427
1432.000000	0.515526
1433.000000	0.517634
1434.000000	0.519624
1435.000000	0.521678
1436.000000	0.523592
1437.000000	0.525388
1438.000000	0.527080
1439.000000	0.528754
1440.000000	0.530282
1441.000000	0.531760
1442.000000	0.533174
1443.000000	0.534374
1444.000000	0.535526
1445.000000	0.536623
1446.000000	0.537534
1447.000000	0.538387
1448.000000	0.539094
1449.000000	0.539669
1450.000000	0.540212
1451.000000	0.540663
1452.000000	0.540979
1453.000000	0.541235
1454.000000	0.541340
1455.000000	0.541434
1456.000000	0.541701
1457.000000	0.541987
1458.000000	0.542284
1459.000000	0.542623
1460.000000	0.542975
1461.000000	0.543368
1462.000000	0.543946
1463.000000	0.544593
1464.000000	0.545367
1465.000000	0.546502
1466.000000	0.547771
1467.000000	0.549242
1468.000000	0.550920
1469.000000	0.552658
1470.000000	0.554415
1471.000000	0.556357
1472.000000	0.558308
1473.000000	0.560391
1474.000000	0.562428
1475.000000	0.564484
1476.000000	0.566612
1477.000000	0.568631
1478.000000	0.570674
1479.000000	0.572680
1480.000000	0.574585
1481.000000	0.576525
1482.000000	0.578601
1483.000000	0.580657
1484.000000	0.582731
1485.000000	0.584749
1486.000000	0.586734
1487.000000	0.588680
1488.000000	0.590607
1489.000000	0.592529
1490.000000	0.594226
1491.000000	0.596033
1492.000000	0.597780
1493.000000	0.599522
1494.000000	0.601149
1495.000000	0.602783
1496.000000	0.604394
1497.000000	0.606015
1498.000000	0.607673
1499.000000	0.609355
1500.000000	0.611029
1501.000000	0.612669
1502.000000	0.614238
1503.000000	0.615810
1504.000000	0.617326
1505.000000	0.618775
1506.000000	0.620298
1507.000000	0.621847
1508.000000	0.623500
1509.000000	0.625086
1510.000000	0.626447
1511.000000	0.627823
1512.000000	0.629088
1513.000000	0.630324
1514.000000	0.631782
1515.000000	0.633172
1516.000000	0.634590
1517.000000	0.635938
1518.000000	0.637116
1519.000000	0.638183
1520.000000	0.639314
1521.000000	0.640356
1522.000000	0.641577
1523.000000	0.642989
1524.000000	0.644179
1525.000000	0.645446
1526.000000	0.646652
1527.000000	0.647753
1528.000000	0.649010
1529.000000	0.650187
1530.000000	0.651133
1531.000000	0.652218
1532.000000	0.653340
1533.000000	0.654361
1534.000000	0.655428
1535.000000	0.656476
1536.000000	0.657333
1537.000000	0.658311
1538.000000	0.659350
1539.000000	0.660298
1540.000000	0.661324
1541.000000	0.662467
1542.000000	0.663604
1543.000000	0.664707
1544.000000	0.665799
1545.000000	0.666873
1546.000000	0.667866
1547.000000	0.668881
1548.000000	0.669981
1549.000000	0.670991
1550.000000	0.671891
1551.000000	0.672818
1552.000000	0.673716
1553.000000	0.674538
1554.000000	0.675448
1555.000000	0.676427
1556.000000	0.677322
1557.000000	0.678149
1558.000000	0.678953
1559.000000	0.679558
1560.000000	0.680168
1561.000000	0.680815
1562.000000	0.681386
1563.000000	0.681993
1564.000000	0.682624
1565.000000	0.683224
1566.000000	0.683694
1567.000000	0.684320
1568.000000	0.684902
1569.000000	0.685608
1570.000000	0.686204
1571.000000	0.686728
1572.000000	0.687247
1573.000000	0.687688
1574.000000	0.688169
1575.000000	0.688751
1576.000000	0.689313
1577.000000	0.689817
1578.000000	0.690308
1579.000000	0.690928
1580.000000	0.691465
1581.000000	0.692123
1582.000000	0.692675
1583.000000	0.693143
1584.000000	0.693516
1585.000000	0.693970
1586.000000	0.694467
1587.000000	0.694937
1588.000000	0.695411
1589.000000	0.695943
1590.000000	0.696409
1591.000000	0.696882
1592.000000	0.697349
1593.000000	0.697879
1594.000000	0.698322
1595.000000	0.698838
1596.000000	0.699281
1597.000000	0.699728
1598.000000	0.700145
1599.000000	0.700551
1600.000000	0.700891
1601.000000	0.701381
1602.000000	0.701774
1603.000000	0.702195
1604.000000	0.702543
1605.000000	0.702858
1606.000000	0.703165
1607.000000	0.703567
1608.000000	0.703867
1609.000000	0.704286
1610.000000	0.704509
1611.000000	0.704585
1612.000000	0.704734
1613.000000	0.705081
1614.000000	0.705257
1615.000000	0.705516
1616.000000	0.705815
1617.000000	0.705916
1618.000000	0.706080
1619.000000	0.706270
1620.000000	0.706513
1621.000000	0.706830
1622.000000	0.707236
1623.000000	0.707706
1624.000000	0.708027
1625.000000	0.707960
1626.000000	0.708036
1627.000000	0.708134
1628.000000	0.708380
1629.000000	0.708718
1630.000000	0.709064
1631.000000	0.709361
1632.000000	0.709532
1633.000000	0.709665
1634.000000	0.709873
1635.000000	0.710129
1636.000000	0.710363
1637.000000	0.710723
1638.000000	0.710905
1639.000000	0.711114
1640.000000	0.711240
1641.000000	0.711417
1642.000000	0.711586
1643.000000	0.711780
1644.000000	0.711914
1645.000000	0.712020
1646.000000	0.712038
1647.000000	0.712071
1648.000000	0.712058
1649.000000	0.712175
1650.000000	0.712330
1651.000000	0.712570
1652.000000	0.712790
1653.000000	0.712942
1654.000000	0.713131
1655.000000	0.713191
1656.000000	0.713086
1657.000000	0.713049
1658.000000	0.713087
1659.000000	0.713287
1660.000000	0.713542
1661.000000	0.713768
1662.000000	0.713904
1663.000000	0.713920
1664.000000	0.713981
1665.000000	0.714019
1666.000000	0.714262
1667.000000	0.714410
1668.000000	0.714536
1669.000000	0.714696
1670.000000	0.714682
1671.000000	0.714793
1672.000000	0.714925
1673.000000	0.714946
1674.000000	0.715062
1675.000000	0.715191
1676.000000	0.715188
1677.000000	0.715148
1678.000000	0.715090
1679.000000	0.715021
1680.000000	0.714921
1681.000000	0.714888
1682.000000	0.714818
1683.000000	0.714787
1684.000000	0.714689
1685.000000	0.714633
1686.000000	0.714569
1687.000000	0.714445
1688.000000	0.714375
1689.000000	0.714294
1690.000000	0.713966
1691.000000	0.713838
1692.000000	0.713669
1693.000000	0.713425
1694.000000	0.713224
1695.000000	0.713119
1696.000000	0.712949
1697.000000	0.712677
1698.000000	0.712546
1699.000000	0.712418
1700.000000	0.712178
1701.000000	0.712190
1702.000000	0.711965
1703.000000	0.711695
1704.000000	0.711694
1705.000000	0.711575
1706.000000	0.711431
1707.000000	0.711338
1708.000000	0.711177
1709.000000	0.710908
1710.000000	0.710880
1711.000000	0.710764
1712.000000	0.710622
1713.000000	0.710398
1714.000000	0.710174
1715.000000	0.709982
1716.000000	0.709810
1717.000000	0.709561
1718.000000	0.709223
1719.000000	0.708871
1720.000000	0.708578
1721.000000	0.708217
1722.000000	0.707887
1723.000000	0.707480
1724.000000	0.706995
1725.000000	0.706604
1726.000000	0.706043
1727.000000	0.705530
1728.000000	0.704905
1729.000000	0.704231
1730.000000	0.703792
1731.000000	0.703350
1732.000000	0.703003
1733.000000	0.702656
1734.000000	0.702043
1735.000000	0.701503
1736.000000	0.700832
1737.000000	0.700293
1738.000000	0.699872
1739.000000	0.699398
1740.000000	0.698931
1741.000000	0.698370
1742.000000	0.697747
1743.000000	0.697346
1744.000000	0.696972
1745.000000	0.696450
1746.000000	0.695970
1747.000000	0.695368
1748.000000	0.694648
1749.000000	0.693957
1750.000000	0.693191
1751.000000	0.692626
1752.000000	0.692113
1753.000000	0.691229
1754.000000	0.690512
1755.000000	0.689788
1756.000000	0.688946
1757.000000	0.688153
1758.000000	0.687358
1759.000000	0.686327
1760.000000	0.685457
1761.000000	0.684563
1762.000000	0.683808
1763.000000	0.683279
1764.000000	0.682636
1765.000000	0.682002
1766.000000	0.681341
1767.000000	0.680308
1768.000000	0.679537
1769.000000	0.679148
1770.000000	0.678703
1771.000000	0.678302
1772.000000	0.677791
1773.000000	0.677030
1774.000000	0.676511
1775.000000	0.676205
1776.000000	0.675839
1777.000000	0.675511
1778.000000	0.675060
1779.000000	0.674469
1780.000000	0.674038
1781.000000	0.673548
1782.000000	0.673149
1783.000000	0.672949
1784.000000	0.672750
1785.000000	0.672362
1786.000000	0.671872
1787.000000	0.671658
1788.000000	0.671479
1789.000000	0.671161
1790.000000	0.671025
1791.000000	0.670735
1792.000000	0.670545
1793.000000	0.670267
1794.000000	0.669928
1795.000000	0.669692
1796.000000	0.669353
1797.000000	0.669096
1798.000000	0.668956
1799.000000	0.668780
1800.000000	0.668723
1801.000000	0.669182
1802.000000	0.669172
1803.000000	0.668105
1804.000000	0.668254
1805.000000	0.669100
1806.000000	0.669410
1807.000000	0.670635
1808.000000	0.670539
1809.000000	0.669025
1810.000000	0.668057
1811.000000	0.667571
1812.000000	0.666735
1813.000000	0.666480
1814.000000	0.667624
1815.000000	0.667520
1816.000000	0.666666
1817.000000	0.666008
1818.000000	0.665130
1819.000000	0.664696
1820.000000	0.664497
1821.000000	0.664262
1822.000000	0.663955
1823.000000	0.663728
1824.000000	0.662840
1825.000000	0.661004
1826.000000	0.660378
1827.000000	0.659615
1828.000000	0.659216
1829.000000	0.659385
1830.000000	0.659255
1831.000000	0.658665
1832.000000	0.657124
1833.000000	0.656471
1834.000000	0.656188
1835.000000	0.655541
1836.000000	0.655134
1837.000000	0.654359
1838.000000	0.652921
1839.000000	0.651367
1840.000000	0.650086
1841.000000	0.648544
1842.000000	0.647191
1843.000000	0.645714
1844.000000	0.644687
1845.000000	0.643785
1846.000000	0.642856
1847.000000	0.642143
1848.000000	0.640931
1849.000000	0.639289
1850.000000	0.637489
1851.000000	0.635593
1852.000000	0.633209
1853.000000	0.631037
1854.000000	0.628723
1855.000000	0.626067
1856.000000	0.622905
1857.000000	0.620056
1858.000000	0.617008
1859.000000	0.612698
1860.000000	0.608759
1861.000000	0.604672
1862.000000	0.600271
1863.000000	0.595943
1864.000000	0.591385
1865.000000	0.586777
1866.000000	0.581413
1867.000000	0.575763
1868.000000	0.569362
1869.000000	0.561948
1870.000000	0.554467
1871.000000	0.546552
1872.000000	0.538447
1873.000000	0.530271
1874.000000	0.522302
1875.000000	0.513265
1876.000000	0.503584
1877.000000	0.492926
1878.000000	0.481626
1879.000000	0.470210
1880.000000	0.458562
1881.000000	0.447155
1882.000000	0.435472
1883.000000	0.423372
1884.000000	0.411085
1885.000000	0.397821
1886.000000	0.385031
1887.000000	0.372067
1888.000000	0.359115
1889.000000	0.346456
1890.000000	0.334504
1891.000000	0.322593
1892.000000	0.310527
1893.000000	0.298431
1894.000000	0.287030
1895.000000	0.276708
1896.000000	0.267191
1897.000000	0.258593
1898.000000	0.250865
1899.000000	0.244180
1900.000000	0.238119
1901.000000	0.232787
1902.000000	0.228827
1903.000000	0.226050
1904.000000	0.223661
1905.000000	0.221938
1906.000000	0.220870
1907.000000	0.220515
1908.000000	0.220524
1909.000000	0.221810
1910.000000	0.223652
1911.000000	0.225709
1912.000000	0.228327
1913.000000	0.230830
1914.000000	0.233548
1915.000000	0.236368
1916.000000	0.239180
1917.000000	0.242055
1918.000000	0.245090
1919.000000	0.248059
1920.000000	0.251057
1921.000000	0.254013
1922.000000	0.256801
1923.000000	0.259618
1924.000000	0.262495
1925.000000	0.265556
1926.000000	0.268541
1927.000000	0.271307
1928.000000	0.273688
1929.000000	0.275800
1930.000000	0.277615
1931.000000	0.279458
1932.000000	0.281238
1933.000000	0.283021
1934.000000	0.284781
1935.000000	0.286357
1936.000000	0.288031
1937.000000	0.289639
1938.000000	0.291254
1939.000000	0.292878
1940.000000	0.294567
1941.000000	0.296011
1942.000000	0.297509
1943.000000	0.298750
1944.000000	0.299790
1945.000000	0.300804
1946.000000	0.302012
1947.000000	0.303424
1948.000000	0.304961
1949.000000	0.306474
1950.000000	0.307548
1951.000000	0.308468
1952.000000	0.309177
1953.000000	0.309692
1954.000000	0.310603
1955.000000	0.311733
1956.000000	0.312695
1957.000000	0.313808
1958.000000	0.314831
1959.000000	0.316043
1960.000000	0.317425
1961.000000	0.318718
1962.000000	0.320084
1963.000000	0.321524
1964.000000	0.322998
1965.000000	0.324357
1966.000000	0.325643
1967.000000	0.327044
1968.000000	0.328608
1969.000000	0.330153
1970.000000	0.331926
1971.000000	0.333660
1972.000000	0.335166
1973.000000	0.336710
1974.000000	0.338476
1975.000000	0.340280
1976.000000	0.342223
1977.000000	0.343980
1978.000000	0.345762
1979.000000	0.347584
1980.000000	0.349150
1981.000000	0.350881
1982.000000	0.352554
1983.000000	0.354206
1984.000000	0.355970
1985.000000	0.358007
1986.000000	0.359678
1987.000000	0.361265
1988.000000	0.363128
1989.000000	0.364826
1990.000000	0.366681
1991.000000	0.368654
1992.000000	0.370600
1993.000000	0.372293
1994.000000	0.373998
1995.000000	0.376211
1996.000000	0.378177
1997.000000	0.380192
1998.000000	0.382729
1999.000000	0.384772
2000.000000	0.386422
2001.000000	0.388113
2002.000000	0.390091
2003.000000	0.392282
2004.000000	0.394615
2005.000000	0.396875
2006.000000	0.399149
2007.000000	0.400976
2008.000000	0.403023
2009.000000	0.405200
2010.000000	0.407345
2011.000000	0.409258
2012.000000	0.411250
2013.000000	0.413279
2014.000000	0.414841
2015.000000	0.416514
2016.000000	0.418258
2017.000000	0.420158
2018.000000	0.422114
2019.000000	0.424263
2020.000000	0.426363
2021.000000	0.428276
2022.000000	0.429922
2023.000000	0.431694
2024.000000	0.433391
2025.000000	0.435302
2026.000000	0.437167
2027.000000	0.438958
2028.000000	0.440744
2029.000000	0.442310
2030.000000	0.443994
2031.000000	0.445650
2032.000000	0.447241
2033.000000	0.449231
2034.000000	0.450828
2035.000000	0.452256
2036.000000	0.453630
2037.000000	0.455031
2038.000000	0.456583
2039.000000	0.458385
2040.000000	0.460139
2041.000000	0.461510
2042.000000	0.463044
2043.000000	0.464147
2044.000000	0.465299
2045.000000	0.466634
2046.000000	0.467479
2047.000000	0.468780
2048.000000	0.470256
2049.000000	0.471610
2050.000000	0.472627
2051.000000	0.473618
2052.000000	0.474104
2053.000000	0.474785
2054.000000	0.475912
2055.000000	0.477175
2056.000000	0.478419
2057.000000	0.479370
2058.000000	0.480013
2059.000000	0.480791
2060.000000	0.481657
2061.000000	0.482432
2062.000000	0.483306
2063.000000	0.484480
2064.000000	0.485372
2065.000000	0.486695
2066.000000	0.487673
2067.000000	0.489054
2068.000000	0.490134
2069.000000	0.490846
2070.000000	0.491165
2071.000000	0.491280
2072.000000	0.491589
2073.000000	0.492223
2074.000000	0.492987
2075.000000	0.493767
2076.000000	0.494795
2077.000000	0.495525
2078.000000	0.496327
2079.000000	0.496735
2080.000000	0.496698
2081.000000	0.497126
2082.000000	0.497529
2083.000000	0.497927
2084.000000	0.499096
2085.000000	0.500151
2086.000000	0.500863
2087.000000	0.501619
2088.000000	0.501671
2089.000000	0.501593
2090.000000	0.502218
2091.000000	0.503311
2092.000000	0.504212
2093.000000	0.505861
2094.000000	0.506773
2095.000000	0.507019
2096.000000	0.507763
2097.000000	0.508391
2098.000000	0.509054
2099.000000	0.509990
2100.000000	0.511080
2101.000000	0.511608
2102.000000	0.512415
2103.000000	0.513385
2104.000000	0.514091
2105.000000	0.514970
2106.000000	0.516271
2107.000000	0.516919
2108.000000	0.517070
2109.000000	0.517605
2110.000000	0.517658
2111.000000	0.517945
2112.000000	0.518478
2113.000000	0.518440
2114.000000	0.518619
2115.000000	0.518753
2116.000000	0.518693
2117.000000	0.519060
2118.000000	0.519811
2119.000000	0.520620
2120.000000	0.521557
2121.000000	0.523007
2122.000000	0.524008
2123.000000	0.524893
2124.000000	0.525668
2125.000000	0.526151
2126.000000	0.526917
2127.000000	0.527667
2128.000000	0.528718
2129.000000	0.529890
2130.000000	0.531471
2131.000000	0.532249
2132.000000	0.532249
2133.000000	0.532352
2134.000000	0.532931
2135.000000	0.533942
2136.000000	0.535223
2137.000000	0.536037
2138.000000	0.536745
2139.000000	0.537295
2140.000000	0.537458
2141.000000	0.537805
2142.000000	0.538060
2143.000000	0.538190
2144.000000	0.538653
2145.000000	0.539097
2146.000000	0.539747
2147.000000	0.540725
2148.000000	0.541334
2149.000000	0.542105
2150.000000	0.542573
2151.000000	0.542513
2152.000000	0.541616
2153.000000	0.540472
2154.000000	0.540026
2155.000000	0.539561
2156.000000	0.539688
2157.000000	0.540883
2158.000000	0.541392
2159.000000	0.542058
2160.000000	0.542612
2161.000000	0.542631
2162.000000	0.543311
2163.000000	0.544528
2164.000000	0.544696
2165.000000	0.544562
2166.000000	0.544547
2167.000000	0.543611
2168.000000	0.542862
2169.000000	0.542538
2170.000000	0.542332
2171.000000	0.541765
2172.000000	0.540993
2173.000000	0.540453
2174.000000	0.539404
2175.000000	0.539255
2176.000000	0.540091
2177.000000	0.540185
2178.000000	0.540506
2179.000000	0.540872
2180.000000	0.540682
2181.000000	0.541064
2182.000000	0.540977
2183.000000	0.540844
2184.000000	0.540639
2185.000000	0.539719
2186.000000	0.539042
2187.000000	0.539121
2188.000000	0.539145
2189.000000	0.538605
2190.000000	0.537740
2191.000000	0.537695
2192.000000	0.536886
2193.000000	0.535603
2194.000000	0.534535
2195.000000	0.532735
2196.000000	0.532156
2197.000000	0.532665
2198.000000	0.532261
2199.000000	0.532665
2200.000000	0.532397
2201.000000	0.530633
2202.000000	0.529859
2203.000000	0.528761
2204.000000	0.528985
2205.000000	0.529114
2206.000000	0.527406
2207.000000	0.525091
2208.000000	0.522666
2209.000000	0.520414
2210.000000	0.519294
2211.000000	0.519627
2212.000000	0.520713
2213.000000	0.520644
2214.000000	0.521013
2215.000000	0.519742
2216.000000	0.516678
2217.000000	0.514740
2218.000000	0.511656
2219.000000	0.510176
2220.000000	0.510231
2221.000000	0.509695
2222.000000	0.509884
2223.000000	0.509402
2224.000000	0.508047
2225.000000	0.507843
2226.000000	0.507039
2227.000000	0.504829
2228.000000	0.505239
2229.000000	0.502789
2230.000000	0.499317
2231.000000	0.498022
2232.000000	0.494125
2233.000000	0.492219
2234.000000	0.491641
2235.000000	0.490720
2236.000000	0.491027
2237.000000	0.493195
2238.000000	0.493152
2239.000000	0.492574
2240.000000	0.492463
2241.000000	0.491119
2242.000000	0.490919
2243.000000	0.492157
2244.000000	0.492728
2245.000000	0.493090
2246.000000	0.493210
2247.000000	0.492812
2248.000000	0.492924
2249.000000	0.493916
2250.000000	0.493203
2251.000000	0.492614
2252.000000	0.492753
2253.000000	0.491173
2254.000000	0.490376
2255.000000	0.490879
2256.000000	0.490768
2257.000000	0.490006
2258.000000	0.490000
2259.000000	0.488097
2260.000000	0.484713
2261.000000	0.482151
2262.000000	0.479092
2263.000000	0.476810
2264.000000	0.475243
2265.000000	0.473713
2266.000000	0.472549
2267.000000	0.471102
2268.000000	0.470057
2269.000000	0.468231
2270.000000	0.466431
2271.000000	0.463473
2272.000000	0.459509
2273.000000	0.455570
2274.000000	0.450538
2275.000000	0.445971
2276.000000	0.441965
2277.000000	0.436814
2278.000000	0.431606
2279.000000	0.426029
2280.000000	0.419435
2281.000000	0.413184
2282.000000	0.407365
2283.000000	0.402277
2284.000000	0.396512
2285.000000	0.390250
2286.000000	0.384111
2287.000000	0.378095
2288.000000	0.373543
2289.000000	0.368952
2290.000000	0.364354
2291.000000	0.360655
2292.000000	0.357592
2293.000000	0.355381
2294.000000	0.353071
2295.000000	0.351260
2296.000000	0.349138
2297.000000	0.346786
2298.000000	0.344879
2299.000000	0.343514
2300.000000	0.341308
2301.000000	0.339843
2302.000000	0.336205
2303.000000	0.330744
2304.000000	0.325490
2305.000000	0.319201
2306.000000	0.312847
2307.000000	0.305728
2308.000000	0.299691
2309.000000	0.294412
2310.000000	0.289121
2311.000000	0.285714
2312.000000	0.283259
2313.000000	0.281303
2314.000000	0.280369
2315.000000	0.281751
2316.000000	0.285583
2317.000000	0.289215
2318.000000	0.293819
2319.000000	0.299618
2320.000000	0.304146
2321.000000	0.310005
2322.000000	0.315946
2323.000000	0.321280
2324.000000	0.328114
2325.000000	0.333810
2326.000000	0.339887
2327.000000	0.346462
2328.000000	0.351275
2329.000000	0.356709
2330.000000	0.362635
2331.000000	0.365437
2332.000000	0.368441
2333.000000	0.373487
2334.000000	0.375440
2335.000000	0.377795
2336.000000	0.380576
2337.000000	0.381455
2338.000000	0.380970
2339.000000	0.381086
2340.000000	0.379859
2341.000000	0.379250
2342.000000	0.377462
2343.000000	0.376308
2344.000000	0.376487
2345.000000	0.377215
2346.000000	0.379667
2347.000000	0.380159
2348.000000	0.380831
2349.000000	0.378325
2350.000000	0.374100
2351.000000	0.371830
2352.000000	0.370163
2353.000000	0.370071
2354.000000	0.371075
2355.000000	0.370016
2356.000000	0.368296
2357.000000	0.365984
2358.000000	0.364026
2359.000000	0.363851
2360.000000	0.362161
2361.000000	0.361348
2362.000000	0.359831
2363.000000	0.355615
2364.000000	0.352399
2365.000000	0.350048
2366.000000	0.347749
2367.000000	0.346771
2368.000000	0.345406
2369.000000	0.341578
2370.000000	0.336525
2371.000000	0.331768
2372.000000	0.329221
2373.000000	0.330284
2374.000000	0.330696
2375.000000	0.328916
2376.000000	0.327951
2377.000000	0.322230
2378.000000	0.317895
2379.000000	0.319155
2380.000000	0.315747
2381.000000	0.313711
2382.000000	0.310406
2383.000000	0.304133
2384.000000	0.300920
2385.000000	0.297497
2386.000000	0.296548
2387.000000	0.297096
2388.000000	0.297650
2389.000000	0.296481
2390.000000	0.293270
2391.000000	0.289083
2392.000000	0.284526
2393.000000	0.283202
2394.000000	0.286343
2395.000000	0.291289
2396.000000	0.292856
2397.000000	0.295997
2398.000000	0.297969
2399.000000	0.297755
2400.000000	0.302832
2401.000000	0.303744
2402.000000	0.303915
2403.000000	0.306768
2404.000000	0.304330
2405.000000	0.303282
2406.000000	0.304689
2407.000000	0.305148
2408.000000	0.308159
2409.000000	0.311032
2410.000000	0.310337
2411.000000	0.310707
2412.000000	0.310036
2413.000000	0.309332
2414.000000	0.310299
2415.000000	0.306682
2416.000000	0.307406
2417.000000	0.307880
2418.000000	0.303298
2419.000000	0.302811
2420.000000	0.299157
2421.000000	0.292929
2422.000000	0.292450
2423.000000	0.297905
2424.000000	0.301130
2425.000000	0.297958
2426.000000	0.296606
2427.000000	0.293689
2428.000000	0.283811
2429.000000	0.285589
2430.000000	0.293289
2431.000000	0.293618
2432.000000	0.297775
2433.000000	0.296187
2434.000000	0.288387
2435.000000	0.281891
2436.000000	0.272055
2437.000000	0.270578
2438.000000	0.275613
2439.000000	0.270115
2440.000000	0.269194
2441.000000	0.264312
2442.000000	0.247873
2443.000000	0.244162
2444.000000	0.244190
2445.000000	0.248435
2446.000000	0.257893
2447.000000	0.260468
2448.000000	0.258417
2449.000000	0.257565
2450.000000	0.256615
2451.000000	0.253735
2452.000000	0.255391
2453.000000	0.249752
2454.000000	0.237106
2455.000000	0.231636
2456.000000	0.230358
2457.000000	0.224169
2458.000000	0.222341
2459.000000	0.224386
2460.000000	0.219464
2461.000000	0.223926
2462.000000	0.233164
2463.000000	0.239521
2464.000000	0.232566
2465.000000	0.222629
2466.000000	0.216031
2467.000000	0.202696
2468.000000	0.210191
2469.000000	0.210230
2470.000000	0.209910
2471.000000	0.225548
2472.000000	0.239256
2473.000000	0.269006
2474.000000	0.286037
2475.000000	0.286936
2476.000000	0.269087
2477.000000	0.235378
2478.000000	0.218100
2479.000000	0.206196
2480.000000	0.191972
2481.000000	0.185361
2482.000000	0.186056
2483.000000	0.181044
2484.000000	0.189665
2485.000000	0.207835
2486.000000	0.199150
2487.000000	0.202846
2488.000000	0.203678
2489.000000	0.210521
2490.000000	0.232640
2491.000000	0.206702
2492.000000	0.197832
2493.000000	0.173650
2494.000000	0.171119
2495.000000	0.208045
2496.000000	0.213917
2497.000000	0.202119
2498.000000	0.192435
2499.000000	0.171478
2500.000000	0.167926
